Time,Left Shoulder Angle,Right Shoulder Angle,Left Elbow Angle,Right Elbow Angle,Left Hip Angle,Right Hip Angle,Left Knee Angle,Right Knee Angle
0.0,17.48147365598107,44.53031357439757,159.0642385085375,158.8256413687084,124.48381923838484,110.55413708209564,211.14328708463609,221.3709878472708
0.0333667000333667,19.06364163926592,43.67778891930958,160.2980047691407,161.782271300814,124.35141607346549,111.38062115774608,211.34942077248667,220.81900932744333
0.0667334000667334,20.462822622260585,42.86949983036339,161.34153038958308,164.39271926141888,124.21797360469937,112.08621320390448,211.5252538250559,220.3435329292196
0.1001001001001001,21.68912285958409,42.10437259109756,162.20970794975324,166.6747546692937,124.08118297500548,112.67948685746758,211.67495649265268,219.93880012149427
0.1334668001334668,22.75264860585548,41.38133348505063,162.91743002953973,168.64614694320903,123.9387353273028,113.16901575533213,211.802699025586,219.59905237316212
0.1668335001668335,23.66350611569376,40.69930879576117,163.4795892088312,170.3246655019355,123.78832180451025,113.56337353439488,211.91265167416475,219.31853115311807
0.2002002002002002,24.43180164371796,40.05722480676771,163.91107806751626,171.72807976424366,123.62763354954676,113.87113383155256,212.00898468869784,219.0914779302568
0.2335669002335669,25.06764144454712,39.45400780160879,164.22678918548343,172.8741591489041,123.45436170533132,114.10087028370197,212.09586831949423,218.912134173473
0.2669336002669336,25.58113177280025,38.888584063822975,164.44161514262137,173.7806730746875,123.26619741478284,114.2611565277398,212.1774728168629,218.7747413516616
0.3003003003003003,25.982378883096395,38.3598798769488,164.57044851881864,174.46539096036437,123.06083182082028,114.36056620056284,212.25796843111272,218.6735409337172
0.333667000333667,26.28148903005456,37.86682152452482,164.62818189396384,174.94608222470538,122.8359560663626,114.40767293906784,212.3415254125526,218.60277438853464
0.3670337003670337,26.48856846829379,37.40833529008959,164.62970784794555,175.24051628648107,122.58926129432876,114.41105038015152,212.4323140114916,218.55668318500875
0.4004004004004004,26.6137234524331,36.98334745718164,164.58991896065243,175.36646256446204,122.31843864763768,114.37927216071068,212.53450447823843,218.52950879203428
0.4337671004337671,26.66706023709152,36.59078430933952,164.523707811973,175.34169047741892,122.02117926920832,114.320911917642,212.65226706310224,218.515492678506
0.4671338004671338,26.65868507688808,36.229572130101786,164.4459669817959,175.18396944412228,121.69517430195964,114.24454328784228,212.7897720163918,218.5088763133186
0.5005005005005005,26.59870422644179,35.898637203006984,164.3715890500097,174.91106888334272,121.33811488881058,114.15873990820826,212.95118958841616,218.50390116536693
0.5338672005338673,26.497223940371693,35.596905811593665,164.315466596503,174.54075821385086,120.94769217268008,114.0720754156367,213.14069002948412,218.49480870354583
0.5672339005672339,26.36435047329701,35.32330423940067,164.2924922011657,174.09080685441862,120.52159729648814,113.99312344702518,213.3624435899066,218.47584039675172
0.6006006006006006,26.38217290353529,35.20567523849552,164.62163186145744,174.02882800245658,119.99443730841833,113.91993654777156,213.65629033897963,218.44041175182343
0.6339673006339673,26.377863850250407,35.15933172733132,165.057191768397,173.78585013459605,119.58212648408212,113.8944400987847,213.7588782246532,218.3371613829613
0.6673340006673341,26.345608856331754,35.08212235972129,165.4700841504559,173.38953181885688,119.11264829908522,113.96490629816022,213.95665951437363,218.1630796787063
0.7007007007007008,26.265592985737666,34.993913610474046,165.952687853902,172.80410793563115,118.51320607021415,114.12173233110197,214.375153907857,217.9264461375044
0.7340674007340674,26.12783357807809,34.86624244889995,166.4340052436797,172.1238775225954,117.84009209011604,114.37736387886731,214.89874874566084,217.62640008486983
0.7674341007674341,25.928071124010604,34.81674364662892,166.8737708116082,171.50800118795956,117.1620554184124,114.64868316365306,215.4763784912384,217.386620671882
0.8008008008008008,25.90971310955005,34.694577711009174,167.58970787952268,170.9635532234955,116.3954088596938,114.98484062787328,216.15628439399416,217.12871670908265
0.8341675008341676,25.96572687785303,34.47975165273724,168.25055247372043,170.31635029674942,115.48530378812356,115.46646370782376,216.931893551876,216.74479569612404
0.8675342008675342,26.04645799622523,34.15709780567785,169.00747737581605,169.92245424993197,114.40840196448144,116.05012705198789,217.9249029408477,216.26828914146336
0.9009009009009008,26.128977258910886,33.80860058452258,169.9215452367419,169.59370438087208,113.23507859224144,116.64996839029338,219.0932057518721,215.7775117069589
0.9342676009342676,26.24944287352276,33.43121476803597,171.0112683452617,169.4123349033151,111.93066675986128,117.26896935704184,220.4560367969889,215.25296100937524
0.9676343009676344,26.433280042600234,33.17540004873891,172.23635792024132,169.42366920567437,110.69013147394617,117.946470483607,221.7041057162752,214.66901538474085
1.001001001001001,26.657661130543417,32.836519827797424,173.6153084663219,169.31510139558125,109.412067443424,118.65999055982176,223.080390705199,214.0584975385037
1.0343677010343677,26.963016927302355,32.380639205679174,174.9875351531965,169.03354315287748,108.0488255002525,119.38776892823692,224.535170060802,213.44896665926257
1.0677344010677343,27.1428042232352,31.550118975593094,176.15642994936528,168.60549234762243,106.6584344364291,120.16293194936011,226.0232499649095,212.7957476332379
1.1011011011011012,27.32997972950118,30.639222157610043,177.1705099649138,167.98158451437794,105.25416597648513,120.95248341820398,227.5427051562568,212.13421035280865
1.1344678011344678,27.40458298350737,29.530858180230208,178.11521067569083,167.26315911616456,103.87596272794352,121.74186870876711,229.01224695433703,211.46862883240485
1.1678345011678346,27.53842851223541,28.26785377418564,178.93949684272226,166.65944895261975,102.54002862594568,122.49689376806316,230.45039012497,210.8194883408025
1.2012012012012012,27.515066154207982,26.93020172840427,179.72053799674146,166.10253628261788,101.28794226820382,123.22728524516928,231.79686847438728,210.16121933876204
1.234567901234568,27.121023070383167,25.573547378538954,180.44169193307204,165.4622951710704,100.11208038029436,123.89007580073972,233.08170718632465,209.5419224347376
1.267934601267935,26.487273210247444,24.03928137187896,181.0719954010727,164.703984141949,98.99830099347258,124.518989189345,234.36606718782937,208.94174795245385
1.3013013013013013,25.519217247920785,22.41169205368457,181.0820751337954,164.26112656592355,97.9709478592865,125.09314437473564,235.59434675722363,208.3521873910372
1.334668001334668,24.432864235850943,20.771987611683954,181.06604720686173,164.04284876881596,97.01856177400347,125.63567733540324,236.6965654642117,207.7812416577487
1.3680347013680347,22.81646718947219,19.25594561434477,181.3401546129156,166.29082560018375,96.18021303397356,126.16491455230594,237.60793091171672,207.2326130885336
1.4014014014014016,21.40768358067343,17.630680394653567,181.25826202761027,167.65941864321275,95.25343761127962,126.68806942283186,238.3985163100003,206.66422319671287
1.4347681014347682,19.980929464224808,16.28480650130993,182.1362197722474,168.00561879125473,94.51438231725892,127.16311832248276,239.09163147521545,206.13230661460045
1.4681348014681348,18.67289696764337,14.84095436306036,182.76474721383852,167.33931677631995,93.94386135984328,127.5862192204207,239.6317460382519,205.623563446192
1.5015015015015016,17.517700909885313,12.709018855074534,183.217372469664,160.77452382724388,93.59417495059245,127.9673544002004,240.02645841090296,205.16858396909808
1.5348682015348682,16.532722811609062,10.849398890535497,183.31937805877388,155.95755035224096,93.4037108757226,128.30013118734675,240.2579725174777,204.78595693417745
1.5682349015682349,15.57036705196022,9.463655737721188,183.53893569985863,156.27905922134318,93.3353288073388,128.55938983048273,240.3113496630012,204.4629066077497
1.6016016016016017,14.823241842559806,8.422027973649877,183.4611874413448,155.70727542953458,93.38784738214304,128.7588075191412,240.17267336830005,204.14530343902464
1.6349683016349683,14.099442564097112,7.594354159408116,182.9481495124069,153.10071728785056,93.5261005302784,128.88240713385835,239.8589489025552,203.8647613829472
1.6683350016683351,13.600114952550063,6.996161783741098,181.98368227767568,149.6612652534954,93.59692311529768,129.0376261019175,239.6206235735636,203.5870725218488
1.7017017017017018,13.415161128786949,6.532014998492952,180.76814120717864,146.15343843758055,93.76992795550731,129.1534175562523,239.30431206783905,203.333994148644
1.7350684017350684,13.504916245537183,6.295595697423488,179.54824714381223,143.1379072097789,94.08753854166574,129.28206918073195,238.83923506666704,203.0532377567932
1.7684351017684352,13.651055002848429,6.094985962082662,177.86843319521242,141.08741864526365,94.47644448075864,129.4259200819839,238.2831209434832,202.7704190542385
1.8018018018018016,13.675533043396207,6.226210198830575,175.8365450412045,138.20827509198784,94.70967077770491,129.5884718852089,238.0057146482109,202.5147153809563
1.8351685018351689,4.809612683766509,6.587689784478509,173.31843569567664,134.73206319853054,94.98266936813856,129.74927122797996,237.8050819948048,202.2994397289083
1.8685352018685355,-0.7868284661488065,7.150665945843123,170.68550280319695,130.7700629786171,95.32513188367554,129.9008989379344,237.58884190353348,202.1264753566183
1.901901901901902,-3.3837078141778587,7.709041565511816,168.2712552575173,124.14429144029744,95.74280607548906,130.0289273119282,237.36374712547257,201.97740129515643
1.9352686019352687,-3.120005169602769,8.49315036264423,165.8254219167774,120.76276344016529,96.12814186702994,130.21952814104657,237.2093704445722,201.7137788135434
1.968635301968636,-0.1583262839076038,9.340036008380173,163.11170986117398,112.93118150228,96.55862818988852,130.44858806235422,237.08640571717453,201.37460593006304
2.002002002002002,5.244018677495917,10.572421248262584,160.62925634223154,105.7659782018199,97.09012717008348,130.59794671453523,236.9843834235245,201.10172999825429
2.035368702035369,12.772226308406688,12.30034302288806,158.13757962278362,99.61461717585983,97.72765153432066,130.67957727690114,236.89022564531808,200.8791836911934
2.0687354020687354,22.24077646382706,14.505343733430614,155.89110363267272,94.76746684065884,98.38371841104792,130.77085254429252,236.79934516576213,200.63817595115
2.1021021021021022,33.45055358065167,17.006511435743306,154.64930056956942,90.4301240470805,99.03642694363504,130.8559886259922,236.72282204864447,200.3863888155722
2.135468802135469,46.18124576742103,19.52652050464096,153.80673347495446,86.38207416310921,99.63487929841452,130.91267197280484,236.6784987423217,200.1734778716416
2.1688355021688355,60.26034215468217,22.90911707001857,153.20023459704998,84.7917130840039,100.06566994687002,130.93778243229457,236.67194864287995,199.96573829303296
2.2022022022022023,75.46904405272343,26.44711439063597,152.7673720153197,82.92448914476715,100.50525658403669,130.91132529469982,236.68832572283617,199.7918795941125
2.235568902235569,100.8840531645713,30.202984575849914,152.71006336106902,80.79363242594034,100.9107643566638,130.83606988806048,236.7873574635338,199.6225245398223
2.2689356022689355,124.06496252333235,33.547517224700144,152.72048035155495,79.01479770165439,101.2986722177582,130.7116140522838,236.9168774974581,199.49183107378624
2.3023023023023024,145.1489989414301,36.30787792462181,152.5320372215807,77.96391174059734,101.66790591973002,130.53118425073555,237.0661750034637,199.33910886816184
2.335669002335669,163.67583710410693,38.50036538235188,152.43233280164944,77.10031181791233,101.99996661715748,130.32095398049907,237.19130229566565,199.24668451106743
2.369035702369036,180.16625817635708,40.0700542064417,152.54745794581788,76.95997843750716,102.4007020223986,130.1765200604255,237.21180341828293,199.0436274408338
2.4024024024024024,194.2288441054465,41.00196636702843,152.68920389892608,77.50252791766678,102.7988697278764,130.07185602057035,237.13792092045523,198.87970842824052
2.4357691024357693,206.7253686453007,41.66570722892472,155.45937784410063,78.39700540863109,102.75475346208582,129.98174049988995,237.156002684287,198.6927733355652
2.469135802469136,216.2992742760713,41.91600589511835,157.63718305120352,79.5452616818661,102.568881216106,129.92039185712923,237.2543426458988,198.58177532578952
2.5025025025025025,222.866960851504,41.69682774343077,156.53564452467873,78.80729105757466,102.19469716866604,129.8580830766819,237.4989881710898,198.62996811004652
2.5358692025358693,227.5003993814445,40.84243156745232,156.28170152192985,75.62619226124042,101.90912488366268,129.88518409454667,237.73103457869087,198.72387508310155
2.569235902569236,229.1060203936631,39.770072165124,155.4651108956764,72.2996331239108,102.01825265781956,129.7996585540339,238.0634783943101,199.1123264664261
2.6026026026026026,228.41207464462,37.78545066434241,153.88224332481528,69.23664212352514,102.13401447731314,129.86252868393998,238.2665642105516,199.5294771433756
2.6359693026359694,225.1848967757857,35.12551517756517,153.25824732787856,66.20477553191321,102.56772639378605,129.6383197549761,238.08074193803165,200.28870383664903
2.669336002669336,219.55261194913567,32.97776787289765,152.7241535763965,70.16722313950496,103.16002275270364,129.3802000181397,237.7724751189628,201.1330392114598
2.702702702702702,211.46163232383523,30.674928802034835,152.32352328131233,75.55302807500986,103.58011018623388,129.17232144778228,237.20940697240425,202.0733514153104
2.736069402736069,201.2923273678189,27.954159311781257,151.60951987464685,76.59209875587301,104.08118867707562,129.00357940392692,236.3125045757701,203.0774403810892
2.7694361027694363,188.98486070790804,24.834981492314206,150.94021936783943,77.57574054623288,104.46677792490482,128.84649762606497,235.2673425800873,204.1466538039159
2.802802802802803,174.82317296081632,21.872633548721392,150.5434822120044,80.31511216896126,105.04827961411584,128.66326963796138,233.9551406175492,205.24210911962945
2.836169502836169,158.67458955224637,18.68014508229154,150.67945411574328,84.32766445098692,105.7847722432654,128.49366664009267,232.43727566428768,206.34077880033985
2.8695362028695364,140.3209602208092,15.830665017216877,150.92554659314126,88.72525837784352,106.7281037095846,128.25371879650578,230.65124516970243,207.43173837158577
2.902902902902903,120.36926151350336,13.11036788624127,151.6315345446116,92.45164833379884,107.85699073885546,127.8889621686886,228.6321482918427,208.556378403107
2.9362696029362696,98.28394031258811,10.976321421872354,152.46455073473462,94.527824512311,109.3137034003116,127.44345703835717,226.39941355811573,209.6465431913016
2.9696363029696364,74.99693474326756,9.80336970540454,154.31196149633263,98.48759301049073,111.19632694030568,126.8374579922866,224.113730466834,210.82078809846416
3.003003003003004,61.73209919434954,9.005844991699703,156.03132447398076,102.06899219157678,113.19495580713648,126.22138110979876,221.66525826346688,211.867139612011
3.0363697030363697,48.92159798518152,7.704606128852931,157.11879148803052,104.51050341020816,115.48078144624714,125.7364236584234,219.05497934588,212.8327896522415
3.0697364030697365,37.27263918578444,7.229369156976181,157.66395441967626,109.03676549607508,117.75306454794035,125.34019426894072,216.4177678568685,213.60996945692403
3.103103103103104,26.76947212902875,5.8571091787776055,158.84219559318595,110.63873798603272,120.05619131091724,124.99321459490751,213.7855466651904,214.21783426161733
3.1364698031364697,17.709351588875542,5.33361233174684,159.6981325518042,115.18410082893202,122.25849210380588,124.7191284523917,211.20873057619332,214.6369240188425
3.169836503169837,11.161212069710574,5.33361233174684,161.04468176122194,120.0805526986861,124.42570983338528,124.53083731810467,208.62608113379392,214.9209415151453
3.2032032032032034,6.748885449150689,5.33361233174684,162.44367729067014,124.51922366325311,126.42739000753512,124.46619480693292,206.1430119280813,214.98177229408245
3.2365699032365702,4.699740045808617,5.33361233174684,163.83905831414523,128.03426861167978,128.20026399544986,124.51989620483066,203.8299831360229,214.7899048221772
3.2699366032699366,5.10493689934172,5.33361233174684,164.29974817930974,130.9527278141045,129.79562388067228,124.6732693866354,201.666099438223,214.35191695978097
3.3033033033033035,8.051830441731987,6.86657060543731,163.5180420459013,133.2890900233029,131.18560755646487,124.96198779968184,199.7515259093701,213.6570516905469
3.3366700033366703,13.790218873053888,9.375223903734192,161.69778099433557,132.4596881469129,132.5354856678451,125.3361372947203,197.98657185133683,212.74072365888185
3.3700367033700367,22.649799863367715,12.631138314836416,160.20772328636914,130.99760193587713,133.7240447857271,125.85838486797904,196.39822858663,211.58410300769063
3.4034034034034035,22.40342160110012,16.524254310216055,158.31282926433957,128.80229056955366,134.76515104806447,126.41415023400256,194.96391292104104,210.3104581335809
3.4367701034367704,22.4958384742192,20.995661287079063,156.13997420172788,125.53934914919397,135.57931104366207,126.9745686437089,193.757578382818,208.9645094640488
3.4701368034701368,22.608661584020023,25.071145396112367,153.91042597376904,120.79696067533465,136.16458798339764,127.55153077940676,192.79552746104127,207.62975745945505
3.503503503503504,22.836096382498337,29.34913597823216,155.36557286177958,115.03542848869265,136.48255498033936,127.9840364341667,192.1415702829269,206.2577791276984
3.5368702035368704,22.368312150832573,33.09064102913326,154.75892243566398,107.83346145820856,136.4268082270814,128.38374924558292,191.8602880939387,205.0555083681558
3.5702369035702373,11.72942013420452,36.5872752411119,150.1552007374629,97.21276945160768,136.0109047287299,128.7894892920593,191.9403434756861,203.8966320159969
3.603603603603604,3.789303989788293,39.74238373651217,141.02428801647275,86.4128141335135,135.76164788813958,129.244010468692,192.2085530262632,202.87995536954804
3.6369703036369705,3.789303989788293,42.59568762077889,133.61775129708664,72.39369776111363,135.43985506020496,129.6890248611858,192.64984555585983,202.07799366173623
3.670337003670337,3.789303989788293,45.040552284064994,129.05284443242408,61.83448419588552,135.32054487684962,130.21543940399096,193.0310260683529,201.3076304492081
3.703703703703704,3.789303989788293,48.29874862187855,122.54508128426036,51.42385132991423,135.22754304069787,130.65999682675508,193.46133288557928,200.74262847472343
3.737070403737071,3.789303989788293,50.64646682130534,117.28772598872816,42.899693493998505,135.1038283063654,131.21626190398402,193.67031529448508,200.13379092772823
3.770437103770437,3.789303989788293,42.84409121995842,112.45213643697636,36.739935927727785,135.16818742037418,131.63296367310207,193.69950860005983,199.721724611924
3.803803803803804,3.789303989788293,37.43233792662343,107.4334019284048,31.83266121865205,135.08845863082303,132.35087097208748,193.79922202520024,199.1319056205191
3.8371705038371706,3.789303989788293,35.05200215399406,102.73050714343634,29.26070787222501,134.8004191227516,133.11370726756238,193.7454157428196,198.56745562435088
3.8705372038705375,3.789303989788293,34.310889321719735,98.67926288358424,28.106625915675146,134.69979710409729,133.83356000081343,193.61165907555653,198.00343400876
3.903903903903904,3.789303989788293,34.88553253109772,95.5226125063337,28.729331892973377,134.62531784226394,134.46883391829957,193.5039190003288,197.5783338010598
3.937270603937271,3.789303989788293,37.80932333847056,92.99935115127968,31.15713780840853,134.8924162578958,135.03039584072243,193.2177732569993,197.1921855360325
