Time,Left Shoulder Angle,Right Shoulder Angle,Left Elbow Angle,Right Elbow Angle,Left Hip Angle,Right Hip Angle,Left Knee Angle,Right Knee Angle
0.0,46.30056960645662,44.65752906249328,167.09822688778323,175.36349704613292,138.0420265415428,135.6822137434715,199.725451216828,200.68920198895992
0.0333667000333667,38.5940341334204,43.88757475511686,165.01996813353276,174.22761333063218,137.2009837566868,136.0890109909569,199.92262566930123,200.2310882390926
0.0667334000667334,32.02073483331857,43.24861785411056,163.1814396338776,173.2995940783224,136.529199179105,136.4732165015626,200.0425762767128,199.7928989282721
0.1001001001001001,26.517838792310663,42.7318557369648,161.57582473530138,172.56382199793566,136.01611767655078,136.83565458584766,200.08999209824853,199.37359420521585
0.1334668001334668,22.022513096556207,42.328485781170016,160.19630678428769,172.00467979820402,135.65118411677756,137.17714955437114,200.0695621930948,198.9721342186412
0.1668335001668335,18.471924832214704,42.02970536421665,159.03606912732016,171.60655018785957,135.42384336753875,137.49852571769205,199.9859756204377,198.58747911726564
0.2002002002002002,15.803241085445675,41.826711863595136,158.08829511088243,171.3538158756344,135.32354029658774,137.80060738636945,199.8439214394633,198.21858904980647
0.2335669002335669,13.953628942408642,41.71070265679591,157.34616808145802,171.2308595702606,135.33971977167798,138.0842188709624,199.64808870935772,197.86442416498127
0.2669336002669336,12.860255489263125,41.6728751213094,156.8028713855306,171.2220639804702,135.46182666056282,138.35018448202996,199.4031664893073,197.5239446115073
0.3003003003003003,12.460287812168636,41.70442663462605,156.4515883695838,171.31181181499534,135.67930583099573,138.59932853013115,199.113843838498,197.1961105381021
0.333667000333667,12.690892997284712,41.796554574236296,156.28550238010115,171.48448578256807,135.98160215073008,138.8324753258251,198.78480981611585,196.87988209348288
0.3670337003670337,13.489238130770843,41.94045631763057,156.29779676356634,171.72446859192044,136.35816048751929,139.05044917967078,198.4207534813472,196.57421942636725
0.4004004004004004,14.792490298786568,42.1273292422993,156.48165486646292,172.01614295178456,136.79842570911674,139.25407440222727,198.0263638933781,196.27808268547253
0.4337671004337671,16.537816587491406,42.34837072573294,156.8302600352745,172.34389157089254,137.29184268327592,139.44417530405363,197.6063301113947,195.9904320195161
0.4671338004671338,18.662384083044863,42.59477814542191,157.33679561648478,172.6920971579764,137.82785627775013,139.62157619570888,197.1653411945832,195.7102275772155
0.5005005005005005,21.103359871606465,42.85774887885665,157.99444495657727,173.04514242176825,138.39591136029287,139.7871013877521,196.70808620212952,195.43642950728804
0.5338672005338673,23.79791103933572,43.12848030352759,158.7963914020356,173.38741007100015,138.9854527986575,139.94157519074233,196.23925419322,195.1679979584512
0.5672339005672339,26.68320467239255,43.39816979692553,159.7358182993447,173.70328281440564,139.58592546059856,140.0858219152398,195.7635342270424,194.9038930794239
0.6006006006006006,29.115317780937545,43.573887028810105,161.23323005842877,173.81072611966997,140.10571626163804,140.17695558979472,195.3138677703488,194.6392976990368
0.6339673006339673,31.580189050407085,43.69331757113115,162.36802473857145,173.77205924936482,140.55114966387157,140.2733848130437,194.86996457829275,194.34445885049453
0.6673340006673341,34.271009210855055,43.87477490750208,163.54691465490674,173.79039687640434,140.9981827793657,140.3899976115291,194.39205181042183,194.0693917876288
0.7007007007007008,37.21156136427103,43.9882940436549,164.7871191393731,173.69992348164334,141.3905378999715,140.48878684565156,193.958188668546,193.7910006213579
0.7340674007340674,40.41516484458578,44.04002431333455,166.13528606687626,173.4891384454122,141.73668802491804,140.58775358967088,193.5801653913261,193.50059671684105
0.7674341007674341,42.31210316534096,44.03654706745501,167.9497644930412,173.1399828953498,142.0321617423709,140.68174554564118,193.2494076119979,193.1956003484272
0.8008008008008008,44.57099300278351,44.05337209562838,169.66403897734585,172.79133763164663,142.316918256846,140.78547970333452,192.9018039906929,192.88874839538403
0.8341675008341676,46.39427668875177,44.01696193249185,171.60481392066728,172.2793624563454,142.54217694341548,140.8919126147756,192.5662477486672,192.5888872075223
0.8675342008675342,47.73265864045652,43.91987178778084,173.7857061554047,171.65620167721357,142.74567770631245,141.0147320493425,192.26940109466287,192.30472020800937
0.9009009009009008,48.79294522838519,43.72278605907017,175.78146919982686,170.89734984440074,142.92132923033626,141.14077516034578,192.0076766240819,192.04205867640312
0.9342676009342676,49.39328189913797,43.45244196166873,177.72015973971227,170.01266065287697,143.04366432712845,141.2764121714811,191.7683798259252,191.8103213471491
0.9676343009676344,49.59428685298751,43.10264358212581,179.51756751456332,169.00398511594872,143.13375875528905,141.41262757604417,191.56567004031643,191.60947036294093
1.001001001001001,49.33658096574342,42.74467216842262,181.3139260468732,167.9731170151349,143.2147645304423,141.5360459713797,191.36546661683755,191.45261248240044
1.0343677010343677,49.87155455416184,42.409316176189925,182.28574659753752,166.81634799925243,143.3341446407289,141.66635603406803,191.10680279293064,191.3440682439941
1.0677344010677343,50.13371402535701,41.92392901409689,183.58712950654385,165.623661311835,143.38966536980487,141.8229285377992,190.9285560285988,191.204604403401
1.1011011011011012,50.493970453043865,41.58785103777858,184.34647876586456,164.6657244569692,143.37268990846923,141.9933906567419,190.81140692191283,191.05984015948752
1.1344678011344678,50.92788255441702,40.96803079581101,185.0721937883004,163.2932230923759,143.29751319262812,142.20512366878037,190.77222074139613,190.89365318055744
1.1678345011678346,51.308760701941154,40.166569648725655,185.51532780275136,161.548401799455,143.19591081848395,142.44490593966734,190.7621833629809,190.72344804704508
1.2012012012012012,51.51252432236938,39.24845996777629,185.58489745875045,159.7775470905073,143.0263974361701,142.71189036687392,190.82559925366385,190.52611894381857
1.234567901234568,51.8547182809309,38.31570348066168,185.59629023329308,158.16372239160697,142.86184757120995,143.00832966349373,190.94431910513765,190.34247820391664
1.267934601267935,52.24812515752063,37.437824864445645,190.5062152648242,156.6701320065322,142.6459822249372,143.30280708870598,191.15528187518404,190.18933741011475
1.3013013013013013,52.756861143137975,36.402718557144006,193.7636518410156,154.8920987744376,142.3866391634602,143.56577217384103,191.45927603300788,190.09187590716925
1.334668001334668,53.13125184296843,35.29388362412228,196.14229659726288,152.97508362820813,142.09320217303343,143.80714584248005,191.82576351364,190.01490386169417
1.3680347013680347,53.48361552501379,34.032309268184534,197.06683086539377,150.8801787884119,141.8243783955156,144.05479900578302,192.22508594330372,189.92569159676492
1.4014014014014016,53.72781526666344,32.69429729078016,196.7804903801913,148.69205659603244,141.54347423793524,144.2752293823218,192.6497968467664,189.8550001584992
1.4347681014347682,54.12698915552764,31.346806632352653,194.96340205693605,146.48252156126588,141.2380697751833,144.50526402021285,193.0992790308016,189.79943426139727
1.4681348014681348,54.24902928486464,29.96838268952642,192.0599868152175,144.05768564574456,140.92334112393266,144.76017032811538,193.55296208572813,189.74269608426016
1.5015015015015016,54.21276201909278,28.469867845233416,188.33619995519288,141.54712654619266,140.6166694528208,145.0330297065158,194.0301251248003,189.6868284102815
1.5348682015348682,53.73488056724253,26.804970628266755,183.5232169464469,138.93447578770093,140.2934324485835,145.3149254730872,194.5254213487702,189.6427455293464
1.5682349015682349,52.68596024283882,25.057159331661914,174.62220849332803,136.15501324004563,139.93128742335946,145.58687455608026,195.0121218663569,189.60120471660372
1.6016016016016017,51.482811622287535,23.181362902806704,174.5194171195381,133.0994518646368,139.5669815395035,145.844328722307,195.46021029485536,189.5419163020456
1.6349683016349683,49.92076917927602,21.345881229691955,172.10364887776598,129.94031062805297,139.19328036663202,146.0864057230582,195.93272232739645,189.4688514799055
1.6683350016683351,48.06514334528166,19.424990530279697,166.48773071615068,126.32173354048506,138.77540886924905,146.3141330497665,196.45540420259687,189.4174014260873
1.7017017017017018,46.20495433837964,17.45959951535927,160.9868021250227,122.34856280140896,138.3372188696502,146.54769065129662,197.0042707448363,189.3487014071772
1.7350684017350684,43.720246103666426,15.548969457255849,155.11128249589123,118.23433743300428,137.86981017164578,146.76381680935228,197.5861045127052,189.268597656718
1.7684351017684352,41.27338193974752,13.720394320849383,149.368169174268,114.2755445343484,137.38827150006648,146.97844473814123,198.1643640071964,189.1936940022791
1.8018018018018016,38.64269265595676,11.302511164069418,143.1923868555892,109.16148641855084,136.8640792232372,147.21847762284932,198.7181708100884,189.1271786800638
1.8351685018351689,35.55140061708253,9.120845789942436,137.6564053494249,104.43832351932596,136.30303134878466,147.4733000485002,199.3022924016822,189.03495080487147
1.8685352018685355,32.221366321796914,7.366634458977335,132.30229942187373,100.2297694716297,135.83624938285783,147.747530093189,199.85988791543457,188.9259393270732
1.901901901901902,29.783053873674813,5.380813579256299,125.89014160224258,96.74695321865052,135.3491799686647,148.20602812262072,200.30720720281732,188.86851959807672
1.9352686019352687,27.41232567873456,4.069903244565966,119.31809450549096,92.31141744422284,135.07370851974477,148.53642097965684,200.73023268561488,188.82860458137736
1.968635301968636,24.34250560419926,3.5378655967692394,109.6522949191952,90.22482374009938,134.8208692603797,148.94516186984893,201.1054898654421,188.85712191473732
2.002002002002002,21.73647611562599,3.5378655967692394,104.6594702687482,87.9424058178818,134.91569070098163,149.1433131923056,201.52165389115484,188.89581814502185
2.035368702035369,19.196679244092284,3.5378655967692394,98.181154749324,84.65695333204091,135.05888020988868,149.29955456890946,201.92527712541212,188.9302457293621
2.0687354020687354,17.07041735916246,3.5378655967692394,94.09236292255468,82.71327029814569,135.3309570452772,149.30829489947095,202.3332217068296,188.966853143818
2.1021021021021022,15.031428641164789,3.5378655967692394,91.12930857737248,80.54032447443282,135.66394730107928,149.26345066815324,202.70063101074103,188.9844659418701
2.135468802135469,13.021915524520988,3.5378655967692394,88.41614164173247,78.15873898415556,136.05244177757214,149.1840206209797,203.0285608580856,188.9694733191108
2.1688355021688355,11.133654261975927,3.5378655967692394,85.73024171995485,75.54046460777286,136.41591098483423,149.1388884995703,203.34460356388547,188.87511109625973
2.2022022022022023,9.395255288718722,3.5378655967692394,83.11235300526404,72.60802457105714,136.71770327223808,149.18223294945597,203.71628611247272,188.7052549732448
2.235568902235569,7.682274933390835,3.5378655967692394,81.17777122953245,69.28833473552845,137.01010288862673,149.30517795279644,204.0545387770612,188.51075218725083
2.2689356022689355,6.007319049714958,3.5378655967692394,80.02877046369643,65.19764583836282,137.34350009599808,149.4588432124381,204.37210231985296,188.2750171093253
2.3023023023023024,3.582682596524161,3.5378655967692394,78.72283345298015,61.08655588509679,137.68149654368432,149.66915267440004,204.6499444847836,188.0122713214689
2.335669002335669,3.582682596524161,3.5378655967692394,78.34379215991807,57.313492431378535,137.969225680316,149.9113267470694,204.9539667474264,187.72801283170088
2.369035702369036,3.582682596524161,3.5378655967692394,79.47260130143643,53.68210617653947,138.24561191697344,150.1537099356873,205.2532182467196,187.48370662144703
2.4024024024024024,3.582682596524161,3.5378655967692394,81.92637871600077,49.9798647408741,138.4473383712502,150.3800086629174,205.556540147777,187.26021858185248
2.4357691024357693,3.582682596524161,3.5378655967692394,80.06432084340351,46.22816980788183,138.59187863392123,150.6189687129544,205.83948112679133,187.03008579053235
2.469135802469136,3.582682596524161,3.5378655967692394,79.27570524303232,42.82206870275606,138.7370412291008,150.86726576152202,206.0409343853088,186.8030615514968
2.5025025025025025,3.582682596524161,3.5378655967692394,78.57405337740478,39.5290600170914,138.87610907462994,151.12203988987218,206.18314460560848,186.5927048330505
2.5358692025358693,3.582682596524161,3.5378655967692394,78.73034096714191,36.510951413242495,138.99963137613923,151.4074118304921,206.24838061532995,186.39352389312012
2.569235902569236,3.582682596524161,3.5378655967692394,79.54149223752324,33.84343414870964,139.12638233051615,151.71499824049306,206.26382656897715,186.21281659790225
2.6026026026026026,3.582682596524161,3.5378655967692394,81.86711072358395,31.405016015564907,139.24071950470417,152.0315446567584,206.23296853157848,186.0508112866621
2.6359693026359694,3.582682596524161,3.5378655967692394,85.20451445370385,29.308928979136297,139.3374965848903,152.35494146382555,206.16005090746663,185.9154161321765
2.669336002669336,3.582682596524161,3.5378655967692394,89.27269776561602,27.39796470333713,139.39969308584148,152.6820143999167,206.03891544341985,185.78456466561488
2.702702702702702,3.582682596524161,3.5378655967692394,94.5157101878949,25.631974212031626,139.45629598073367,153.02446190378473,205.86218068971505,185.6419984097119
2.736069402736069,3.582682596524161,3.5378655967692394,105.59745367262822,24.01652173721344,139.49285499107592,153.38308534874906,205.64995182286307,185.4941214055315
2.7694361027694363,3.582682596524161,3.5378655967692394,108.51374300393049,22.58111121138185,139.49570652152687,153.75771935664446,205.42574719079943,185.3761849085388
2.802802802802803,3.582682596524161,3.5378655967692394,112.0268527607276,21.23462121176609,139.47037205835986,154.17689188736284,205.178794253392,185.24749330638616
2.836169502836169,3.582682596524161,3.5378655967692394,118.07023577311008,20.32946244596484,139.40385008944284,154.60202494171168,204.91095234847376,185.1395204022808
2.8695362028695364,3.582682596524161,3.5378655967692394,123.91265070828824,19.908973652634483,139.31582787691886,155.03472371127393,204.6318154756993,185.0400687155744
2.902902902902903,3.582682596524161,3.5378655967692394,129.95412360681993,19.8528026014677,139.18589446097667,155.45046401227074,204.34014297570445,184.98069564887115
2.9362696029362696,3.582682596524161,3.5378655967692394,135.61496194052287,19.916689896330137,139.035183902306,155.8588950052561,204.0615513633874,184.9601367336061
2.9696363029696364,3.582682596524161,3.5378655967692394,141.36751969543838,21.78227135259572,138.942987815995,156.25360915289542,203.7921879099402,184.98024623590064
3.003003003003004,3.582682596524161,3.5378655967692394,146.04264489681532,24.064016584728748,138.93671547177988,156.61030603069565,203.5277420353947,185.0338198170888
3.0363697030363697,3.582682596524161,3.5378655967692394,149.81170516550966,26.63254090274837,138.96611839769434,156.94607078685306,203.26582766507903,185.13434465713624
3.0697364030697365,3.582682596524161,3.5378655967692394,153.95671324005042,29.0698593892418,139.15295763222886,157.00408494589692,203.094919621343,185.22618786896112
3.103103103103104,3.582682596524161,3.5378655967692394,157.95022851970876,33.247694546696614,139.30135216257298,157.05779040426967,202.94459303961008,185.33362680475463
3.1364698031364697,3.582682596524161,3.5378655967692394,165.86054337617148,35.38086942364599,139.59942744759005,156.87509532158796,202.87692660670143,185.38592333197224
3.169836503169837,3.582682596524161,3.5378655967692394,169.85971259758867,37.4993650650774,139.6991619664392,156.75160336527756,202.8297387853344,185.43083242922737
3.2032032032032034,3.582682596524161,3.5378655967692394,175.5004641785312,40.63946436063872,139.83963365286644,156.5770504347643,202.8208400685956,185.4670657430247
3.2365699032365702,3.582682596524161,3.5378655967692394,179.09327760902076,42.34658159206376,139.8871888952508,156.4815449095342,202.84216324956807,185.48495250051172
3.2699366032699366,3.582682596524161,3.5378655967692394,181.09859989085228,43.77407794930591,139.91897983342116,156.41125254887524,202.89801617616808,185.4804921353897
3.3033033033033035,3.582682596524161,3.5378655967692394,181.95690247869047,44.91502141176326,139.8876737241441,156.38174084492564,203.0014156411556,185.47192318384555
3.3366700033366703,3.582682596524161,3.5378655967692394,182.26756515924043,45.64808595887764,139.85142646928108,156.37567012148858,203.1425644514332,185.4589381674056
3.3700367033700367,3.582682596524161,3.5378655967692394,182.2203434289117,46.27739646034812,139.77638390792586,156.34782862300517,203.35802550994765,185.4783221178704
3.4034034034034035,3.582682596524161,3.5378655967692394,181.232274130274,46.472634360469456,139.67019218595485,156.2705714362291,203.6576487001585,185.54747629275167
3.4367701034367704,3.582682596524161,3.5378655967692394,179.7193399288347,46.813029003801184,139.52808204205982,156.19605055452746,204.01369528065555,185.69468326398805
3.4701368034701368,3.582682596524161,3.5378655967692394,178.6683533340393,47.47111314099906,139.3724887044977,156.07496522991752,204.3887791183004,185.8903007436706
3.503503503503504,3.582682596524161,3.5378655967692394,177.92209061999506,48.241944186111205,139.1397832846623,155.890778473634,204.8018484682113,186.10681142468647
3.5368702035368704,3.582682596524161,3.5378655967692394,177.42693026288845,49.332613682306935,138.75179911654422,155.7041799779406,205.2670417295808,186.2873468679549
3.5702369035702373,3.582682596524161,3.5857624863474844,181.83655809560017,50.163409581686,138.32182614240037,155.52221115573346,205.74195846774137,186.4495951671965
3.603603603603604,3.582682596524161,3.5857624863474844,185.60337173074328,48.05540546262236,137.85304530738136,155.42603567216852,206.1782381158238,186.5836441514556
3.6369703036369705,3.582682596524161,3.5857624863474844,185.9963269286892,46.284732284662816,137.4479909224412,155.24766716949082,206.67286182473748,186.8055348805353
3.670337003670337,3.582682596524161,3.5857624863474844,182.99105638824312,45.71413316565233,137.04077189219583,155.01415322410816,207.2236173267096,187.0715539202919
3.703703703703704,3.582682596524161,3.5857624863474844,183.93252709648385,45.79867260633642,136.6185531333335,154.59733309718783,207.8386434487696,187.44091000566684
3.737070403737071,3.582682596524161,3.5857624863474844,185.7219930662799,45.955139537298926,136.23024082755995,154.00016254225545,208.53578492823675,187.9082182994463
3.770437103770437,3.582682596524161,3.5857624863474844,185.6899767446547,45.97806712479096,135.74030426163793,153.3055015875491,209.29581843691847,188.4800654957781
3.803803803803804,3.582682596524161,3.5857624863474844,184.08446622975976,45.50867330183771,135.16861154142313,152.47238755004716,210.1927366108836,189.216904973264
3.8371705038371706,3.582682596524161,3.5857624863474844,180.8680438291996,44.762304715767335,134.54544776489385,151.5506064164583,211.22887833327272,190.05959967451616
3.8705372038705375,3.582682596524161,3.5857624863474844,171.14158915864542,43.86861775008418,133.81565405548992,150.51277815616314,212.36028477029376,191.06031169696908
3.903903903903904,3.582682596524161,3.5857624863474844,161.01627827488343,42.7255730397998,133.17094542945526,149.39655431342183,213.3086801008694,192.21180509309835
3.937270603937271,3.582682596524161,4.285477162851386,151.6415046039024,42.05294893475125,132.51502458365206,148.25470012060924,214.12746061058388,193.476348345889
