Time,Left Shoulder Angle,Right Shoulder Angle,Left Elbow Angle,Right Elbow Angle,Left Hip Angle,Right Hip Angle,Left Knee Angle,Right Knee Angle
0.0,163.3494800092055,151.32230775403193,216.82910483402216,168.42247083899383,12.9353681388404,11.58600683901834,109.33342246851862,121.06717269216364
0.0333778371161548,172.36850981367257,158.0189114411522,208.10225165193003,171.36782315149966,9.531587079892953,10.335152531684775,116.64367899431976,123.27870634830144
0.0667556742323097,180.12121506465712,163.92482452961943,200.3757010603067,173.9601612929699,6.905048369421279,9.418152097966452,122.21254218744336,125.15078478241726
0.1001335113484646,186.6517096282992,169.0469689513839,193.597760790174,176.2224067083795,5.034703008214911,8.843483376485013,126.18142765873633,126.70986312774096
0.1668891855807743,192.00410737073847,173.39226663839582,187.71673857255385,178.17748084270346,3.8995019970633766,8.619624205862108,128.6917510190456,127.9823965175024
0.2002670226969292,196.2225221581153,176.96763952260545,182.68094213846803,179.8483051409168,3.4783963367562105,8.755052424719386,129.8849278792181,128.99484008493138
0.3004005340453938,199.35106785656936,179.78000953596307,178.43867921893843,181.2578010479945,3.750337028082937,9.258245871678495,129.90237385010082,129.77364896325778
0.3671562082777036,201.43385833224065,181.83629861041888,174.93825754498693,182.4288900089116,4.694275071833088,10.137682385361089,128.88550454254062,130.3452782857114
0.4339118825100133,202.51500745126904,183.1434286779232,172.1279848476353,183.38449346864297,6.2891614687961965,11.401839804388809,126.97573556738448,130.7361831855221
0.4672897196261682,202.63862907979453,183.70832167042616,169.95616885790548,184.1475328721637,8.513947219761787,13.059195967383303,124.31448253547931,130.97281879591972
0.5674232309746329,201.84883708395705,183.5378995198781,168.37111730681926,184.74092966444888,11.347583325519397,15.118228712966228,121.04316105767204,131.08164025013411
0.6341789052069425,200.18974532989657,182.63908415822925,167.32113792539857,185.1876052904733,14.769020786858544,17.587415879759227,117.3031867448096,131.08910268139508
0.6675567423230975,197.705467683753,181.01879751742985,166.75453844466514,185.5104811952121,18.75721060456877,20.47523530638395,113.23597520773896,131.0216612229325
0.7009345794392523,194.44011801166624,178.68396152943018,166.6196265956409,185.73247882364012,23.291103779439595,23.790164831462047,108.982942057307,130.9057710079762
0.7676902536715621,190.43781017977628,175.6414981261804,166.86471010934778,185.87651962073264,28.34965131226056,27.540682293615163,104.6855029043607,130.767887169756
0.8010680907877169,185.74265805422303,171.8983292396309,167.4380967168075,185.9655250314644,33.91180420382119,31.735265531464947,100.48507335974692,130.63446484150177
0.8344459279038718,180.39877550114645,167.4613768017318,168.288094149042,186.0224165008105,39.95651345491103,36.382392383633054,96.5230690343127,130.53195915644332
0.8678237650200267,174.45027638668822,162.33756274443513,169.3630101370746,186.07011547374725,46.46273006631946,41.490540688741,92.94090553890538,130.48682524781154
0.9012016021361816,165.82940642007105,152.53375826507423,173.88718310565403,186.6539021229192,54.9354770422228,48.61124014552072,87.43387663758372,127.3892909256568
0.9345794392523364,151.01964373119233,143.29423043067496,174.81880840106987,189.28949908718272,63.51669405146785,56.362441174398604,90.7579263313104,129.32437602176907
0.9679572763684912,138.7388423117309,135.0574564467025,174.488701640392,192.0370709201512,72.29232434074595,64.51042545403796,95.23283072267634,131.23128338134606
1.0013351134846462,128.30309070793302,125.5298816627934,174.7235473142453,193.0554835226572,81.32059014927643,72.92811227681429,102.75589803497908,132.83031917810035
1.034712950600801,119.13012017463646,109.43748652282362,175.97429800010164,194.79211729903577,90.729765150468,81.20146120280013,101.54955297435356,132.485008731065
1.068090787716956,112.39259792299993,96.490186130908,176.861191437108,194.448712973254,99.9011615627156,89.7841682331809,99.67707031048678,135.1410283009011
1.1014686248331107,108.95319283418172,87.90211480526449,176.74173301081274,191.51415357302284,108.44590855390383,98.5640023348992,105.60049041972852,138.4073831199751
1.1348464619492658,106.01072432296912,80.27856034029557,177.74438397460872,190.2888946843,117.03094002622508,107.519731029834,106.02382115001348,134.40293951275973
1.2349799732977302,103.82408022922976,73.69685413131288,178.43369818230113,189.4112690828539,125.31567918132166,115.8444600357498,113.12065189792568,136.6319775184174
1.268357810413885,102.74381611349932,68.88710602956453,178.91881065766003,187.93562258950303,133.11204685488156,123.81647403909702,121.27979035350438,139.45089251802148
1.30173564753004,101.20535366573884,72.71659069917942,180.64372866184056,185.37647240768192,140.53029550130495,131.74185560070666,130.58254576618887,143.19876092879403
1.335113484646195,109.25687341907889,75.90599094321703,183.62063085826807,187.61357773584743,147.5372162799383,139.57463284585944,139.55385518007276,147.33620496911158
1.3684913217623498,116.88651105247826,78.49844227615714,184.55634601154745,187.931672689031,153.9963752243781,147.28601426108062,152.06928757643095,150.12137603557034
1.4018691588785046,123.14659528699198,80.27516209474533,183.8071208420749,188.84281667250283,159.7860536895547,154.6269417551927,156.3703994864087,152.09958311303447
1.4352469959946594,132.19920161249132,84.66147442689407,184.10705286632373,187.3324563703444,166.39536987362982,161.57468554666295,162.42308734076028,151.80701214950017
1.4686248331108145,141.32558930059736,89.31370985134205,183.73143540861,185.3137707388209,172.53422138593908,168.0027917810451,168.140190314521,151.29205918229235
1.502002670226969,150.22357049712787,94.02319639795112,182.5658277824677,182.73732516949585,178.14302891207944,173.84827971553406,173.46800276246455,150.59982515911696
1.535380507343124,158.59095734790242,98.58126209658434,180.49578930143247,179.55368505393474,183.16221313764868,179.04816860732583,178.3528190393654,149.77541102768123
1.568758344459279,166.12556199874007,102.77923497710437,177.40687927904014,175.7134157837031,187.5321947482445,183.5394777136162,182.7409334999981,148.86391773569216
1.6021361815754338,172.52519659546022,106.40844306937436,173.18465702882636,171.1670827503664,191.19339442946483,187.25922629160107,186.5786404991373,147.91044623085676
1.6355140186915886,177.4876732838818,109.26021440325708,167.71468186432682,165.86525134549015,194.08623286690727,190.14443359847627,189.81223439155733,146.9600974608822
1.6688918558077437,180.7108042098245,111.1258770086155,160.88251309907724,159.7584869606398,196.15113074616983,192.13211889143764,192.3880095320329,146.05797237347542
1.7022696929238983,181.89240151910712,111.7967589153126,152.57371004661337,152.7973549873809,197.32850875285013,193.15930142768107,194.25226027533844,145.24917191634364
1.7356475300400531,180.73027735754937,111.06418815321116,142.6738320204708,144.9324208172789,197.558787572546,193.1630004644024,195.3512809762485,144.57879703719388
1.7690253671562082,176.92224387096994,108.71949275217428,131.06843833418532,136.1142498418993,196.7823878908552,192.0802352587975,195.6313659895377,144.0919486837331
1.802403204272363,170.16611320518825,104.55400074206464,117.64308830129258,126.2934074528076,194.9397303933756,189.84802506806224,195.03880966998048,143.83372780366847
1.835781041388518,160.15969750602372,98.3590401527454,102.28334123532844,115.4204590415693,191.9712357657048,186.4033891493924,193.5199063723514,143.84923534470715
1.8691588785046729,146.6008089192954,89.9259390140794,84.8747564498284,103.44596999974988,187.81732469344087,181.68334675998395,191.02095045142505,144.18357225455603
1.902536715620828,129.18725959082252,79.04602535592946,65.30289325832823,90.32050571891486,182.4184178621813,175.62491715703263,187.4882362619758,144.88183948092234
1.9359145527369823,107.61686166642454,65.51062720815858,43.45331097436363,75.9946315906297,175.71493595752406,168.16511959773436,182.86805815877835,145.989137971513
1.9692923898531367,81.58742729192045,49.11107260062974,19.21156891147035,60.4189130064599,167.6472996650669,159.24097333928503,177.1067104966072,147.55056867403522
