Time,Left Shoulder Angle,Right Shoulder Angle,Left Elbow Angle,Right Elbow Angle,Left Hip Angle,Right Hip Angle,Left Knee Angle,Right Knee Angle
0.0,141.27002885143253,192.0962156427578,158.61591080477274,159.49143766262304,78.5717882642429,7.655991637380577,173.53236950239062,189.71239746741625
0.0667334000667334,128.1423528178394,184.2295678614041,160.5637222078882,163.45281748053063,90.85846793928803,24.67931817763665,174.14042007892823,187.0098920352563
0.1334668001334668,115.74328305966944,175.72433083715862,162.39370057954167,166.82814862726045,101.89348771648828,40.88904820889633,174.8085910920321,184.6115346764309
0.3003003003003003,104.05667909331471,166.65863882445936,164.10934673180216,169.65248503149593,111.73949149160022,56.29458384421696,175.5288995296281,182.50067617806792
0.333667000333667,93.06640043516728,157.11062607774448,165.7141614767387,171.9608806219207,120.45912316038049,70.90532719665589,176.29336237964213,180.66066732729536
0.3670337003670337,82.75630660161917,147.15842685145208,167.21164562642028,173.78838932721828,128.1150266185857,84.73068037927047,177.0939966300001,179.0748589112412
0.4004004004004004,73.11025710906246,136.88017540002025,168.6052999929159,175.17006507607223,134.76984576197245,97.780045505118,177.92281926862796,177.72660171703336
0.4337671004337671,64.1121114738892,126.35400597788713,169.89862538829456,176.1409617971661,140.4862244862974,110.06282468725588,178.77184728345154,176.59924653179982
0.4671338004671338,55.74572921249144,115.65805283949084,171.0951226246253,176.7361334191835,145.32680668731714,121.58842003874145,179.63309766239678,175.67614414266856
0.5005005005005005,47.99496984126124,104.87045023926947,172.1982925139771,176.99063387080787,149.35423626078833,132.36623367263198,180.4985873933896,174.94064533676752
0.5672339005672339,40.84369287659062,94.06933243166114,173.21163586841897,176.93951708072285,152.63115710246757,142.4056677019849,181.3603334643558,174.37610090122467
0.6006006006006006,34.27575783487168,83.33283367110397,174.13865350001993,176.61783697761194,155.22021310811144,151.71612423985755,182.21035286322137,173.96586162316797
0.6339673006339673,28.27502423249645,72.73908821203608,174.98284622084896,176.06064749015874,157.18404817347664,160.3070053993072,183.0406625779122,173.69327828972538
0.6673340006673341,22.825351585857,62.36623030889555,175.74771484297509,175.3030025470468,158.58530619431968,168.18771329339123,183.8432795963542,173.5417016880249
0.7007007007007008,17.910599411345316,52.29239421612053,176.4367601784673,174.37995607695962,159.4866310663973,175.36765003516706,184.6102209064732,173.49448260519443
0.7340674007340674,13.514627225353578,42.59571418814909,177.05348303939462,173.3265620085808,159.95066668546605,181.8562177376919,185.3335034961952,173.53497182836196
0.7674341007674341,9.621294544273724,33.354324479419375,177.60138423782604,172.17787427059386,160.04005694728258,187.6628185140232,186.00514435344604,173.64652014465543
0.8008008008008008,6.21446088449829,24.646359344370147,178.083964585832,170.96894679168383,159.81744574760447,192.79685447721937,186.6171604661531,173.8124783412044
0.8341675008341676,3.559597988170173,17.119521037182622,179.48597397635106,171.078890771608,158.8879857683696,198.0493975931265,189.5105559365558,175.5459817705331
0.8675342008675342,1.3281931668257698,10.804739018961593,182.1235086996336,171.93019492444307,154.92475079641875,200.4935563753291,189.88046943642547,175.72945115460118
0.9009009009009008,1.4321146308699326,5.939238734774079,183.5185058463709,171.6352015898977,149.3284013274207,201.94994182130785,190.3595506102744,176.59904929451136
0.9342676009342676,-4.090414917211825,-5.565679131586216,179.88883662461015,163.7099447695165,149.8530432326491,209.655546226356,191.8144156823257,177.0644212273341
0.9676343009676344,-6.269929137687853,-14.441737078197844,179.25580333736923,163.1430048807399,157.86053255414845,210.55822075723563,188.6341023654641,169.87033254725753
1.001001001001001,-7.795395776501748,-15.11407049761526,178.70533559492097,163.43446876313945,165.8261508215902,212.1411515663535,186.18976948451007,170.0901700701349
1.0343677010343677,-7.895301904720149,-12.749611083261373,178.40024828311482,163.4733114597898,165.44971773744857,212.3374774721315,184.93015881815884,172.50572728702795
1.0677344010677343,-7.080691355763549,-8.566413929157363,178.14562974695866,164.2268251409062,163.9667734643482,211.06961705459736,183.22998642288,172.3503672731744
1.1011011011011012,-4.629415771157774,-3.165244187454446,177.81559885484884,165.41999875630916,162.57249756883897,206.29151074391453,183.48196671467093,173.17434695477607
1.1344678011344678,-0.0874738718978927,4.865898389834148,177.83603864943845,166.83678558025375,159.23073986956376,199.97216965464207,184.94728085299948,172.61409920365506
1.1678345011678346,0.2627206766468575,4.626532217690888,178.10866318964332,167.25178785668666,159.58615438432236,199.5623313792333,184.84588836646847,173.1809207160203
1.2012012012012012,0.5211994817439881,4.304433829557201,178.48795095015157,167.86374747886006,159.95393238560197,199.49621863778503,184.94200432966943,173.4827186320742
1.234567901234568,0.7724441428668676,4.304433829557201,178.7738007378581,168.63585488629042,160.17685559283166,199.57694133787564,184.92248743122428,173.6091029022237
1.267934601267935,0.7724441428668676,4.304433829557201,179.19490369641,169.5101250787528,160.38315152226144,199.707815627116,184.865545009948,173.63672478680562
1.3013013013013013,0.7724441428668676,4.304433829557201,179.67773591428642,170.3528640537988,160.63682504863422,199.8606342677973,184.816094447365,173.64266850466203
1.334668001334668,0.7724441428668676,4.304433829557201,180.26943177441223,171.1644396402766,160.87267216141493,200.01555632023656,184.70989086701152,173.699970616522
1.3680347013680347,0.7724441428668676,4.304433829557201,180.96621415836324,171.92998082419942,161.08873303547657,200.28090147123405,184.5544286137961,173.7137430744436
1.4014014014014016,0.986148949112182,4.304433829557201,181.8034768514826,172.72666173311734,161.24501434250206,200.58751188001204,184.4214297820632,173.71270622652048
1.4347681014347682,0.986148949112182,4.304433829557201,182.5301801394211,173.4368339282805,161.34705901503855,200.842974057017,184.37648415528025,173.75693806688668
1.4681348014681348,0.986148949112182,4.304433829557201,183.36301648659284,174.16200391214898,161.4171800184336,201.05600878579983,184.3427248348254,173.86044613155704
1.5015015015015016,0.986148949112182,3.8175282525649936,184.2774347649007,174.82825446248026,161.36050749877782,201.22756184596332,184.3606899001724,174.02369187941815
1.5348682015348682,0.986148949112182,3.372655263082439,185.2561200797705,175.50422786681003,161.298260626452,201.3780516448369,184.36962214916136,174.18913263583107
1.5682349015682349,1.1166054423576166,2.997066602479952,186.51217901793737,176.03471396442973,161.19581632851165,201.51427069415232,184.3726136866077,174.35984710491402
1.6016016016016017,1.1166054423576166,2.708141424987704,187.9464181165465,176.56627781341678,161.11678958345422,201.6010436486055,184.3921801242255,174.5665258568735
1.6349683016349683,1.1166054423576166,2.416469877694944,189.3085527503276,177.4351227200934,161.10614731336634,201.59754018665384,184.340464352318,174.84731013731744
1.6683350016683351,1.1166054423576166,2.232024014456859,189.9238131595223,179.7903520029274,159.4103054363123,203.52310350125023,185.1811484266196,174.0640287850756
1.7017017017017018,1.2465819505269706,2.135432606114452,190.8940606615101,179.78473121712705,159.46886830548513,203.46735688911943,185.1473598005656,174.52983176605431
1.7350684017350684,1.2465819505269706,2.135432606114452,192.04979904205783,179.63536267574474,159.94000121240657,202.93350901682223,185.1154863591433,175.01486477927466
1.7684351017684352,1.2465819505269706,2.135432606114452,193.2508300680016,179.44072071164967,160.33943520697323,202.2522821337157,185.10857956040792,175.5280280728396
1.8018018018018016,1.3399428073616906,2.135432606114452,194.4451397455825,179.34893466202465,160.6542206515596,201.53443413100632,185.1105835164689,176.00485791060777
1.8351685018351689,1.3399428073616906,2.135432606114452,195.1464218800199,179.1026989466686,160.8887488937577,200.8456217937744,185.10989095169847,176.46280898141424
1.8685352018685355,1.3399428073616906,2.135432606114452,195.66156418334324,178.98854153956697,161.09492091803173,200.1725272029716,185.07073831217988,176.89913061402262
1.901901901901902,1.3399428073616906,2.135432606114452,195.7939016893945,178.9653001420699,161.26906310513164,199.532384760282,185.02944586253932,177.29838977384665
1.9352686019352687,1.4958411401912812,2.135432606114452,195.93696069100704,179.21709110820828,161.465205415998,198.92563742259,184.99700166343032,177.5414833296768
1.968635301968636,1.4958411401912812,2.135432606114452,196.15564258740065,179.49754262556567,161.6419820759916,198.37228268574484,184.9210601169977,177.6658995251958
2.002002002002002,1.4958411401912812,2.135432606114452,196.21519285390173,180.04437383629053,161.85852398461074,197.884694410188,184.7829988717836,177.7037106091766
2.035368702035369,1.4958411401912812,2.135432606114452,195.9920183340484,181.44718562280195,161.9539941474468,197.52665737295908,184.6144682872788,177.65130674329902
2.0687354020687354,1.4958411401912812,2.135432606114452,195.59057109004388,184.33411698031355,162.086133609772,197.1715437959117,184.4569300412401,177.64827901084482
2.1021021021021022,1.6724984189418826,2.135432606114452,194.86116523424624,184.4773979944105,162.24391712860654,196.8212346163881,184.2826503407746,177.7246522132412
2.135468802135469,1.6724984189418826,2.135432606114452,194.25780148153729,185.02675312006392,162.46414441746586,196.5137281854965,184.0475879765858,178.01210410396155
2.1688355021688355,1.6724984189418826,2.135432606114452,193.58770004503103,185.94483191323712,162.7700528197883,196.2209753423477,183.82464745066497,178.32651811383514
2.2022022022022023,1.6724984189418826,2.135432606114452,193.18595967591017,187.35989889609425,163.15506567191017,195.95201998158964,183.61234044618053,178.52882989361427
2.235568902235569,1.6724984189418826,2.135432606114452,192.55158645616868,194.38134153204885,163.57986602246046,195.76469496398096,183.50422722800084,178.6313157828659
2.2689356022689355,1.6724984189418826,2.135432606114452,191.97552339064777,199.928366416402,164.0215151614822,195.6693616010464,183.4393199629362,178.56627821320484
2.3023023023023024,1.6724984189418826,2.152761541573234,191.29385004520392,205.7848350382148,164.40147537620882,195.64656662114817,183.433710725795,178.40140524454378
2.335669002335669,1.9387840782062848,2.2400991609810985,190.668405671631,209.3624401506715,164.8137617235165,195.63257352392307,183.44333604081243,178.19126185781445
2.369035702369036,1.9387840782062848,2.2400991609810985,192.02141513480944,211.21127770523407,165.23035515960254,195.6223942137667,183.38339027180533,177.96740190206506
2.4024024024024024,1.9387840782062848,2.2400991609810985,193.15764735930887,208.6220819885897,165.64126723295985,195.6325687585067,183.2941754295625,177.7207829755792
2.4357691024357693,1.9387840782062848,2.2400991609810985,193.7999209634408,203.8590736921512,166.122975310458,195.6690380207174,183.21947272456103,177.42704592131562
2.469135802469136,1.9387840782062848,2.430515819783277,193.96414786016496,198.61253293516955,166.6469543671309,195.7708419185388,183.1232710280773,177.04567851215214
2.5025025025025025,1.9387840782062848,2.430515819783277,193.9010366166296,192.99120454922465,167.1909148652026,195.90652849020188,183.0155987453912,176.58426691615497
2.5358692025358693,1.9387840782062848,2.430515819783277,193.46225867957648,186.9990750654705,167.6963282147725,195.9699504096769,182.9149861889541,176.1012605565692
2.569235902569236,1.9387840782062848,2.430515819783277,192.75701848509163,180.6846780228861,168.16105040511357,195.9749597517365,182.82826297673185,175.61150260335253
2.6026026026026026,1.9387840782062848,2.430515819783277,191.9766919119427,174.3127815638247,168.59903809372852,195.98404872890123,182.75103409384576,175.1161819120585
2.6359693026359694,2.2905795795061303,2.430515819783277,191.08074156263007,168.49900709080353,168.9846204647857,196.00879196254024,182.6853178528982,174.63489158366258
2.669336002669336,2.2905795795061303,2.430515819783277,190.07818916557773,162.25845553418978,169.39126859104283,196.0702479412533,182.58740002653127,174.16588897170627
2.702702702702702,2.2905795795061303,2.697415074624109,189.0782034729084,155.71093841246991,169.70795612150508,196.18953186562504,182.58363537832764,173.73022565623705
2.736069402736069,2.2905795795061303,2.697415074624109,187.56754787996567,149.32156026720006,170.04617308907845,196.33757561695964,182.5891734930542,173.31187627571515
2.7694361027694363,2.2905795795061303,2.697415074624109,185.5269192655583,143.1906958602708,170.42115159687447,196.62608718596024,182.5895788871333,172.85387467688864
2.802802802802803,2.2905795795061303,2.697415074624109,183.05461659343484,136.87342254539897,170.71656811443657,197.0516742758952,182.69655626220708,172.3517664583928
2.836169502836169,2.2905795795061303,2.697415074624109,180.98192871338355,128.97486095192625,173.2079372623134,194.952887058482,181.7616848963408,173.2018930476891
2.8695362028695364,2.2905795795061303,2.697415074624109,178.2825367123695,123.16058423777672,174.46033978668663,194.0706410778107,181.4710943930621,173.13521438511262
2.902902902902903,2.2905795795061303,2.697415074624109,175.24067334044815,117.928388422392,175.25913008216634,193.49743064401065,181.18056361546545,173.04285711358148
2.9362696029362696,2.2905795795061303,2.697415074624109,171.72761982972682,113.12530070413956,175.92468168313906,193.05051848474804,180.87076342335783,172.89791896362485
2.9696363029696364,2.2905795795061303,2.697415074624109,167.90101974380883,108.59707376930614,176.45206503390614,192.65515124686365,180.52503359320764,172.78007554047952
3.003003003003004,2.2905795795061303,2.697415074624109,164.15571204125092,104.8436959834061,176.83870118744338,192.2911967330553,180.1548114942973,172.66497187957083
3.0363697030363697,2.714783132850156,3.053647337076286,160.55187222084064,102.25217410447809,177.04533094799527,191.9721625577032,179.81980811375792,172.5999731963989
3.0697364030697365,2.714783132850156,3.053647337076286,157.10955249055277,100.41882299450872,177.09592516166455,191.68631119853487,179.4608720809785,172.58667541620164
3.103103103103104,2.714783132850156,3.053647337076286,153.64041675793263,98.7755638074418,176.9172058547139,191.3832026121986,178.9782337673052,172.73442824353245
3.1364698031364697,2.714783132850156,3.053647337076286,149.90106342718036,97.93665029884232,176.65172270903005,191.107159526816,178.5480361184475,172.88180970026818
3.169836503169837,2.714783132850156,3.053647337076286,146.5087197066861,98.91921087425612,176.26592661369764,190.90312715972732,178.10745947783232,173.00859191946847
3.2032032032032034,2.714783132850156,3.053647337076286,143.31307623296613,100.24388351737517,175.9723597773378,190.67262502051605,177.71406737181,173.11584664535437
3.2365699032365702,2.714783132850156,3.053647337076286,140.32036012171685,99.8045253279069,175.61140666054794,190.4898324309138,177.3263647512046,173.2474717353806
3.2699366032699366,2.714783132850156,3.053647337076286,137.65239541267664,102.9955447395056,175.27050504186118,190.3310777297073,177.02638166746243,173.31912923396524
3.3033033033033035,2.887194517121753,3.053647337076286,134.80466698838754,108.49296055364648,175.03118316859016,190.12029249495023,176.91308955441406,173.29791852226182
3.3366700033366703,2.887194517121753,3.053647337076286,132.20527686301645,115.1905601317899,174.76250068028313,189.951968182982,176.92309157267923,173.2309610995708
3.3700367033700367,2.887194517121753,3.401697460575528,129.9178947246616,122.02228942279892,174.4348775288464,189.8687550905504,177.0956856230247,173.15267677736392
3.4034034034034035,2.887194517121753,3.401697460575528,128.26986701204066,122.67047071693742,174.10146128266655,189.81866263944377,177.25387896586963,173.0529517366102
3.4367701034367704,2.887194517121753,3.401697460575528,127.0767544582616,122.43496687724388,173.6871065535884,189.7887155409188,177.39564390996907,172.93649683953134
3.4701368034701368,3.0318076873831217,3.401697460575528,126.57807581045148,119.27256827072053,173.3739200802903,189.79218925766705,177.4173484875769,172.82223013379496
3.503503503503504,3.0318076873831217,3.401697460575528,126.9098803818136,116.10742021420486,173.09143458868525,189.8104086846808,177.29298937914848,172.73470314257918
3.5368702035368704,3.0318076873831217,3.401697460575528,125.44814461951792,111.31757019651002,172.89925820958422,189.89983429430364,177.14714643963856,172.60293506272026
3.5702369035702373,3.0318076873831217,3.401697460575528,123.90179309241722,108.96576585186126,172.85159680807186,190.02259210321915,176.94768560268295,172.43156207922252
3.603603603603604,3.0318076873831217,3.401697460575528,122.33356090111911,108.03037700720414,172.82979576831346,190.23907206328,176.7043225847565,172.22086267313696
3.6369703036369705,3.2351161268795487,3.401697460575528,121.0964463426025,107.80463444251173,172.82955022552426,190.409393327515,176.55621586641618,172.01287838835214
3.670337003670337,3.2351161268795487,3.401697460575528,119.89843375325653,106.74622050171158,172.54711524594256,190.5929914762932,176.76050192198375,172.30048554791804
3.703703703703704,3.2351161268795487,3.401697460575528,119.6221251853077,106.42463933698484,171.70257080137225,192.0568544747977,176.9071634703496,170.89534517950878
3.737070403737071,3.2351161268795487,3.401697460575528,118.72237857998157,105.52494432530546,171.72576584889995,192.6812820906964,176.5402891856821,169.86235276026756
3.770437103770437,3.2351161268795487,3.401697460575528,118.23747658602416,105.14513707504688,171.24747862890257,193.86266790361816,176.33676436664163,168.84921179983283
3.803803803803804,3.2351161268795487,3.401697460575528,116.99495993877972,103.96832318315144,171.1071140418035,194.89208518835565,176.36354425034062,167.96344439512598
3.8371705038371706,3.2351161268795487,3.972387969417424,115.44360839938436,103.42964659369714,171.4812223825839,195.3134318404516,176.85719415023382,167.89634137145558
3.8705372038705375,3.2351161268795487,3.972387969417424,113.13828419305489,104.0760051685081,173.01984586370352,194.0906364493408,176.20183043365452,169.40005557792983
3.903903903903904,3.2351161268795487,3.972387969417424,110.38786002863512,104.83986231198112,175.2314423552166,193.2779210163085,174.44512829575166,170.2521236207895
3.937270603937271,3.2351161268795487,3.972387969417424,107.78085662897249,105.44252247090928,177.30804846128422,192.71343381354333,172.90902867655336,170.9444335502346
3.9706373039706375,3.2351161268795487,3.972387969417424,104.89457128735584,105.79101133568624,179.09678870733106,192.4427330981703,172.0102794260086,171.33861590068244
4.004004004004004,3.2351161268795487,3.972387969417424,102.20944038615828,99.87554140184275,180.956731343856,192.3497229010587,170.70792802927855,171.70333381312705
4.037370704037371,3.2351161268795487,3.972387969417424,99.44763314244646,100.0502438516379,182.63084942613727,192.4288191552402,169.584158988246,172.02715684493322
4.070737404070738,3.2351161268795487,3.972387969417424,97.24752041606688,99.89000172690324,184.0018775727596,192.61681009342283,168.7295863146361,172.37532710892145
4.104104104104104,3.2351161268795487,3.972387969417424,95.05527396991154,93.20111054407768,185.1486367269312,192.7845301404477,168.01440702487284,172.8178183148675
4.137470804137471,3.2351161268795487,3.972387969417424,90.78866415258146,88.6031724884218,186.060304023533,193.02553499151395,167.52617686748346,173.28622007034156
4.170837504170838,4.074934540017982,3.972387969417424,88.24779222331634,86.75070721460864,186.72254269032547,193.27059771421813,167.323072984981,173.71838262604493
