Time,Left Shoulder Angle,Right Shoulder Angle,Left Elbow Angle,Right Elbow Angle,Left Hip Angle,Right Hip Angle,Left Knee Angle,Right Knee Angle
0.0,98.41118257851276,58.38407603837773,163.08312207658813,156.74453367580523,140.48358822040484,139.67321642899742,202.75729315870177,209.3127118108126
0.0333667000333667,62.79839762750132,50.49858734123029,166.25450714309332,164.1064631618175,140.30202243098955,139.57985399191662,201.1687382109194,210.1239561728552
0.0667334000667334,34.222332807297846,43.89868176052396,169.047364745522,169.53675361580866,140.01781634039622,139.6521342473392,199.9856063386029,210.63143081240145
0.1001001001001001,12.205990531915589,38.50210384758927,171.4803671588617,173.17437080655114,139.64180577102627,139.87550500995127,199.17967461183835,210.86182215526256
0.1334668001334668,-3.727626784632178,34.226598153756754,173.57218665809992,175.15828050281723,139.18482654528108,140.23541409443882,198.72272010071168,210.8418166272497
0.1668335001668335,-14.055516728332163,30.989909230356947,175.3414955182242,175.6274484733793,138.65771448556202,140.71730931548797,198.5865198753089,210.5981006541741
0.2002002002002002,-19.25467688517115,28.70978162872036,176.80696601422207,174.7208404870097,138.07130541427048,141.3066384877847,198.7428510057161,210.15736066184675
0.2335669002335669,-19.80210484113583,27.30395990017753,177.987270421081,172.5774223124808,137.43643515380788,141.98884942601515,199.1634905620193,209.546283076079
0.2669336002669336,-16.17479818221294,26.690188596058988,178.9010810137886,169.3361597185649,136.76393952657554,142.7493899448653,199.8202156143045,208.79155432268195
0.3003003003003003,-8.849754494389217,26.786212267695262,179.5670700673323,165.13601847403436,136.0646543549749,143.57370785902123,200.6848032326576,207.91986082746675
0.333667000333667,1.6960286363486574,27.50977546641689,180.00390985669966,160.11596434766156,135.34941546140732,144.44725098316903,201.72903048716472,206.9578890162446
0.3670337003670337,14.985553624013916,28.77862274355438,180.2302726568782,154.41496310821884,134.62905866827418,145.35546713199471,202.92467444791183,205.93232531482667
0.4004004004004004,30.541822882619712,30.51049865043826,180.26483074285545,148.17198052447856,133.9144197979769,146.28380412018433,204.24351218498504,204.8698561490241
0.4337671004337671,47.8878388261795,32.6231477383991,180.12625638961893,141.52598236521305,133.21633467291684,147.21770976242397,205.65732076847024,203.7971679446481
0.4671338004671338,66.54660386870647,35.03431455876738,179.83322187215617,134.6159343991946,132.54563911549542,148.1426318733997,207.1378772684535,202.74094712750983
0.5005005005005005,86.0411204242139,37.66174366287365,179.40439946545465,127.58080239519566,131.91316894811396,149.0440182677975,208.65695875502084,201.7278801234204
0.5338672005338673,105.89439090671506,40.42317960204845,178.85846144450193,120.55955212198852,131.3297599931739,149.90731676030347,210.18634229825824,200.7846533581911
0.5672339005672339,125.62941773022432,43.23636692762269,178.2140800842869,113.69114934834651,130.80624807307774,150.71797516560486,211.69780496825348,199.93795325763452
0.6006006006006006,138.10040426166063,44.50259514663485,179.01281447480935,109.2458459701044,130.182183986193,150.95919005063104,213.30542762379352,200.3015952288354
0.6339673006339673,148.38968005604622,46.11380865540896,179.41054462671786,104.550245677005,129.64602385107852,151.37394618603787,214.86286828391863,200.7447239554044
0.6673340006673341,149.3728396997158,45.25052302594385,179.54102260531556,105.02749607694555,129.2768048814696,151.5054900014939,216.1079051136389,201.34855572619009
0.7007007007007008,156.4930013190618,44.25606803176336,183.2158429373889,104.80360505844116,129.23809580095323,151.6008272471644,217.058255862574,201.92349682692648
0.7340674007340674,155.70665847770275,44.4134062790948,181.38884560741764,101.56052079657698,129.4329494565853,151.6437924270036,217.66028702251407,202.5996254661329
0.7674341007674341,156.0844486000939,37.92847677828707,177.68158431650716,97.34851676773118,129.8812242571786,151.56265452110938,217.98235369299763,203.30278056770084
0.8008008008008008,156.76240125408367,33.530116101309545,173.9049704740163,95.1798885055961,130.45513143863178,151.36962448233737,218.16907938440485,203.9909558594337
0.8341675008341676,156.52163967763084,31.477746600032813,171.68062343600522,94.0909866240468,131.303168503945,151.0399179270234,217.97598604159225,204.568505822883
0.8675342008675342,156.25366000461034,31.69101784931276,170.4649123857074,94.3080548113398,131.91635645205673,150.49493742369896,217.65675430965152,205.12769191883675
0.9009009009009008,156.47494881031514,33.2342457491504,169.61104702404097,93.8171455813524,132.6515619356154,150.398258196807,216.8822564746796,205.7219424085131
0.9342676009342676,157.16961496420305,44.33291807086712,168.34036825112065,95.8474210897721,133.56455945891747,150.41018230637457,215.64280208461807,206.1056569282422
0.9676343009676344,157.99146482427534,46.76299525314347,166.4487664541208,97.4934500811219,134.7304313060104,150.5104941339768,214.09823085242328,206.3102735441559
1.001001001001001,158.79387467858416,51.083248333473655,163.91752045411496,99.55371939962072,136.15966274252716,150.77515603446614,212.24101442597905,206.1475962090121
1.0343677010343677,148.9415095503338,53.795529850108615,162.1067957803674,103.0408145143742,137.60367591122173,150.89747041996765,210.0161428013957,206.2059321831044
1.0677344010677343,139.53920453555557,57.39382664858725,159.94878769022552,106.5899510326141,139.1671633250693,151.12654889089623,207.62625219650184,206.0570766342218
1.1011011011011012,131.05391660919838,62.00838509095444,157.38761054781082,110.0883321270836,140.84657458039925,151.47658604932568,205.099381485022,205.6746591818141
1.1344678011344678,123.95260274621188,67.76945153925492,154.36737871724634,113.42316097052677,142.6383592735421,151.96177649733085,202.46356954068256,205.03230944533263
1.1678345011678346,118.70221992154526,74.80727235553346,150.83220656265507,116.48164073568762,144.5389670008284,152.59631483698664,199.74685523721004,204.1036570442288
1.2012012012012012,115.7697251101476,83.25209390183487,146.7262084481601,119.15097459531026,146.5448473585887,153.3943956703679,196.9772774483308,202.862331597954
1.234567901234568,115.62207528696884,93.2341625402038,141.9934987378844,121.31836572213896,148.6524499431535,154.3702135995496,194.18287504777103,201.28196272595963
1.267934601267935,118.72622742695732,104.88372463268516,136.57819179595106,122.8710172889177,150.85822435085336,155.5379632266066,191.39168690925752,199.33618004769696
1.3013013013013013,125.54913850506313,118.33102654132364,130.42440198648313,123.69613246839047,153.15862017801877,156.91183915361378,188.6317519065164,196.9986131826176
1.334668001334668,136.55776549623522,133.70631462816402,123.4762436736036,123.68091443330152,155.55008702098033,158.50603598264604,185.93110891327416,194.2428917501726
1.3680347013680347,152.2190653754229,151.13983525525094,115.67783122143553,122.71256635639492,158.02907447606853,160.33474831577826,183.31779680325724,191.0426453698136
1.4014014014014016,172.99999511757542,170.7618347846294,106.97327899410196,120.67829141041476,160.5920321396139,162.41217075508536,180.819854450192,187.3715036609918
1.4347681014347682,199.36751169764167,192.702559578344,97.30670135572583,117.46529276810506,163.235409607947,164.7524979026422,178.46532072780482,183.2030962431587
1.4681348014681348,231.788572090572,217.09225599843944,86.62221267043036,112.96077360220994,165.95565647739832,167.3699243605237,176.28223450982213,178.51105273576567
1.5015015015015016,270.7301332713148,244.06117040696063,74.86392730233845,107.05193708547364,168.74922234429846,170.27864473080473,174.29863466997037,173.2690027582641
1.5348682015348682,316.65915221481976,273.7395491659524,61.97595961557317,99.6259863906402,171.61255680497788,173.49285361556016,172.54256008197592,167.45057593010526
1.5682349015682349,370.0425858960359,306.2576386374592,47.90242397425757,90.57012469045348,174.54210945576716,177.02674561686496,171.04204961956515,161.02940187074063
