Time,Left Shoulder Angle,Right Shoulder Angle,Left Elbow Angle,Right Elbow Angle,Left Hip Angle,Right Hip Angle,Left Knee Angle,Right Knee Angle
0.0,2.2247593106249632,1.717555953326619,182.31340036327177,167.42696835501815,164.54453423997296,208.42338936013047,186.27023091671072,173.6262055655502
0.0333667000333667,2.301275852764132,1.2677190257417923,181.4658920131916,167.79322142235443,164.9633775308711,208.71072599523225,185.8025069803201,173.4468940769659
0.0667334000667334,2.347356541886259,0.914722846655716,180.7147358940849,168.12520602247977,165.32027254603486,208.99297910376487,185.41721546992,173.24680116423374
0.1001001001001001,2.3654339604922563,0.6531109427525466,180.05564406281414,168.42619090737767,165.61869033377965,209.2694795081165,185.1093059486976,173.02843757899484
0.1334668001334668,2.357940691083032,0.4774268407164412,179.4843285762416,168.69944482903173,165.8621019424209,209.53955803067504,184.87372797984025,172.7943140728902
0.1668335001668335,2.3273093161594955,0.3822140672315579,178.99650149122968,168.94823653942544,166.053978420274,209.8025454938285,184.70543112653496,172.54694139756083
0.2002002002002002,2.275972418222556,0.3620161489820526,178.58787486464067,169.17583479054238,166.19779081565437,210.0577727199648,184.59936495196905,172.2888303046478
0.2335669002335669,2.206362579773123,0.3620161489820526,178.25416075333695,169.38550833436605,166.2970101768774,210.304570531472,184.5504790193296,172.02249154579212
0.2669336002669336,2.1209123833121053,0.3620161489820526,177.99107121418083,169.58052592288004,166.35510755225846,210.5422697507381,184.5537228918037,171.75043587263482
0.3003003003003003,2.022054411340413,0.3620161489820526,177.7943183040347,169.7641563080679,166.37555399011302,210.7702012001511,184.6040461325788,171.47517403681692
0.333667000333667,1.9122212463589547,0.3620161489820526,177.65961407976087,169.93966824191313,166.36182053875646,210.98769570209896,184.6963983048419,171.1992167899795
0.3670337003670337,1.7938454708686402,0.3620161489820526,177.58267059822168,170.1103304763993,166.31737824650418,211.19408407896967,184.8257289717802,170.92507488376353
0.4004004004004004,1.6693596673703783,0.4113766126520837,177.55919991627948,170.27941176350996,166.24569816167156,211.38869715315127,184.9869876965809,170.65525906981009
0.4337671004337671,1.5411964183650784,0.4113766126520837,177.58491409079664,170.45018085522864,166.15025133257404,211.5708657470317,185.1751240424312,170.39228009976017
0.4671338004671338,1.41178830635365,0.4113766126520837,177.6555251786355,170.62590650353889,166.03450880752703,211.739920682999,185.3850875725183,170.13864872525482
0.5005005005005005,1.2835679138370022,0.5248389849258079,177.76674523665838,170.80985746042424,165.9019416348459,211.8951927834412,185.6118278500293,169.89687569793512
0.5338672005338673,1.1589678233160443,0.5248389849258079,177.91428632172762,171.00530247786827,165.7560208628461,212.0360128707461,185.85029443815148,169.669471769442
0.5672339005672339,1.0404206172916983,0.5248389849258079,178.09386049070704,171.21551030785577,165.60021753984438,212.16171176730367,186.0954369000736,169.45894769141796
0.6006006006006006,0.9576880630645904,0.5248389849258079,178.2625979190829,171.3738541495049,165.41722051317487,212.23785966838383,186.32743988141533,169.2849755113552
0.6339673006339673,0.8453536589075629,0.6969467924873818,178.56120983683553,171.63057253705,165.20945523014603,212.2608802802007,186.5630890312856,169.17469456824287
0.6673340006673341,0.7126581320198332,0.6969467924873818,178.9132481677052,171.96613878732492,165.00634902380824,212.26379746109524,186.78793103760952,169.10621116812874
0.7007007007007008,0.5353580943102468,0.6969467924873818,179.36785842853106,172.30996434193727,164.83224484608,212.27209014436292,186.98887755959964,169.06696282645558
0.7340674007340674,0.3987444828956011,0.6969467924873818,179.79016017846078,172.70889111054257,164.69452000456812,212.29082160462028,187.15508217265807,169.04141564195274
0.7674341007674341,0.3648756413462122,0.6969467924873818,180.03298850266876,173.13502545909296,164.58566988329665,212.2784774641725,187.2839085553595,169.08805212652936
0.8008008008008008,0.4198451360107186,0.6969467924873818,180.14056182481448,173.6250485766203,164.50531951933775,212.24538629090333,187.3745313889988,169.17005247147443
0.8341675008341676,0.5405337838825572,0.9222435620209636,180.02125624693886,174.0066309979472,164.4470270828713,212.1847149556256,187.42321419628564,169.3000590459803
0.8675342008675342,0.7069312020754536,0.9222435620209636,179.87982589515005,174.47980025025882,164.4231057964672,212.11771259681632,187.4279854353222,169.4422992541882
0.9009009009009008,0.7069312020754536,0.9222435620209636,179.7512852107865,175.10827933553492,164.42435345504165,212.0750292033493,187.3980996094036,169.5629819127214
0.9342676009342676,0.7069312020754536,0.9222435620209636,179.74456781257453,175.88511673168088,164.45760000846067,212.06904219948976,187.33722095379423,169.65517977439822
0.9676343009676344,0.8097260313368612,0.9222435620209636,179.54557914389486,176.5938903838957,164.56815408071796,212.1671596234815,187.22411826280592,169.65839790096007
1.001001001001001,0.8097260313368612,0.9222435620209636,179.4099369084499,177.36194603846883,164.73607702902498,212.3188947957545,187.0831757936371,169.60655680045474
1.0343677010343677,0.8097260313368612,0.9222435620209636,178.34788704177473,178.14538552558673,164.94400366738583,212.5222355423093,186.9251693080112,169.50482145244723
1.0677344010677343,0.920962345213491,1.1952728202107104,176.40828077882423,179.03028425935312,165.13875154807977,212.7376378645975,186.7727773214665,169.3745325270838
1.1011011011011012,0.920962345213491,1.1952728202107104,176.94784123401024,179.9558319299624,165.3806918843059,213.0138070978251,186.59142938480548,169.18612342933727
1.1344678011344678,0.920962345213491,1.1952728202107104,177.8886392217805,180.88964181822084,165.66993108098265,213.31515060055,186.3856273665073,168.9817510530421
1.1678345011678346,0.920962345213491,1.1952728202107104,179.78891724281235,181.9141355088753,165.9560311860524,213.58516230642587,186.16821458290235,168.82232339229122
1.2012012012012012,0.920962345213491,1.1952728202107104,181.8426888178801,182.9924534360176,166.2571720879679,213.82202051588604,185.94745797842785,168.71466352297932
1.234567901234568,1.1043565437960086,1.1952728202107104,183.41738717437136,183.8196012343797,166.57137124901814,214.00350097749808,185.72174877529727,168.66762575809597
1.267934601267935,1.1043565437960086,1.1952728202107104,184.9704593272488,184.667970804878,166.88802765102233,214.1285819513897,185.5075037848464,168.66860322715448
1.3013013013013013,1.1043565437960086,1.1952728202107104,186.9235870265422,185.6291836774812,167.18905474374907,214.20137697524493,185.3090186266957,168.71682143321476
1.334668001334668,1.1043565437960086,1.1952728202107104,188.8534593888748,186.6712331130745,167.48569290450845,214.22737824811097,185.12046763725505,168.79820536479787
1.3680347013680347,1.1043565437960086,1.5105780937407778,190.50276929966404,187.4324670511485,167.77549579171546,214.2320918167106,184.9480568238206,168.88470918599327
1.4014014014014016,1.1043565437960086,1.5105780937407778,192.07519570999287,188.18894704838783,168.06255939674097,214.209068503616,184.78527784020784,168.977260201854
1.4347681014347682,1.3439683241865903,1.5105780937407778,193.5719718717079,188.6189506670356,168.35031442182645,214.1843200345414,184.6322189302815,169.08920479178724
1.4681348014681348,1.3439683241865903,1.5105780937407778,194.94819067917425,189.2117851361038,168.63714541100433,214.1111901349986,184.48949277186367,169.22974653332284
1.5015015015015016,1.3439683241865903,1.5105780937407778,196.20049767640447,189.7477261799823,168.9022680439851,214.01790296161212,184.36602076320744,169.4034239560705
1.5348682015348682,1.3439683241865903,1.5105780937407778,197.30039517140247,190.44786499579783,169.16468230579062,213.88361394115847,184.2576320769284,169.59205939547618
1.5682349015682349,1.3439683241865903,1.5105780937407778,198.3116107393018,191.2260658025334,169.39882671047144,213.70491781249976,184.1698964604936,169.80138440772453
1.6016016016016017,1.3439683241865903,1.5105780937407778,199.1489280292756,192.082058838279,169.6149209475944,213.47349324137045,184.1181135162872,170.01974673090854
1.6349683016349683,1.3439683241865903,1.5105780937407778,199.57407756288524,192.70633919274928,169.81851096078324,213.15340352787595,184.0935782090551,170.26875611063733
1.6683350016683351,1.3439683241865903,1.5105780937407778,199.85204087342208,193.4633563824107,170.03629925973618,212.7727693267631,184.07890958335688,170.54208681824724
1.7017017017017018,1.639401514895556,1.862702909295325,199.78011373682725,194.24258390806403,170.28027333965406,212.3476925892656,184.05143231590844,170.8050988636472
1.7350684017350684,1.639401514895556,1.862702909295325,199.60456935788693,195.32098662301365,170.56137983263451,211.9005047263242,184.00017444486232,171.0716413514809
1.7684351017684352,1.639401514895556,1.862702909295325,199.11871148936604,196.73772750627504,170.85365016390472,211.42548754481984,183.9275504136208,171.35231928446052
1.8018018018018016,1.639401514895556,1.862702909295325,198.4931067565075,198.41003029527465,171.18900701985757,210.96439057230685,183.82060575905697,171.6081621664567
1.8351685018351689,1.639401514895556,1.862702909295325,197.65136080956103,203.50941604066435,171.47242479259083,210.56796662975887,183.72311212844784,171.8363485424951
1.8685352018685355,1.639401514895556,1.862702909295325,196.59375459406803,207.23505880883525,171.79137100138652,210.16247194610824,183.6171420049141,172.04628222318587
1.901901901901902,1.639401514895556,1.862702909295325,196.55901066934936,209.8579221382468,172.04310236695565,209.60809398411723,183.5801842993399,172.3123988348454
1.9352686019352687,1.639401514895556,1.862702909295325,196.09625582324253,211.40659607558345,172.3095600832844,209.02960380005425,183.54148235816547,172.5180391449269
1.968635301968636,1.639401514895556,1.862702909295325,195.3475672996265,212.416305930213,172.58243297435317,208.49902472481523,183.4685761222192,172.64299837148772
2.002002002002002,1.639401514895556,1.862702909295325,194.28642389474936,212.904392854641,172.91680426415647,208.0839738594829,183.3516338704575,172.62489307546403
2.035368702035369,1.9772897262504352,1.862702909295325,192.99861444000084,213.18004685321628,173.27349519765113,207.7267924250644,183.2237609027714,172.52641726629045
2.0687354020687354,1.9772897262504352,2.246190793558508,191.3146882803242,212.52000935631887,173.68058364166322,207.44914782914384,183.0648738647318,172.33467700978557
2.1021021021021022,1.9772897262504352,2.246190793558508,189.0562756542693,210.96834374548823,174.18470737174172,207.34420473332744,182.8558134584082,171.99198396235676
2.135468802135469,1.9772897262504352,2.246190793558508,186.69998487177887,208.95096889073665,174.73129570560124,207.31772099425592,182.62050790270104,171.58567585578788
2.1688355021688355,1.9772897262504352,2.246190793558508,184.3953401556701,205.9140679647056,175.36315686362062,207.3866193458269,182.33049004520083,171.11888447752187
2.2022022022022023,1.9772897262504352,2.246190793558508,183.182750015073,202.58823823812787,176.04077573710293,207.5093449938664,181.9971861550729,170.62805215804266
2.235568902235569,1.9772897262504352,2.246190793558508,184.26239234590773,199.160241815671,176.73940728114252,207.6684835589229,181.61278285310573,170.1137212392648
2.2689356022689355,1.9772897262504352,2.246190793558508,183.66196359318528,195.4701469956564,177.40623200029265,207.7929181308644,181.1938840090843,169.64263330285678
2.3023023023023024,2.177374541594159,2.246190793558508,183.0512412634204,191.2539251855084,178.0471862916948,207.9067599803477,180.7481366928116,169.17040686889047
2.335669002335669,2.177374541594159,2.246190793558508,180.86055225653925,186.7487197247827,178.6762870857645,208.0399286097993,180.28658001507097,168.69162436505522
2.369035702369036,2.177374541594159,2.246190793558508,178.06640627985487,182.2232247488841,179.2561607535646,208.2034128738304,179.8286911017997,168.2332134647263
2.4024024024024024,2.177374541594159,2.246190793558508,175.43045055992644,177.64713404547996,179.78674854163714,208.411965901811,179.37734975039493,167.78492365797962
2.4357691024357693,2.177374541594159,2.246190793558508,172.82756701163308,173.1442862113143,180.24327308688285,208.6682597829202,178.95783801770963,167.35640093237225
2.469135802469136,2.4612737304166536,2.6555852732144847,169.60338978951629,168.41028855689183,180.655218232118,208.97755568586496,178.5638608944456,166.9427206216332
2.5025025025025025,2.332107079086634,2.6555852732144847,165.96886274419336,164.3213685021311,181.01170874968352,209.36002669514497,178.21249430442597,166.54538276976058
2.5358692025358693,2.332107079086634,2.6555852732144847,162.4434465048864,160.47111042243736,181.33997482362307,209.766741969205,177.87242484298451,166.20388631919386
2.569235902569236,2.332107079086634,2.6555852732144847,158.74309804571644,157.6323381301295,181.58633687439124,210.1900532511073,177.60938749932495,165.9402437994228
2.6026026026026026,2.332107079086634,2.6555852732144847,154.74698449891602,154.72404174059974,181.80099961421217,210.59363310656468,177.35826502483712,165.7368496050499
2.6359693026359694,2.312017540649198,2.6555852732144847,150.5527527437546,155.54306032028816,182.04458019085536,211.05924238264484,177.09349215201348,165.5497046781697
2.669336002669336,2.5710736790307536,2.6555852732144847,146.39386973375488,154.6229848011237,182.26767767527,211.45864848022768,176.82952510009022,165.41658203440568
2.702702702702702,2.5710736790307536,2.6555852732144847,140.89674974380534,150.84352110608538,182.48073186278853,211.8059669359748,176.53799732398707,165.33924026625567
2.736069402736069,2.5710736790307536,2.6555852732144847,136.348082355294,146.06941891748636,182.67196714139547,212.03196744244744,176.24979047665445,165.31453636572857
2.7694361027694363,2.5710736790307536,2.6555852732144847,134.89706554426942,145.28027889125835,182.87124144962485,212.18768077124005,175.94334851978107,165.34920820974784
2.802802802802803,2.5710736790307536,2.6555852732144847,133.46306215131276,144.20545523994275,183.06631892295167,212.3374015865308,175.62817291639234,165.40774451175255
2.836169502836169,2.5710736790307536,2.6555852732144847,131.76055688561596,137.27187967059496,183.19644619081035,212.4281144289196,175.30873300071502,165.52069919291543
2.8695362028695364,2.5710736790307536,2.6555852732144847,130.46613323280997,132.51314613520617,183.25716058820552,212.5398223949876,175.00093041780485,165.70267705682227
2.902902902902903,2.5710736790307536,3.0854298749474105,129.69268477926693,133.37559188620838,183.2443029655432,212.61822942363253,174.7112794071882,165.93482022436083
2.9362696029362696,2.5710736790307536,3.0854298749474105,129.7020975666186,134.0725868833997,183.17272063554145,212.6404628787616,174.44573602751504,166.21748945781388
2.9696363029696364,2.5710736790307536,3.0854298749474105,129.03009078383275,133.4682653217982,183.06757851063955,212.4898148407792,174.21449161874784,166.56424001480528
3.003003003003004,3.0003902120862462,3.0854298749474105,128.78830408632174,128.17911625053634,183.0095709799253,212.1615174270611,173.9799027331805,166.971478970673
3.0363697030363697,3.0003902120862462,3.0854298749474105,130.9410002751294,121.46037850856068,182.88890856390583,211.83079592687645,173.75858895674745,167.41078575013805
3.0697364030697365,3.0003902120862462,3.0854298749474105,131.89163205415443,115.25942863662604,182.812149428056,211.5687077790149,173.4662585196493,167.81451862551464
3.103103103103104,3.0003902120862462,3.0854298749474105,132.32680590735416,109.58933082961454,182.7298207330746,211.27165580388208,173.16262892244723,168.1837982756158
3.1364698031364697,3.0003902120862462,3.0854298749474105,132.22944011386446,105.3255602659152,182.67476726036065,210.94722755006447,172.85754844935929,168.5420411327195
3.169836503169837,3.0003902120862462,3.0854298749474105,131.16220523384294,105.221152711927,182.6073507514101,210.6251083377661,172.55162684882296,168.91322232489432
3.2032032032032034,3.0003902120862462,3.0854298749474105,130.1016972852968,103.67710479279113,182.58022615076007,210.40106423150527,172.21689864375378,169.22228576097055
3.2365699032365702,3.0003902120862462,3.0854298749474105,128.15069000764055,99.78936480587896,182.60594455376423,210.30852984164105,171.8346788323406,169.46774543180678
3.2699366032699366,3.0003902120862462,3.0854298749474105,126.71450007823218,95.49935972822188,182.6359187800336,210.2777268002677,171.4237396828535,169.70025000529088
3.3033033033033035,3.0003902120862462,3.0854298749474105,126.1298506268359,92.71367852462606,182.64282813673452,210.103814604732,171.04220185412743,169.92972917124231
3.3366700033366703,3.215611201381061,3.5302681254414554,125.07963931147296,89.60619547107905,182.63331151180907,209.85665315834683,170.69249025217547,170.13874072211414
3.3700367033700367,3.215611201381061,3.5302681254414554,124.65972271881516,82.60556666187153,182.5214029833731,209.5593058966892,170.4034100937498,170.36407319914318
3.4034034034034035,3.215611201381061,3.5302681254414554,124.12286707769871,75.57160389040834,182.42957780406485,209.2517720084148,170.11097075957716,170.5787020762494
3.4367701034367704,3.215611201381061,3.5302681254414554,124.49872665324976,70.42126744404088,182.3794402312525,209.0198814241205,169.83608962879376,170.73871497032877
3.4701368034701368,3.215611201381061,3.5302681254414554,124.44806121346664,67.06600834675963,182.3656819546288,208.8644271979996,169.56339282882155,170.8822763777858
3.503503503503504,3.215611201381061,3.5302681254414554,124.48393839677732,65.04225042368046,182.3262937881228,208.7602459141081,169.34336833920966,171.00830843606246
3.5368702035368704,3.215611201381061,3.5302681254414554,124.12517867471472,63.94639332869325,182.32498890714965,208.75002741294824,169.17824865210335,171.0499797707975
3.5702369035702373,3.215611201381061,3.5302681254414554,123.86117021979284,63.30268891098237,182.4898799849203,208.8175627219299,168.84127432506736,171.04416613278178
3.603603603603604,3.215611201381061,3.5302681254414554,123.27202677185626,63.99389633042836,182.71557066479136,208.97157896655068,168.54288236907544,170.98230881987925
3.6369703036369705,3.6101799869524513,3.5302681254414554,121.51940901303396,67.33700787741809,183.0767034323417,209.24763366715155,168.17266468684986,170.8574864520181
3.670337003670337,3.6101799869524513,3.5302681254414554,120.12548693915436,71.75035292088742,183.4083042350601,209.5818936898282,167.9598584757315,170.6908213824092
3.703703703703704,3.6101799869524513,3.5302681254414554,118.89983501929996,75.73209282136399,183.6549750553955,210.0204346339071,167.82245809273903,170.54158133247847
3.737070403737071,3.6101799869524513,3.5302681254414554,117.79119857111056,79.25907949275258,183.93411805636697,210.46391229093845,167.7951448448308,170.35886825500134
3.770437103770437,3.6101799869524513,3.95230357061409,116.79196754746616,86.06005994453797,184.25982800171488,210.83167188975509,167.97436989149568,170.1132492643806
3.803803803803804,3.6101799869524513,3.95230357061409,116.29797809993062,88.24936183171125,184.5124368671252,211.12681914601643,168.3334768846738,169.8690126510919
3.8371705038371706,3.6101799869524513,3.95230357061409,115.88012479425392,89.77537678169352,184.86579158213,211.5084330925516,168.7289647018906,169.4640678216203
3.8705372038705375,3.6101799869524513,3.95230357061409,117.91405529401638,93.2633872769878,185.2106791752361,211.95952745087425,169.1953825487483,168.98228348060036
3.903903903903904,3.6101799869524513,3.95230357061409,118.22498841026368,92.54174908527516,185.75923503573145,212.66063825356164,169.47705420621998,168.15690832356958
