Time,Left Shoulder Angle,Right Shoulder Angle,Left Elbow Angle,Right Elbow Angle,Left Hip Angle,Right Hip Angle,Left Knee Angle,Right Knee Angle
0.0,1.941487908340477,3.84748244014551,181.7217953529436,162.83870649758074,160.60822393926313,207.00336361273483,187.88365269974463,178.1180293006703
0.0333667000333667,1.8909082255129688,3.4437686520390662,181.47156060885305,163.58302808443332,161.0037148842519,207.048091583324,187.26500729004,177.39861727273703
0.0667334000667334,1.8460736925375123,3.0753757485319304,181.28415634916223,164.25388715809223,161.32196318638506,207.0855129241888,186.74068566806395,176.75700802510494
0.1001001001001001,1.8068998531958869,2.74089556397267,181.1559057979147,164.8557536860633,161.56796735141137,207.11619771999392,186.30505728758047,176.18942763944256
0.1334668001334668,1.7733022512698708,2.438919932709853,181.08313217915384,165.39309763585234,161.74672588507974,207.14071605540408,185.95249160235392,175.69210219741834
0.1668335001668335,1.7451964305412426,2.168040689092047,181.0621587169232,165.87038897496512,161.863237293139,207.15963801508383,185.6773580661481,175.26125778070076
0.2002002002002002,1.722497934791781,1.9268496674678204,181.08930863526624,166.29209767090742,161.9225000813381,207.173533683698,185.4740261327271,174.89312047095834
0.2335669002335669,1.705122307803265,1.71393870218574,181.16090515822648,166.66269369118507,161.9295127554258,207.1829731459111,185.33686525585503,174.58391634985955
0.2669336002669336,1.6929850933574728,1.5278996275943748,181.2732715098474,166.98664700330383,161.88927382115105,207.18852648638784,185.26024488929605,174.32987149907285
0.3003003003003003,1.6860018352361832,1.3673242780422918,181.4227309141725,167.26842757476953,161.8067817842627,207.19076378979287,185.2385344868141,174.12721200026678
0.333667000333667,1.6840880772211748,1.2308044878780593,181.60560659524523,167.51250537308792,161.68703515050962,207.190255140791,185.2661035021733,173.9721639351098
0.3670337003670337,1.6840880772211748,1.1169320914502443,181.8182217771092,167.72335036576484,161.53503242564065,207.1875706240467,185.3373213891377,173.86095338527036
0.4004004004004004,1.6840880772211748,1.0242989231074149,182.05689968380767,167.90543252030605,161.3557721154047,207.1832803242248,185.44655760147143,173.789806432417
0.4337671004337671,1.6840880772211748,0.9514968171981396,182.31796353938435,168.0632218042174,161.15425272555063,207.1779543259898,185.58818159293847,173.75494915821818
0.4671338004671338,1.6840880772211748,0.8971176080709857,182.59773656788263,168.2011881850046,160.9354727618273,207.17216271400645,185.7565628173029,173.7526076443424
0.5005005005005005,1.6840880772211748,0.8597531300745209,182.89254199334607,168.3238016301735,160.7044307299836,207.1664755729394,185.9460707283289,173.77900797245815
0.5338672005338673,1.6840880772211748,0.8379952175573133,183.19870303981813,168.4355321072299,160.46612513576832,207.1614629874533,186.1510747797804,173.8303762242339
0.5672339005672339,1.6840880772211748,0.8304357048679425,183.5125429313437,168.54084958368088,160.2255544849317,207.15769504221464,186.36594442542287,173.90293848133953
0.6006006006006006,1.6840880772211748,0.8304357048679425,183.78181841647367,168.71823449602553,160.01124990392893,207.18461080507697,186.5691915941468,173.9255395558196
0.6339673006339673,1.6840880772211748,0.8304357048679425,184.1275982712132,169.00548361823644,159.75590508045823,207.13420969828405,186.78853643488424,174.0277725211904
0.6673340006673341,1.6840880772211748,0.8304357048679425,184.49969137790325,169.30396114789167,159.49620317812284,207.0752264916499,187.0039712228975,174.17583243004614
0.7007007007007008,1.6840880772211748,0.8304357048679425,184.8124038602361,169.5772566471626,159.29142787368764,207.02412602712369,187.20679660028432,174.38323788015578
0.7340674007340674,1.6840880772211748,0.8304357048679425,185.07537800120227,169.81221935123685,159.13875639694984,207.01720494973284,187.3680259488148,174.57056980986894
0.7674341007674341,1.6840880772211748,0.8304357048679425,185.31741006932032,169.98453148208543,159.03711696310782,206.97423576195644,187.4701384088028,174.7852744949812
0.8008008008008008,1.6840880772211748,0.8304357048679425,185.5274958023036,170.13156665623953,158.98418897157572,206.95677899906445,187.52520524745407,174.95746859796773
0.8341675008341676,1.6840880772211748,0.8354916613119319,185.650395490258,170.13827436489026,159.0049645786311,206.98770708793543,187.5168381249753,175.05092995456477
0.8675342008675342,1.6840880772211748,0.8654215175023773,185.7457331252737,170.1265057755059,159.11863358054612,207.06920778467736,187.44187545824065,175.04086082021803
0.9009009009009008,1.6840880772211748,0.8800745405379269,185.78276980181508,170.1068094332858,159.35266153146785,207.2289208121989,187.2917754324789,174.94333716223116
0.9342676009342676,1.6840880772211748,0.9122278459130132,185.81604273543465,170.15895595636692,159.65149609222624,207.41466369338883,187.105098653668,174.8280631328358
0.9676343009676344,1.6840880772211748,0.9662490351805216,186.02431836221632,170.41542731362446,160.01194996308817,207.65895999573496,186.80806228522044,174.65644491511554
1.001001001001001,1.6840880772211748,1.017486395063736,186.15035292475804,170.7873796939141,160.40893418039178,207.8764687203224,186.4791809734932,174.49017417102013
1.0343677010343677,1.6840880772211748,1.0528464236758028,186.29103560097613,171.09110705795712,160.86965165326953,208.05939583769847,186.1040553643974,174.35818403152695
1.0677344010677343,1.6840880772211748,1.0855420104894564,186.39210681343692,171.40355401883687,161.3225657540857,208.20441635626185,185.71608944384127,174.25273813878735
1.1011011011011012,1.6840880772211748,1.116548752032288,186.56464865569012,171.8515142518518,161.7466794831833,208.2814899166605,185.31798455950195,174.17882328143756
1.1344678011344678,1.6840880772211748,1.1539387035137656,186.6621055081824,172.34576380961377,162.1379613192996,208.30582816532103,184.9383105749773,174.14695754813238
1.1678345011678346,1.6840880772211748,1.159468876339222,186.4695923968605,172.7278772906025,162.49354889307938,208.2708674701651,184.56790310902545,174.15771635084658
1.2012012012012012,1.6840880772211748,1.0644891833968102,186.1192275554312,173.01751619778005,162.82050534677165,208.20568317316105,184.20371262118047,174.19750877601223
1.234567901234568,1.6840880772211748,0.984357711099077,185.6397301084744,173.15339780864193,163.1604880965656,208.16377887362145,183.8290194527704,174.2537492252902
1.267934601267935,1.6840880772211748,0.9445522464343972,185.17319220102445,173.25544593401017,163.5148975086756,208.14044558539297,183.4460296364992,174.31235118388128
1.3013013013013013,1.6840880772211748,0.9423577522462248,184.56771087650563,173.3333615603643,163.87508388972367,208.13494307414115,183.0495041960751,174.37753621393838
1.334668001334668,1.6840880772211748,0.9081049649767636,184.041826893358,173.43552889364722,164.0820458218551,208.06849912040488,182.75610737772084,174.4781487307466
1.3680347013680347,1.6840880772211748,0.8971498782720417,183.53489366921792,173.66673863071517,164.2241692643085,208.0128778282657,182.5263174471918,174.55989910422082
1.4014014014014016,1.6840880772211748,0.9828301224511508,183.23230950573503,173.99288190177325,164.33180193944452,207.96804112062952,182.34598298523423,174.63248773400406
1.4347681014347682,1.6840880772211748,1.1455470347441956,180.89517378041504,174.30602038797613,164.374853377644,207.88173188090613,182.2320698858599,174.74956378158964
1.4681348014681348,1.6840880772211748,1.1455470347441956,185.39251802720364,174.54466008187524,164.34019841919925,207.7608232095813,182.2088481905124,174.8972644612804
1.5015015015015016,1.6840880772211748,1.1455470347441956,184.5006824746929,174.68391100468293,164.21231941854083,207.63547336269968,182.266158138252,175.02611695846974
1.5348682015348682,1.6840880772211748,1.3235834890223857,183.9942015692581,174.8465240892054,164.01411893160184,207.51473750785303,182.39781600465025,175.13749692262613
1.5682349015682349,1.6840880772211748,1.3235834890223857,183.5544640198333,175.0285634453556,163.8133377781773,207.444232057936,182.5758724534712,175.2008642688007
1.6016016016016017,1.6840880772211748,1.3235834890223857,183.2189974059633,175.21790255505826,163.61083753332753,207.3830145605796,182.7915737514584,175.24483065191205
1.6349683016349683,1.6840880772211748,1.3235834890223857,183.0672545056856,175.45299787854893,163.38446083707913,207.2934546134759,183.02975718138555,175.29267844476183
1.6683350016683351,1.6871593630942263,1.3235834890223857,183.0199257065372,175.660288968741,163.1077546796543,207.1563030250728,183.32090447342392,175.36007797138615
1.7017017017017018,1.6951312366371163,1.3235834890223857,182.946273927148,175.9561630896045,162.79748865840108,206.9733545419438,183.6620770330464,175.4504000422413
1.7350684017350684,1.707919241631624,1.5336402823819122,183.07491705420776,176.2830731347909,162.50279708445387,206.7266502027772,184.00426684454555,175.59256179763213
1.7684351017684352,1.7254389218595272,1.5336402823819122,183.28024009659,176.09792043268956,162.22595363227805,206.42874301321777,184.36210695054447,175.7717850894702
1.8018018018018016,1.747605821102605,1.5336402823819122,183.67019979709863,175.8179905848184,162.03346819619065,206.1753728942922,184.69451501394872,175.91125001531609
1.8351685018351689,1.774335483142636,1.5336402823819122,183.9971058203364,175.4426960212807,161.88390986009807,205.95264603106136,185.01715294155943,176.01220869443117
1.8685352018685355,1.8055434517614104,1.5336402823819122,184.5410809108687,175.17146561432807,161.75598373456418,205.75173479866555,185.31609219610849,176.0565623263016
1.901901901901902,1.8344073736907864,1.5336402823819122,185.50908115827656,174.81321635086525,161.6360540174894,205.570003587732,185.59790191569212,176.05895674161724
1.9352686019352687,1.8344073736907864,1.5336402823819122,186.6443745918131,174.50692636788847,161.54396324910752,205.46609705145315,185.88047550084937,175.9853782019241
1.968635301968636,1.9064125666238343,1.757381472004107,187.8228681831892,174.4322556785818,161.51057315512327,205.43282973837955,186.13658579651377,175.83115987541882
2.002002002002002,1.9064125666238343,1.757381472004107,189.1984282391548,174.69013149481344,161.53835878940316,205.44630790388047,186.3559063197137,175.63141175099946
2.035368702035369,2.004092074328054,1.757381472004107,190.05949034990525,174.93588377470542,161.59302912526093,205.44251575746264,186.562453581404,175.45160957565864
2.0687354020687354,2.004092074328054,1.757381472004107,190.8813142723812,175.51733084105584,161.6412847761143,205.43117126488264,186.7461453314093,175.27619514321754
2.1021021021021022,2.004092074328054,1.757381472004107,193.02310643973453,176.156016866526,161.62752227493073,205.46151452562083,186.87901300977265,175.0932734059968
2.135468802135469,2.0975991601260024,1.757381472004107,195.11036799275675,177.11411808900388,161.62693154825126,205.44585404313048,187.0182730177768,174.962374541103
2.1688355021688355,2.0975991601260024,1.757381472004107,196.9446401686446,178.21133764487382,161.64007807920288,205.37751228461644,187.1239155042088,174.87072637505935
2.2022022022022023,2.0975991601260024,1.757381472004107,199.012563853868,182.14887826322845,161.6127350757611,205.292777221628,187.2326701261992,174.7754751410597
2.235568902235569,2.1845175709438904,2.0469910072968696,201.06503424506087,186.231067668034,161.59107248074665,205.2633951999453,187.3048273911916,174.64045839801332
2.2689356022689355,2.1845175709438904,2.0469910072968696,202.7375764190285,189.30345759878543,161.6418195374171,205.28633263288563,187.34897199195368,174.49185756057966
2.3023023023023024,2.24923905809839,2.0469910072968696,204.0025590162674,191.5289225409274,161.70476755352976,205.3908971959661,187.35317632496995,174.3198180815247
2.335669002335669,2.24923905809839,2.0469910072968696,205.2165589024293,193.2455497140013,161.8669603024562,205.5400456954855,187.32368925191884,174.14372832949405
2.369035702369036,2.296752012781647,2.0469910072968696,206.0160311212729,195.52893283033927,162.15718473438773,205.6847382828702,187.2378040260551,173.9858062470784
2.4024024024024024,2.344179901614349,2.0469910072968696,206.75657960514323,197.59763553903963,162.50516778741746,205.7857242464475,187.1299657497537,173.8558379840146
2.4357691024357693,2.375047754412189,2.0469910072968696,207.764259998422,198.1625079043894,162.90786881175964,205.8791985763177,187.02674261485265,173.76683714511793
2.469135802469136,2.375047754412189,2.0469910072968696,208.85146443548263,197.6507139739852,163.3596929501391,205.93869426287543,186.93426009859925,173.71546635084528
2.5025025025025025,2.375047754412189,2.31063287429704,209.88353475620443,197.04597921442863,163.8333091050903,205.92197615330628,186.83643869315503,173.69990807309304
2.5358692025358693,2.375047754412189,2.31063287429704,210.8330531649558,194.9120415204717,164.33871333103934,205.8315191751973,186.7374012976763,173.7173804420276
2.569235902569236,2.375047754412189,2.31063287429704,212.4671633921361,195.9458782228652,164.92099240376484,205.68206884221743,186.6524723382604,173.7779862194732
2.6026026026026026,2.375047754412189,2.31063287429704,217.3491210637488,190.2635678485728,165.63839854092927,205.56321929205933,186.5145115103584,173.78047330176992
2.6359693026359694,2.375047754412189,2.31063287429704,213.20368033363263,184.346292919429,166.3132651671728,205.50779522135483,186.35797583277804,173.7192093943366
2.669336002669336,2.375047754412189,2.31063287429704,212.3615154004023,178.30325566351274,166.99443035794533,205.4935481988196,186.18488917904767,173.62781641445687
2.702702702702702,2.375047754412189,2.31063287429704,211.1070751175073,172.09498193430258,167.71066649371988,205.46260680812364,186.0205885637838,173.52190192688911
2.736069402736069,2.375047754412189,2.31063287429704,209.5180590788561,165.7935706878953,168.392784673264,205.3942974071927,185.8565833930812,173.4504004862136
2.7694361027694363,2.375047754412189,2.61458261698647,209.77570475418932,159.13926101645205,169.05527532107723,205.32157880797143,185.68843930744336,173.40401797113856
2.802802802802803,2.375047754412189,2.61458261698647,208.2256050855051,152.59211771521584,169.67753606054188,205.281376154172,185.52387512386505,173.362129667554
2.836169502836169,2.375047754412189,2.61458261698647,200.9011930797488,146.0823750473814,170.27042066772532,205.26270797083168,185.34876423327336,173.331830065913
2.8695362028695364,2.375047754412189,2.61458261698647,194.1331792653108,139.74146698975497,170.79660089791116,205.2901556866977,185.17401934231765,173.2984149293432
2.902902902902903,2.375047754412189,2.61458261698647,192.49149353581808,134.71965291475738,171.21637841864006,205.36285988934108,185.0102309600693,173.26290379379273
2.9362696029362696,2.375047754412189,2.61458261698647,190.5687810447392,131.03852397091424,171.5753727312729,205.5039129291566,184.84400242142624,173.18761049755145
2.9696363029696364,2.3461857052117567,2.61458261698647,188.7990045874476,128.61446260774736,171.79484373515362,205.72937689011127,184.6827846800335,173.0950431153746
3.003003003003004,2.297140066782798,2.61458261698647,186.6410758649513,126.6742635333925,171.89704830757069,205.9892184164597,184.56403431590616,173.00930371081392
3.0363697030363697,2.1465335656169984,2.61458261698647,183.7800598577224,126.48039814458495,171.86883430291485,206.31455182512155,184.4251008945372,172.93372562355057
3.0697364030697365,2.03398021344667,2.61458261698647,180.1154624732907,124.78333339588038,171.81731982289216,206.63466428645225,184.24002585191988,172.8725723658029
3.103103103103104,1.8951222952262423,2.936054300456679,176.5245953553474,119.6503940147104,171.76689369367318,206.9054422609834,184.0296495920641,172.81405939682935
3.1364698031364697,1.778351085031754,2.936054300456679,173.05361677616253,115.40693139648285,171.67671866865587,207.1095348605705,183.81188795250944,172.7578773363084
3.169836503169837,1.6467036544270854,2.936054300456679,169.59319544504012,112.61683681702598,171.4991362440507,207.2743081775077,183.60358603502925,172.7165115828589
3.2032032032032034,1.5475253761268808,2.936054300456679,166.8869803533556,111.27307777716211,171.2845575549846,207.4538460289235,183.346493680356,172.66687476063447
3.2365699032365702,1.504257707232395,2.936054300456679,163.621708697789,110.39549802939956,171.066294228185,207.6472319345683,183.0313387773918,172.61888221488553
3.2699366032699366,1.527880029062625,2.936054300456679,159.74572261590615,110.75815322852408,170.92940626117937,207.81189935938005,182.6827253449732,172.5652578974885
3.3033033033033035,1.5310701420672612,2.936054300456679,156.18073703141266,112.40720653599386,170.80795458704864,207.958863775022,182.295787348404,172.49387009753866
3.3366700033366703,1.5215658255788551,2.936054300456679,153.39799291278078,115.12705653003952,170.71478893856113,208.14122533246623,181.8724605313432,172.40429392172484
3.3700367033700367,1.4542608478799488,2.936054300456679,151.4741859458842,116.71107040257796,170.67983903575305,208.33911119860343,181.40552689543964,172.28889808928537
3.4034034034034035,1.5333776224904427,2.936054300456679,150.4579189472285,118.92857553779612,170.7084856387762,208.5034967564464,180.9203971300779,172.188118262089
3.4367701034367704,1.5564139394734742,3.3143641728624225,148.8544878176867,121.4972269545746,170.7875967861914,208.6465506321648,180.3810750320129,172.0920684320399
3.4701368034701368,1.5648454808472154,3.3143641728624225,147.01951651507835,123.9556877386266,170.98885767092142,208.70801541826097,179.80719468274015,172.0379987309913
3.503503503503504,1.548074554933756,3.3143641728624225,145.22738014675411,123.69703236114184,171.2248007951717,208.7619456909872,179.23697075061662,172.0244199980482
3.5368702035368704,1.614979857635517,3.3143641728624225,143.747464087015,121.33109884859051,171.46080310129406,208.77319526113132,178.68774006132492,172.02930692168738
3.5702369035702373,1.9394507873989024,3.3143641728624225,142.0245755690851,116.6249811734964,171.73000939887797,208.7438333548567,178.13517584485464,172.06978416294115
3.603603603603604,2.4303572380574803,3.3143641728624225,140.23750774973027,112.07927428182502,172.03126073198678,208.6350297977152,177.57940832341484,172.10904249428953
3.6369703036369705,3.109791490936217,3.3143641728624225,138.97556292268996,108.07310391832534,172.35434328395823,208.41020558317365,177.04872410804788,172.20155032449844
3.670337003670337,3.9136119063013775,3.3143641728624225,137.95330224418993,103.42042464811556,172.73812215092275,208.20475349950564,176.56173235643027,172.25831840268737
3.703703703703704,3.9136119063013775,3.3143641728624225,136.89775459187703,100.03463538471942,173.1912381461239,207.91804444024683,176.04712361536517,172.3727602366568
3.737070403737071,3.9136119063013775,3.3143641728624225,135.2388395620962,90.38502033145714,173.6305722432342,207.6840965256684,175.5445893363403,172.419165987694
3.770437103770437,3.9136119063013775,3.3143641728624225,132.16012590214106,85.83761373735179,173.9426500112089,207.4788559566715,175.08900225495367,172.41675950624892
3.803803803803804,3.9136119063013775,3.3143641728624225,129.79901697395024,81.7226518316602,174.28137466664754,207.33887067646745,174.74331215844953,172.33339102692463
3.8371705038371706,3.9136119063013775,3.717263103165454,127.8135864185002,78.80632390157191,174.63901651885786,207.16928254871257,174.4733385180534,172.22514717795542
3.8705372038705375,3.9136119063013775,3.717263103165454,125.72820939224349,77.0368817566803,174.96770791957664,207.0931313706144,174.2925991985055,172.064542866092
3.903903903903904,3.9136119063013775,3.717263103165454,123.53322106091254,76.32089039068217,175.3538335099812,207.14781828963487,174.07179138602746,171.8230611976809
3.937270603937271,3.9136119063013775,3.717263103165454,118.54146889578296,75.04939405250671,175.71285951531942,207.2693593189105,173.91087842837703,171.52042133421142
