Time,Left Shoulder Angle,Right Shoulder Angle,Left Elbow Angle,Right Elbow Angle,Left Hip Angle,Right Hip Angle,Left Knee Angle,Right Knee Angle
0.0,25.5949729663657,30.85980060252814,149.6484297568494,154.84005330912296,131.539715406301,129.97370018351293,204.9264643757736,211.39654973673825
0.0333667000333667,26.39460573943074,31.19761628384163,150.26218089210968,155.2456106699609,131.6649921826633,128.96928047942376,204.2465656845304,212.99583938933827
0.0667334000667334,27.109449279491223,31.505975065108224,150.97245123990766,155.5926782450032,131.76761138618102,128.1435039827969,203.7013106684012,214.34949973453664
0.1001001001001001,27.741967981488425,31.78171998527016,151.77183411207977,155.8836888770721,131.84781410180562,127.48708100344894,203.28361232666785,215.47122833325
0.1334668001334668,28.294626240363627,32.021694083269644,152.6529228204625,156.12107540899004,131.90584141448852,126.9907218511965,202.9863836586128,216.37472274639492
0.1668335001668335,28.769888451058108,32.22274039804893,153.60831067689224,156.3072706835793,131.9419344091812,126.6451368358562,202.80253766351808,217.0736805348881
0.2002002002002002,29.170219008513147,32.381701968550225,154.6305909932055,156.44470754366228,131.95633417083516,126.44103626724464,202.7249873406659,217.5817992596461
0.2335669002335669,29.498082307670025,32.49542183371576,155.71235708123868,156.53581883206124,131.9492817844018,126.36913045517844,202.7466456893384,217.9127764815854
0.2669336002669336,29.75594274347001,32.56074303248777,156.84620225282828,156.5830373915986,131.9210183348326,126.4201297094742,202.8604257088177,218.0803097616228
0.3003003003003003,29.946264710854408,32.57450860380848,158.0247198198107,156.58879606509666,131.87178490707905,126.58474433994851,203.059240398386,218.0980966606748
0.333667000333667,30.07151260476447,32.53356158662012,159.24050309402247,156.55552769537775,131.80182258609256,126.853684656418,203.33600275732547,217.9798347396581
0.3670337003670337,30.13415082014149,32.434745019864906,160.48614538729998,156.48566512526423,131.71137245682462,127.21766096869928,203.68362578491823,217.7392215594892
0.4004004004004004,30.136643751926748,32.274901942485066,161.75424001147974,156.38164119757846,131.6006756042267,127.66738358660896,204.0950224804465,217.3899546810848
0.4337671004337671,30.08145579506152,32.05087539342284,163.03738027839813,156.24588875514274,131.46997311325023,128.19356281996366,204.56310584319243,216.94573166536145
0.4671338004671338,29.97105134448708,31.75950841162045,164.32815949989163,156.08084064077946,131.3195060688467,128.78690897857996,205.0807888724381,216.42025007323576
0.5005005005005005,29.80789479514472,31.39764403602012,165.61917098779676,155.88892969731089,131.14951555596753,129.43813237227448,205.64098456746572,215.8272074656244
0.5338672005338673,29.594450541975704,30.96212530556408,166.9030080539499,155.67258876755943,130.96024265956422,130.13794331086382,206.23660592755755,215.180301403444
0.5672339005672339,29.333182979921563,30.449795259194847,168.17226401018877,155.43425069434878,130.75192846458935,130.87705210416564,206.86056595199724,214.4932294476128
0.6006006006006006,28.851022915493868,29.851758040080068,168.99922730705816,155.20159363949114,130.5345751801581,131.63760905462362,207.58208784212488,213.8132758819556
0.6339673006339673,28.56109161105854,29.304963835397142,170.89171046642673,155.2764800767344,130.34770579608357,132.44641071626435,208.2239993381722,213.09516925508663
0.6673340006673341,28.31679341034528,28.566265885129653,173.05997638906533,155.32703901177945,130.09932480500638,133.1590815630742,208.8215004876977,212.56438074941943
0.7007007007007008,27.837074187190623,27.61026283761201,173.63204332801783,155.36406340418517,129.90747266241692,133.8413054865995,209.35421054163973,212.0982307347502
0.7340674007340674,27.179875468971733,26.411155328010164,174.27707024323817,155.22015365598176,129.6920953617348,134.52427388378572,209.86455421301,211.6449123975951
0.7674341007674341,26.37177290864007,24.982985326838303,181.42652618048592,156.39280326619493,129.35750856375893,135.26283244152344,210.33978778042447,211.11343331226016
0.8008008008008008,25.89673248873112,23.51209829276177,180.86735126239464,156.90058561370364,128.95933037268736,135.9988577647624,210.7951403139248,210.5841523465201
0.8341675008341676,25.97301496114015,21.95486670850505,182.4185095556664,157.28148811456057,128.52918554885318,136.72279401917643,211.2851980315641,210.07794545993485
0.8675342008675342,25.993821168543853,20.333882749011348,182.3173058658981,157.24143533157658,128.0701119719461,137.44713594828937,211.82794840542496,209.60477221716584
0.9009009009009008,25.00408304296145,18.60169810266456,177.53936423965075,156.73596782964478,127.5503546570146,138.11151435536337,212.3725778395552,209.1923705768217
0.9342676009342676,23.671882367235085,16.766817972033536,174.788100110382,155.49465981046245,127.01186658501555,138.7276358225795,212.9632538648009,208.8537981999994
0.9676343009676344,22.807198374825667,14.885758280781577,173.79899488542708,154.33701026662007,126.39638981835404,139.326450528209,213.54310931454023,208.55841521949952
1.001001001001001,22.287164377553104,13.08503383136654,175.7151605968245,152.68931618980798,125.75143530294214,139.87663469788694,214.0872192008709,208.31245121049875
1.0343677010343677,21.8861720692468,11.241612453997345,177.90440031361211,150.58116850287956,125.11313070124814,140.34679696383043,214.6102220149044,208.11546825530897
1.0677344010677343,21.510502174024225,9.52210077646653,178.97465521397342,147.81627758867796,124.52149651115704,140.7930212401057,215.1054511489045,207.8472156868224
1.1011011011011012,22.017909594485094,7.92139209933423,178.29291805058253,144.88930479543404,123.98313018409124,141.2343976757581,215.54000692256733,207.5428686261508
1.1344678011344678,22.09178356262214,6.621120685514272,176.400854540878,141.41658199176376,123.46309841209094,141.66282820718726,215.97797835181925,207.2037258909961
1.1678345011678346,11.629075354514155,5.4796986157831,172.1041235128006,136.962594866382,123.00290345930028,142.05458310548795,216.38846834837247,206.86242136284315
1.2012012012012012,5.187671786333186,4.570507455195429,166.86880957894135,131.61188839400322,122.6016403833209,142.38293364592684,216.8133325304819,206.4932411305585
1.234567901234568,11.43635433235362,4.087566786094166,165.80625377648528,125.88465534040046,122.2624540618526,142.59585430626726,217.2351290801259,206.13758196586625
1.267934601267935,16.546585405237746,4.023944384391259,164.7454721297371,120.03740819696934,121.99091770414176,142.74279321642655,217.6169889038605,205.83457932386096
1.3013013013013013,13.12333986162213,4.023944384391259,157.0151127126772,114.13861027880144,121.7991658416529,142.82191398933787,217.9515419873551,205.5766637874476
1.334668001334668,11.849721800143122,4.023944384391259,150.16500077888668,108.2341380079218,121.63307894291866,142.89920174539307,218.27085260646547,205.36168282670403
1.3680347013680347,12.007079866196136,4.023944384391259,145.27052223042224,102.41977173652862,121.49630196699805,142.87613154990876,218.55074301795904,205.1955610919756
1.4014014014014016,13.03269553088096,4.023944384391259,142.36553106920906,96.49500757416018,121.38592420574592,142.7955129815789,218.79896247836217,205.04829677151565
1.4347681014347682,27.12480904201785,4.023944384391259,141.771359127124,90.59178254791964,121.32358604993324,142.65756145329158,219.0025608797372,204.94387316265733
1.4681348014681348,40.37794204576306,4.023944384391259,141.2722336544862,85.0017244872444,121.29029592577908,142.4993455142962,219.2504142471351,204.8703047991469
1.5015015015015016,43.76489012999822,4.023944384391259,134.81749103976233,79.5294587004785,121.33369517389885,142.32529684733512,219.45365093784784,204.80874634837528
1.5348682015348682,48.66029514746195,4.023944384391259,129.4393406168102,74.1963200422192,121.37383709070323,142.12394531144236,219.71059599454665,204.79348603139988
1.5682349015682349,54.56848830112767,4.023944384391259,125.4889760469974,69.05542127857632,121.4478786543739,141.89071142044497,219.9702577714961,204.8419050551309
1.6016016016016017,61.6067139499441,4.023944384391259,122.87799191617296,64.37988120458859,121.56678412720316,141.65033203702893,220.204613474576,204.9490943862048
1.6349683016349683,70.03186212504146,4.023944384391259,120.7864235795426,60.33855704669549,121.71911989913664,141.3772076087594,220.41657930010345,205.13204834307564
1.6683350016683351,79.43992144944879,4.023944384391259,119.5235900006845,57.0450106920236,121.87564476090502,141.14422052374684,220.6171729729201,205.311237862184
1.7017017017017018,89.51511750518635,4.023944384391259,119.4349440656394,54.44741547757036,122.07239843244017,140.919382250477,220.7907900179484,205.51624536559584
1.7350684017350684,100.22217315033836,4.023944384391259,120.88836209562042,52.629541213369166,122.25975791436466,140.7471241580895,220.92897360832623,205.69520379168
1.7684351017684352,112.16234950263184,4.023944384391259,123.16785223340364,51.68128096416584,122.47359936909152,140.60615473582916,221.03371227612072,205.8761612166724
1.8018018018018016,124.41101936934346,4.023944384391259,125.26816710232713,51.21191674096009,122.66102459355584,140.48539004658275,221.15154180136648,206.0799745781912
1.8351685018351689,136.51699030126744,4.023944384391259,127.95325842449392,51.40950441267172,122.839943188949,140.41189187285212,221.2481255620206,206.27443584025607
1.8685352018685355,148.65580877383488,4.023944384391259,133.07041272527192,52.26865893321169,122.90167275123808,140.3819303363218,221.37913788032924,206.41342741708496
1.901901901901902,160.22508979994055,4.023944384391259,139.88829922558918,53.97692304106466,122.85453819806172,140.3837134825721,221.5305653904733,206.5126554938547
1.9352686019352687,171.5889733124594,4.023944384391259,139.04478634581767,54.55301109613649,122.81469080877018,140.38092872271434,221.7532614080497,206.6248390235048
1.968635301968636,182.7582832677525,4.023944384391259,143.68893066676478,55.611381445214654,122.77602071699566,140.39925811767776,221.97522001872764,206.7371826001351
2.002002002002002,192.7161373692097,4.023944384391259,145.72329601314618,56.581467407588335,122.701794793458,140.42059779500948,222.2245637981376,206.85919230777728
2.035368702035369,200.7273042654229,4.023944384391259,149.34571542826188,57.648057150624965,122.59145339675952,140.4746701713373,222.4598221456453,206.9779299649026
2.0687354020687354,208.45208982637828,4.023944384391259,158.31967093379413,58.66562298819736,122.45700015399632,140.57172924256392,222.68115792159804,207.0681306073057
2.1021021021021022,216.60251739492503,4.023944384391259,165.81900350970216,60.06973366860838,122.27383462312082,140.70703792669045,222.9050995288824,207.12055039022252
2.135468802135469,223.52097060026537,4.023944384391259,172.04424763342575,60.94363447550292,122.1031600864321,140.81510892903367,223.15565480736493,207.1543776623332
2.1688355021688355,228.9679065283183,4.023944384391259,175.20001312279794,62.00761360233051,121.89685957283496,140.9128985112707,223.48722096366572,207.15739099522912
2.2022022022022023,232.8695616466063,4.023944384391259,176.5809776595472,62.840304788834345,121.67900082255012,140.99945287733817,223.82212726812955,207.1627653688702
2.235568902235569,233.53189692693223,4.233681652305483,178.6437977034138,63.8064614178776,121.46792877572886,141.1537649282185,224.24440871798063,207.20454759422785
2.2689356022689355,231.31539206062143,4.7702126830202,180.333585140749,63.94402656514742,121.24935771828568,141.21100705881386,224.69005472163,207.2881882308202
2.3023023023023024,228.3686661381116,5.753242367371493,180.91560519985936,63.49642562219186,120.98691691990228,141.289745023376,225.1234651766336,207.243152711318
2.335669002335669,237.5951242278883,7.024375251907559,182.75948140331923,63.069344636090825,120.71376745400453,141.28435285966745,225.46976533573743,207.21008651648003
2.369035702369036,255.4144432238334,8.431416973923284,187.46259884603452,63.77057419784951,120.5893766576205,141.22507941519444,225.87457814795945,207.08536308036847
2.4024024024024024,258.924299334902,10.047435997420733,186.52386766120617,63.029995554044426,120.5413063226993,141.02075141176246,226.10619578783496,207.0661403377017
2.4357691024357693,259.1060797585292,11.712045133333064,181.6817517305803,62.47519025411083,120.40158889253614,140.65519401365424,226.3203355680288,207.18347586939512
2.469135802469136,265.0001174323249,13.503261739108874,182.5153641269281,61.70037369829996,120.24105762496686,140.2003235858413,226.4104652793577,207.3485283535971
2.5025025025025025,267.51214824930594,15.452410938086157,182.83185015226744,59.44376896107306,119.96657254066456,139.58678585164273,226.49221620975845,207.64427157654657
2.5358692025358693,269.1801961533665,17.657519709156904,182.4852803958446,57.47238004208327,119.65353277560008,138.90470071359388,226.51096347788567,208.0321997662744
2.569235902569236,271.2462370334139,20.13440156346705,181.1348658657172,54.96028785239588,119.4490876570268,138.20158116535478,226.41374595118108,208.4790324535308
2.6026026026026026,258.79390965861694,22.74896057436641,176.45822980300315,53.05563067693043,119.35659776231344,137.49000340708244,226.0525409056333,208.96504140582024
2.6359693026359694,242.33332848632588,25.485830046400256,170.7360798673983,51.973995612091,119.22396933828016,136.68136874319825,225.6234736148468,209.6015340348372
2.669336002669336,233.3107655274005,28.17664938761238,170.26456806150287,51.68882479524589,119.26395840676678,135.9220047263635,224.918762886574,210.2470872123558
2.702702702702702,223.25419628389523,30.969443439014288,170.3036336893876,50.86641576054648,119.38851938541102,135.19418485642302,224.06477996188332,210.9489838085587
2.736069402736069,212.7532131373592,33.540287056079215,170.05684359489177,50.63412124447943,119.65979874881772,134.50846373379193,222.966994399747,211.6308205564785
2.7694361027694363,202.617375115011,35.971256393336105,170.53106853631536,51.75494105811579,120.13261801703068,133.881405943687,221.39044127533995,212.3693126042522
2.802802802802803,191.1190045671287,38.28479198140612,171.12882920864337,53.25582102028186,120.80656304966531,133.32427811104438,219.5707803603726,213.01612096792323
2.836169502836169,179.698845904813,40.48434065671887,172.42327220638265,54.9516382628702,121.52744778473864,132.64997177324852,217.6657416874257,213.8252498977345
2.8695362028695364,167.74249320868415,42.5718354064721,172.78856265328122,57.431013271819246,122.3672786248837,132.08473533983155,215.6159953071118,214.4460154453033
2.902902902902903,155.39089489549178,44.459409257902,172.10534143612202,59.91733807351375,123.19877359069442,131.58385641402987,213.51968771519253,214.84539945479327
2.9362696029362696,142.2689795719336,46.17867960234752,172.1341257068684,63.18738328511594,124.21439614173498,131.26665968606434,211.29785786559964,215.0125143166412
2.9696363029696364,128.23534856519876,47.78042099615505,172.09648343854064,66.54597751127365,125.27271226166248,131.10759278256654,209.03210995121484,214.9601510302734
3.003003003003004,114.20993805724034,49.19882971999642,171.85071202280523,71.82752249312341,126.43373678073844,131.13047189530906,206.70328375880052,214.6678604379984
3.0363697030363697,100.04721307566678,50.64932609712687,171.28797294991423,77.39451281135293,127.74342424274856,131.3089664248407,204.3373484597944,214.1444736019153
3.0697364030697365,86.76135041241504,52.03956354553396,169.9155475992037,82.68148219036871,129.07973884435043,131.6403933862932,202.0314068650353,213.3983654442666
3.103103103103104,74.22477811702561,53.60758631201955,168.4471291484517,89.16826922696477,130.5177585564563,132.27796751803777,199.65782684490296,212.4614838542969
3.1364698031364697,61.91170411033895,55.10399844033089,167.17058962011467,95.19501354203304,132.00695239090825,133.08822903388503,197.3166107287016,211.3465993401702
3.169836503169837,50.80029424086569,56.87814226481255,165.73550875382676,100.52552470116972,133.55129648126194,134.279391687934,195.05339683120192,210.0394667521616
3.2032032032032034,41.29875285269921,58.32831828012496,163.38355179946333,104.7308229423342,135.10331851981866,135.59457371875982,192.95808206491367,208.60845554172096
3.2365699032365702,33.200481773138485,59.45176962681305,159.7979232617541,106.5997461578071,136.60422102164523,136.41142268531303,191.168531849512,207.02836610526603
3.2699366032699366,25.560008469039627,60.29832341109464,156.30923381452502,107.78697629400892,137.99466780200206,137.32031917479554,189.6478886217838,205.36373626744864
3.3033033033033035,18.5439854130656,60.391192605891526,155.16327684375267,109.36990495466884,139.37740453872885,138.5729135428004,188.23058240631315,203.6571316645445
3.3366700033366703,13.004547352392487,60.11597476998494,153.9938613144632,109.46935735028912,140.65956479994517,139.88052626022335,187.0611521509009,201.92334667900369
3.3700367033700367,9.293427106694397,60.727719081707455,152.07998406050496,108.66583138086992,141.82232496117226,141.15790835597693,186.1940545160173,200.11715723121452
3.4034034034034035,9.42904460104144,60.64981661866742,147.9156648544527,101.5644377961102,142.82660054604767,142.28174682869465,185.5402513579237,198.26850241743463
3.4367701034367704,11.644018457395184,59.8037966609912,144.7617294901374,100.41821968308317,143.47516437590158,143.23816904616598,185.39492673640729,196.42951772916143
3.4701368034701368,15.54903322825127,58.37122765859571,141.9921485200043,98.17678926878834,144.01738182837084,143.953661735023,185.5025292286137,194.78079279816168
3.503503503503504,20.754988639182752,56.50796649567988,139.9807550332446,94.508666261278,144.44262601828186,144.5351201825759,185.897370698835,193.169539922752
3.5368702035368704,9.86322202088244,54.42929070747318,135.33852076545915,88.6662467310774,144.58615209613043,144.85311108333937,186.3616547493175,191.90092655030725
3.5702369035702373,2.225471664856272,51.92317515815657,128.98222753500175,83.20393245145533,144.43050609855894,144.87318892847475,187.17018068836447,190.9476515299697
3.603603603603604,2.225471664856272,49.41331523475625,123.45542201581596,76.98200015812354,144.17334129479775,144.73388263328405,188.04369261170328,190.2059261188583
3.6369703036369705,2.225471664856272,46.21389810445167,117.97692996152672,68.78468568753453,143.7691584756028,144.43693830615214,189.02239250306616,189.7159304395925
3.670337003670337,2.225471664856272,42.92301171919652,113.98700388450966,62.20959971629158,143.4341023067907,144.0920257600788,189.8522542024162,189.34366882288063
3.703703703703704,2.225471664856272,40.0627504751297,110.45932025056152,57.06044941228542,143.17752624468352,143.68741478972234,190.1982716920708,189.2179582961801
3.737070403737071,-3.842145312617494,37.21579436316309,106.84149007218386,53.51229898887975,142.9364846087562,143.226914416081,190.42254245458304,189.2360094358138
3.770437103770437,-7.07173627731278,34.10344768197413,103.53443183211148,50.23070382749594,142.64782036381416,142.69451137053795,190.63174741531608,189.4765027515839
3.803803803803804,-6.53396301749369,31.272116956473585,99.8877727527514,45.849992657459424,142.55300953970294,142.19593499982156,190.59197300099623,189.72684289902853
3.8371705038371706,-3.445632912436928,28.326679489071203,97.0437157672792,42.47289461334694,142.4701410821764,141.67649968052348,190.53237410367544,190.14412195591527
3.8705372038705375,2.203250399325622,25.41601097597657,94.50015113678587,40.97968569345837,142.50620444655075,141.15111984425627,190.2834755890429,190.566937773442
3.903903903903904,9.908256972262723,22.24672637602885,92.40803944752942,42.68299788901848,142.5524896591218,140.58662332979748,189.92262009817247,191.13732476890416
3.937270603937271,19.21727412962396,19.29560510603343,89.67188773520044,43.74657882344667,142.59464130971224,140.00487901295264,189.69609951907307,191.58220448009843
