Time,Left Shoulder Angle,Right Shoulder Angle,Left Elbow Angle,Right Elbow Angle,Left Hip Angle,Right Hip Angle,Left Knee Angle,Right Knee Angle
0.0,6.698581109442704,8.258477124601171,179.45354611341295,166.21769606724277,153.50029034206312,189.12445246751304,199.52984313627468,188.7812151753616
0.0333667000333667,5.988258680847641,7.078981856719285,181.4520134283839,168.0083719733262,154.14030956936648,189.08034237931085,199.5180886977783,188.6864528513336
0.0667334000667334,5.347221444240732,6.013966633316871,183.15221640284847,169.6566159400391,154.7403068592819,189.1529196419468,199.48549377449203,188.512150963436
0.1001001001001001,4.775820358309961,5.062717788991128,184.57549737746524,171.1681329549925,155.30305379305543,189.33332199578945,199.4330744416885,188.26405072624144
0.1334668001334668,4.27440638174331,4.224521658339254,185.7431986928924,172.5486280057973,155.83132195193306,189.61268718120743,199.3618467746404,187.94789335432245
0.1668335001668335,3.843330473228764,3.4986645759584505,186.67666268978832,173.80380608006453,156.32788291716082,189.98215293856936,199.27282684862007,187.56942006225145
0.2002002002002002,3.4829435914543057,2.884432876445913,187.39723170881143,174.9393721654052,156.79550826998474,190.4328570082438,199.1670307389004,187.13437206460105
0.2335669002335669,3.1935966951079173,2.381112894398841,187.9262480906201,175.9610312494302,157.23696959165082,190.9559371305993,199.04547452075383,186.64849057594364
0.2669336002669336,2.975640742877584,1.9879909644144336,188.28505417587272,176.87448831975058,157.6550384634051,191.54253104600448,198.90917426945308,186.11751681085184
0.3003003003003003,2.829426693451288,1.7043534210898883,188.49499230522764,177.6854483639773,158.05248646649358,192.183776494828,198.7591460602707,185.54719198389813
0.333667000333667,2.755305505517014,1.5294865990224062,188.57740481934323,178.3996163697213,158.4320851821623,192.8708112174384,198.59640596847927,184.94325730965505
0.3670337003670337,2.753628137762744,1.4626768328091826,188.5536340588779,179.0226973245936,158.79660619165728,193.5947729542042,198.42197006935143,184.31145400269503
0.4004004004004004,2.753628137762744,1.4626768328091826,188.44502236449,179.5603962162052,159.1488210762245,194.3467994454941,198.23685443815972,183.6575232775908
0.4337671004337671,2.753628137762744,1.4626768328091826,188.2729120768379,180.018418032167,159.49150141711004,195.11802843167663,198.0420751501769,182.98720634891453
0.4671338004671338,2.753628137762744,1.4626768328091826,188.05864553658,180.40246776009008,159.82741879555988,195.89959765312048,197.8386482806755,182.30624443123904
0.5005005005005005,2.753628137762744,1.4626768328091826,187.82356508437468,180.71825038758536,160.15934479282004,196.68264485019407,197.62758990492807,181.6203787391367
0.5338672005338673,2.753628137762744,1.4626768328091826,187.58901306088023,180.9714709022638,160.49005099013655,197.4583077632662,197.40991609820725,180.93535048718007
0.5672339005672339,2.753628137762744,1.4626768328091826,187.37633180675667,181.16783429173785,160.82230896875672,198.2177241327069,197.18664293578723,180.25690088994315
0.6006006006006006,2.753628137762744,1.4626768328091826,187.6001781726616,180.79866331936245,161.29794451764894,199.06742921411944,196.76047749793585,179.49198955406928
0.6339673006339673,2.753628137762744,1.4626768328091826,188.13537621610888,180.51457341731896,161.73808828207487,199.836150514126,196.41933930806067,178.72206327593094
0.6673340006673341,2.753628137762744,1.4626768328091826,188.7724713101649,180.43001514641645,162.16536962607282,200.45927243381487,196.097559244219,178.0542507375061
0.7007007007007008,2.753628137762744,1.4626768328091826,193.7028617588901,180.8789006338836,162.50252187293012,200.9626349192367,195.8758464052004,177.47297098351626
0.7340674007340674,2.753628137762744,1.4626768328091826,196.435122279004,181.49125681239,162.89598216601632,201.36621564315345,195.7307985743836,176.9922130360784
0.7674341007674341,2.753628137762744,1.4626768328091826,194.1038417776934,181.75624185901012,163.30057323079092,201.62637669061945,195.57515252064056,176.6608986876295
0.8008008008008008,2.753628137762744,1.4626768328091826,191.4780466291368,186.8254390852334,163.73566519597043,201.5831071979418,195.4352862056686,176.41351343689809
0.8341675008341676,2.753628137762744,1.4626768328091826,188.8219589797024,184.68772286476943,164.16488397080417,201.5256109901218,195.31570818872268,176.27770361415082
0.8675342008675342,2.753628137762744,1.4626768328091826,187.00076986228524,183.23039638236068,164.62317162014364,201.5337922470862,195.1876626388052,176.21942933589133
0.9009009009009008,2.753628137762744,1.4626768328091826,186.38360114556585,182.18325576881392,165.0892718245273,201.53445377042067,195.0559783699278,176.20142127692804
0.9342676009342676,2.753628137762744,1.4626768328091826,186.7741264137611,181.44573863379563,165.47454225700963,201.464090834386,195.00364292501223,176.23810218324573
0.9676343009676344,2.753628137762744,1.4626768328091826,187.84433159660207,181.1147924187241,165.87260781820058,201.30923249123924,194.9335985673156,176.40050191837008
1.001001001001001,2.753628137762744,1.4626768328091826,188.3723147566573,180.8631817376868,166.3284896555927,201.12101864529728,194.79588757117463,176.60531705131532
1.0343677010343677,2.753628137762744,1.4626768328091826,189.10517533183057,180.80424093435025,166.82634473486854,200.8771098560352,194.60412713169163,176.809146956496
1.0677344010677343,2.753628137762744,1.4626768328091826,189.120678922189,181.25526246903365,167.3361914473392,200.6100365311483,194.4436321428002,176.99255668598158
1.1011011011011012,2.753628137762744,1.4626768328091826,188.4325041785109,181.01043252666776,167.89161149353885,200.3931526640693,194.2970973700726,177.1347453573513
1.1344678011344678,2.753628137762744,1.4626768328091826,193.2763864255058,181.2046517394238,168.4593865576761,200.24790110989105,194.17464449480016,177.21999198072902
1.1678345011678346,2.753628137762744,1.4626768328091826,197.13274385232097,181.83985210384444,169.0197944958909,200.0974996310098,194.1106057992233,177.27821622927672
1.2012012012012012,2.753628137762744,1.4626768328091826,200.8938988546097,182.7599207636765,169.4812409344071,199.9395475654064,194.1082807023768,177.3154023290329
1.234567901234568,2.753628137762744,1.4626768328091826,201.10183457881084,184.13989696507213,169.87478528774517,199.7741845532184,194.13429650511367,177.3479306700237
1.267934601267935,2.753628137762744,1.4626768328091826,199.81871100864964,185.5008709817225,170.1766839604271,199.60428687048565,194.1909303260536,177.3733927236535
1.3013013013013013,2.753628137762744,1.4626768328091826,198.5749885261503,186.9975369449857,170.397385506716,199.41578474684871,194.2975799440445,177.38804921669578
1.334668001334668,2.753628137762744,1.4626768328091826,196.93193185404223,188.8624093374795,170.62508039089448,199.31811958156587,194.38071686738465,177.31125090475513
1.3680347013680347,2.753628137762744,1.4626768328091826,195.0151661217659,190.1103363587184,170.7658193531505,199.2975440084576,194.4647808741464,177.13178684947292
1.4014014014014016,2.753628137762744,1.4626768328091826,192.95346017296345,191.9760088992076,170.83708308863555,199.31855379600043,194.5232474643436,176.93904269440404
1.4347681014347682,2.753628137762744,1.4626768328091826,190.8795326488498,193.522602270372,170.97875561197586,199.38054099028,194.52521576142945,176.697469044187
1.4681348014681348,2.753628137762744,1.4626768328091826,189.06672467139737,194.6200673043736,171.08915409781946,199.4967735034716,194.51391211184,176.4661831886777
1.5015015015015016,2.753628137762744,1.5032104570474196,186.7467908754772,195.47266412957987,171.174803489805,199.51321210360112,194.5090792912117,176.23413476551022
1.5348682015348682,2.753628137762744,1.5032104570474196,184.20994212012124,196.2014660720224,171.2508135494266,199.5244937373456,194.5368525503477,175.95473352739145
1.5682349015682349,2.753628137762744,1.5032104570474196,182.215093506444,196.2990919472969,171.32177634462582,199.49921121407831,194.5752713099368,175.67430315265307
1.6016016016016017,2.753628137762744,1.6503738063343114,180.4254155911768,195.0566799782489,171.4199108663833,199.4095276919463,194.60962280211248,175.4117123398432
1.6349683016349683,2.753628137762744,1.6503738063343114,179.29490903653615,193.7462452213455,171.56093896599788,199.34968756021823,194.54279154570227,175.0791113088961
1.6683350016683351,2.753628137762744,1.6503738063343114,178.10590096954616,191.24893539163483,171.68535537721337,199.238832152004,194.3635877775197,174.73178466343185
1.7017017017017018,2.753628137762744,1.6503738063343114,176.66270656083523,188.57961063655097,171.8080759172252,199.1144452309709,194.08766098229705,174.3707235101507
1.7350684017350684,2.753628137762744,1.6503738063343114,175.76653719032416,185.60744650517407,171.92219423382755,198.96847851652376,193.695671412602,174.05593213659512
1.7684351017684352,2.753628137762744,1.6503738063343114,174.57778159626062,183.24691050660823,172.10807235518817,198.7353807244029,193.2437112766407,173.83221941785993
1.8018018018018016,2.753628137762744,1.90345321526706,173.52570668378488,180.9792892310445,171.895121229982,198.9247592412574,193.65728943803128,172.77165883245556
1.8351685018351689,2.753628137762744,1.90345321526706,172.10462404018512,178.61498466234565,172.08845361272964,198.63077570207733,193.5955431569661,172.6477073621405
1.8685352018685355,2.753628137762744,1.90345321526706,165.35323904498023,176.06107901925338,172.2849532137247,198.21016642327248,193.2049858626792,172.77322986499334
1.901901901901902,2.753628137762744,1.90345321526706,158.28645849636214,172.95052058444946,172.4993553105048,197.69812392999307,192.49958265062327,173.08561714319902
1.9352686019352687,2.753628137762744,1.90345321526706,155.28492543400185,170.5619078754005,172.76515964225536,197.3028970146105,191.5653082119587,173.5091614466218
1.968635301968636,2.753628137762744,1.90345321526706,152.9496352742883,161.65446152034454,173.00798776163276,197.1067438465618,190.4540441218956,173.9957300808898
2.002002002002002,2.753628137762744,1.90345321526706,151.88008778901076,158.69481944742407,173.31394200731182,196.83514658534776,189.1676755690102,174.51013299754237
2.035368702035369,2.753628137762744,1.90345321526706,151.07916084212354,155.4218680282133,173.74262015980776,196.4642729506064,187.5939767659613,175.0095326213149
2.0687354020687354,2.753628137762744,1.90345321526706,149.87542941734452,152.60758747060146,174.21139515336162,196.1056331803348,185.9222923166988,175.4494955017167
2.1021021021021022,2.753628137762744,2.261735018442864,147.99510431792547,150.179798258538,174.83599553941897,195.802949448482,184.0839735735782,175.83635921446225
2.135468802135469,2.753628137762744,2.261735018442864,146.3073923356307,147.88077863097723,175.53349933382225,195.51507471121,182.2361595203575,176.068311783336
2.1688355021688355,2.753628137762744,2.261735018442864,145.08167859147082,145.64778296143618,176.28011632763636,195.3980409721954,180.38791646876533,176.1236765450373
2.2022022022022023,2.753628137762744,2.261735018442864,143.57350399362286,144.27846921324027,177.0841782403783,195.4146888199204,178.50713128796744,176.01890017724338
2.235568902235569,2.753628137762744,2.261735018442864,144.95254523300417,143.08886448880406,177.9029583807451,195.57793297357776,176.68448827291633,175.79806355843513
2.2689356022689355,2.753628137762744,2.261735018442864,148.3436401729007,143.4335329286751,178.70296506103574,195.86924101575804,174.95106224422142,175.506673962155
2.3023023023023024,2.753628137762744,2.261735018442864,146.25962734160308,144.27772644098314,179.45102265941622,196.14487145052385,173.29642843967648,175.20010632966486
2.335669002335669,2.753628137762744,2.261735018442864,143.56682528308812,145.38400784450084,180.1695115765607,196.4522994443517,171.7313764925311,174.85551360257728
2.369035702369036,2.753628137762744,2.261735018442864,138.54471401575583,146.78392003596107,180.8565280003478,196.7702547888684,170.2879050275871,174.4821660838121
2.4024024024024024,2.753628137762744,2.261735018442864,135.22090265110302,148.25544897822803,181.4525984413584,197.13156480804528,168.99610956819035,174.0382726273042
2.4357691024357693,2.753628137762744,2.261735018442864,132.15872755566966,150.03931362246666,182.0192441682504,197.50070432902857,167.82313066864677,173.57993076712458
2.469135802469136,2.753628137762744,2.261735018442864,130.8323670106756,152.0473244626563,182.5527109731636,197.8666686938309,166.6996419964306,173.1505859215656
2.5025025025025025,2.753628137762744,2.72450555045892,130.0901910546205,153.81778821567733,183.040556863168,198.2351665907363,165.70858898867078,172.72470111789272
2.5358692025358693,2.753628137762744,2.72450555045892,129.6008176312711,156.13443573670054,183.45607337516023,198.5355493947753,164.87068944680937,172.2990715121039
2.569235902569236,2.753628137762744,2.72450555045892,129.0064238510696,157.6697390678293,183.7872996237488,198.69223138626128,164.28117337620247,171.91185606780323
2.6026026026026026,2.753628137762744,2.72450555045892,128.88411200622895,158.82372252782864,184.0122639157177,198.75756288547257,163.8803863567535,171.5389121527827
2.6359693026359694,2.753628137762744,2.72450555045892,128.80515617833183,159.62944014586435,184.22579979910265,198.8252955148328,163.68055434551422,171.21643024374265
2.669336002669336,2.753628137762744,2.72450555045892,129.54616720308945,159.7174433449262,184.40038314320265,198.82394712709657,163.66155270253932,170.9170265027983
2.702702702702702,2.753628137762744,2.72450555045892,130.61002301398528,159.3630334805881,184.52463321251912,198.7900953806967,163.9289535301581,170.64405541306945
2.736069402736069,2.753628137762744,2.72450555045892,131.27339099892643,159.16826964246118,184.5975274607869,198.75215663603976,164.42703338893622,170.36599403830868
2.7694361027694363,2.753628137762744,2.72450555045892,130.97616256757794,158.5172751231376,184.567485262758,198.6692127981312,165.13600656359174,170.091536748529
2.802802802802803,2.8247455488764617,2.72450555045892,131.34707490472283,159.4716909810786,184.4138624240564,198.5434552517572,166.02676017851104,169.7722827144848
2.836169502836169,2.8247455488764617,2.72450555045892,131.66316838331656,160.2791307599723,184.18557384705244,198.55872706857545,167.14274533365256,169.28288226728458
2.8695362028695364,2.8247455488764617,2.72450555045892,132.13678893531485,160.06930349126307,183.90634910290925,198.62188614240583,168.4796794206421,168.78181222550143
2.902902902902903,2.969008697546152,2.72450555045892,129.3088766595435,155.53744752083253,183.53650257983944,198.9011808573229,170.2207450217886,168.2992474736409
2.9362696029362696,2.969008697546152,2.72450555045892,126.59048037885584,150.86486368177688,183.12510147389943,199.35188495514808,172.144379802776,167.7936145407482
2.9696363029696364,2.969008697546152,2.72450555045892,123.440929637353,145.85752280448094,183.32576026989577,199.3170234124888,173.06795482480328,168.32248524950995
3.003003003003004,2.969008697546152,2.72450555045892,120.39696462121844,141.44699795279752,183.12616884531093,199.53919635656104,174.21188414543536,168.3620149145018
3.0363697030363697,2.969008697546152,3.2910511459124114,118.33798804028164,136.61981728424306,183.2022064967415,199.92505224333084,175.24922354276845,168.36264220578556
3.0697364030697365,2.969008697546152,3.2910511459124114,119.57508330128807,137.23272145742703,183.3655854570953,200.38957713336103,176.2929754225947,168.45578264325337
3.103103103103104,3.186768542459796,3.2910511459124114,120.09262436562668,132.5424250375212,183.57645832688203,200.7760901108144,177.44632589841632,168.5191286647448
3.1364698031364697,3.186768542459796,3.2910511459124114,120.6698949669248,130.26054154814906,183.8423270113553,201.2076780470539,178.59903834381038,168.67238355248688
3.169836503169837,3.186768542459796,3.2910511459124114,118.97329068469536,128.5793063091694,184.0542973994409,201.632955443262,179.79854266669344,168.8473050628527
3.2032032032032034,3.186768542459796,3.2910511459124114,118.02827988205632,126.1806631732415,184.08967535070772,202.10940483443767,181.2684448768908,169.04081228558576
3.2365699032365702,3.186768542459796,3.2910511459124114,117.5532664723968,123.70272285697688,184.0564565688321,202.495475551008,182.8985102909086,169.45125082718468
3.2699366032699366,3.186768542459796,3.2910511459124114,108.09248006627882,120.74528911801772,183.86985434984769,202.73685126361525,184.751754024017,170.07327439856326
3.3033033033033035,3.186768542459796,3.2910511459124114,101.84851149146758,118.3022959660764,183.63563038907336,202.97244540149148,186.6475953602728,170.9011691176049
3.3366700033366703,3.478376042305378,3.2910511459124114,98.23940466420298,112.245001322271,183.28162113972263,203.09204768192143,188.6243123416351,171.88522692236467
3.3700367033700367,3.478376042305378,3.2910511459124114,97.4254044981022,105.80893284888155,182.77820455337687,203.1794638029008,190.67374349959528,173.0891801254988
3.4034034034034035,3.478376042305378,3.2910511459124114,97.16619189862683,100.10264639486222,182.25708982155808,203.25005777422464,192.675359864513,174.4326153635568
3.4367701034367704,3.478376042305378,3.2910511459124114,97.56578980143888,95.437818903891,181.7497568535277,203.3554050338124,194.5715207214414,175.81229574295983
3.4701368034701368,3.478376042305378,3.2910511459124114,98.89780588437958,91.8681648588608,181.3114070932792,203.33299877509828,196.44724805034028,177.4346327800767
3.503503503503504,3.478376042305378,3.2910511459124114,100.88950328301266,89.50493548839094,180.9662153873166,203.32226368502288,198.1720721271329,179.1565482199661
3.5368702035368704,3.478376042305378,3.2910511459124114,104.22105958126158,88.34029564358055,180.507267341355,203.1993509696136,199.9228880316652,181.12739985610955
3.5702369035702373,3.478376042305378,3.2910511459124114,108.65258953771924,88.13696958876577,180.15442185958443,203.37996250637204,201.41690509185915,183.0620060755709
3.603603603603604,3.478376042305378,3.2910511459124114,114.37747865597288,88.9347714467152,179.82540325280303,203.4717809045466,202.5988510529088,185.3300546648153
3.6369703036369705,3.478376042305378,3.2910511459124114,118.66279698258192,90.90790336499524,179.6135917857782,203.8995100902274,203.4464157335925,187.40415364982
3.670337003670337,3.8441821557708815,4.0218016224036495,124.28819205229298,93.46554364805456,179.3583510193411,204.1861728287909,204.0714606724489,189.7570216107132
3.703703703703704,3.8441821557708815,4.0218016224036495,130.96758488580664,96.5337319841364,179.184369900212,204.3657610707188,204.54870684400612,192.16194426574623
3.737070403737071,3.8441821557708815,4.0218016224036495,138.0449447274964,100.1066079071958,179.13392856690413,204.44542285529812,204.7490652737579,194.5090301675945
3.770437103770437,3.8441821557708815,4.0218016224036495,145.66113316259748,104.47467820513,179.39347036622198,204.5773572994921,204.83617584497784,196.9661140910752
3.803803803803804,3.8441821557708815,4.0218016224036495,153.3059421250311,109.77653090078356,179.68600616494257,204.57855517838337,204.73982494390927,199.2285283709094
3.8371705038371706,3.8441821557708815,4.0218016224036495,159.1357541424108,116.29991335209692,179.94462373139672,204.59106405731035,204.51743015758484,201.375706017408
3.8705372038705375,3.8441821557708815,4.0218016224036495,165.8401008826588,122.87866964464028,180.2289574387812,204.45943977110167,204.05837202351057,203.4637973654613
3.903903903903904,3.8441821557708815,4.0218016224036495,171.89439070402076,128.83252044660554,180.63470864266748,204.13384334407007,203.3146632529024,205.5322806356758
3.937270603937271,3.8441821557708815,4.0218016224036495,177.84332984613067,135.5151917790809,181.16726865570223,203.7915078808286,202.3790310148283,207.46616198666672
