Time,Left Shoulder Angle,Right Shoulder Angle,Left Elbow Angle,Right Elbow Angle,Left Hip Angle,Right Hip Angle,Left Knee Angle,Right Knee Angle
0.0,19.95577235643045,37.24122383518951,167.41510563325602,173.7679269132626,135.46205947108672,135.79685738397455,196.4831926586824,199.2486677111364
0.0333667000333667,19.73978526908776,36.19482071024663,166.4439359333363,173.13369021999387,136.40715101143593,136.12443855382256,195.77025865641903,199.20667424245912
0.0667334000667334,19.59089897597562,35.22603127253723,165.73238144455416,172.51487740404397,137.25028532126225,136.4673204061494,195.14909928451848,199.1491980364665
0.1001001001001001,19.50469738490435,34.32934028481148,165.26662143506334,171.91166275437163,137.99434826450903,136.82441496783875,194.6161670186184,199.07741594203964
0.1334668001334668,19.47676440368424,33.499232509819564,165.03283517301747,171.32422055993547,138.64222570511973,137.19463426577417,194.1679143343564,198.99250480805944
0.1668335001668335,19.502683940125586,32.73019271031166,165.0172019265702,170.75272510969415,139.19680350703763,137.57689032683925,193.80079370737027,198.89564148340708
0.2002002002002002,19.578039902038675,32.01670564903795,165.20590096387522,170.1973506926064,139.66096753420615,137.97009517791764,193.51125761329763,198.7880028169635
0.2335669002335669,19.69841619723381,31.353256088748616,165.58511155308616,169.6582715976308,140.03760365056868,138.3731608458929,193.2957585277761,198.67076565760985
0.2669336002669336,19.8593967335213,30.73432879219382,166.1410129623567,169.13566211372608,140.32959772006856,138.78499935764867,193.15074892644355,198.5451068542271
0.3003003003003003,20.056565418711426,30.15440852212376,166.8597844598405,168.6296965298509,140.5398356066492,139.2045227400685,193.07268128493743,198.4122032556964
0.333667000333667,20.28550616061448,29.6079800412886,167.72760531369124,168.14054913496386,140.67120317425395,139.63064302003608,193.0580080788956,198.27323171089867
0.3670337003670337,20.54180286704077,29.08952811243853,168.73065479206252,167.6683942180237,140.72658628682618,140.06227222443496,193.1031817839556,198.12936906871505
0.4004004004004004,20.821039445800583,28.59353749832372,169.8551121631081,167.21340606798907,140.70887080830929,140.49832238014875,193.2046548757551,197.98179217802652
0.4337671004337671,21.118799804704224,28.11449296169436,171.08715669498156,166.77575897381865,140.6209426026466,140.93770551406104,193.35887982993188,197.8316778877143
0.4671338004671338,21.43066785156198,27.64687926530061,172.41296765583658,166.35562722447102,140.46568753378156,141.37933365305545,193.5623091221236,197.68020304665927
0.5005005005005005,21.752227494184154,27.185181171892665,173.81872431382683,165.95318510890493,140.24599146565748,141.82211882401558,193.81139522796792,197.52854450374247
0.5338672005338673,22.07906264038104,26.723883444220704,175.290605937106,165.568606916079,139.9647402622178,142.26497305382506,194.1025906231025,197.3778791078452
0.5672339005672339,22.40675719796311,26.25747084503515,176.8147917938291,165.20206693495336,139.624819787407,142.70680836936853,194.43234778316656,197.2293837078497
0.6006006006006006,22.56861274347508,25.71987314569923,178.406155062826,164.86803538966376,139.21496930230768,143.14210416987416,194.73499449819647,197.0186213886328
0.6339673006339673,22.989189824355137,25.212071434583624,180.1750821991548,164.61069505970897,138.79558695458215,143.55102401529336,195.0393516003789,196.9178629197993
0.6673340006673341,23.4478938714902,24.66040581704316,182.0325883726172,164.38624460461222,138.33416241174393,143.97442041786394,195.3841583160682,196.84699492100785
0.7007007007007008,23.90502379268019,24.156835052298188,183.87099260718483,164.29000019148094,137.77813543421195,144.31617752125524,195.81839921505548,196.90677401503672
0.7340674007340674,24.30156636506024,23.57739427249044,185.5695860286348,164.16774746490165,137.1510590417521,144.6574890530533,196.3154015608201,196.97573578537893
0.7674341007674341,24.71893155903812,22.93697694820625,187.22683707145003,163.9309049061189,136.49592773671122,145.05206469596476,196.81125425523447,196.97678384962447
0.8008008008008008,24.98377060283011,22.195866810483075,188.60856710004285,163.63238339399254,135.81373085181554,145.4738213461101,197.3185559439963,196.91081325818348
0.8341675008341676,25.11745027150214,21.42901989262161,189.53463123833052,163.33977976288983,135.15128071536589,145.85879422636214,197.730264498285,196.82490275161052
0.8675342008675342,25.10536865597187,20.517249821446427,190.2127552894683,163.1039218403065,134.44033980117953,146.24980433881814,198.15643300426245,196.6927402110455
0.9009009009009008,25.016595508691065,19.5083164241451,190.9139432161485,162.82196418911812,133.73600937876157,146.69835475494872,198.6037558818708,196.49304486912172
0.9342676009342676,24.63693590370832,18.37382215311468,191.5797210788652,162.3606424675411,133.02199282322172,147.1552408441269,199.09812784651385,196.2648643589679
0.9676343009676344,23.94231486381444,17.15244796340641,191.8502132082465,161.70663177478048,132.28303420716867,147.59736039122586,199.65246121308545,196.0141834154044
1.001001001001001,23.079054349446743,15.912596201890144,191.8578789317927,161.12626820215897,131.64135997360114,148.07390248117525,200.2091352183022,195.7256222565172
1.0343677010343677,22.01153842911821,14.523354446951185,191.3297486354153,160.66983378069162,131.04936461828885,148.53653792573874,200.801759817398,195.4149944643677
1.0677344010677343,20.788801007037726,13.156052252257792,190.64249355129732,160.35833688453573,130.48035000516538,148.97112997322063,201.43165169217605,195.088479522162
1.1011011011011012,19.04438840315774,11.70605657104782,190.44560387017964,160.20088368898348,129.97815846696284,149.3909623250459,202.04798880556547,194.74008018579968
1.1344678011344678,17.439201262410126,10.356066839619537,190.19236293505617,160.153069782006,129.55232672530653,149.8645205356445,202.62674685672243,194.34819450010968
1.1678345011678346,15.934235216978855,9.19812493813265,189.19785929041967,159.91668587936564,129.19057120022697,150.38294556464865,203.1398027656697,193.91448396339683
1.2012012012012012,14.647868639837522,8.181057549989301,188.18353641655727,159.68961935134445,128.88348376452916,150.93024908342824,203.6303742184068,193.4577416950313
1.234567901234568,13.39550717190512,7.178802063708,186.7333814995996,158.72439184325916,128.59525350181312,151.4888637306071,204.10281196799767,192.97975470855732
1.267934601267935,11.957641335344276,6.324726737729146,184.86442989784547,157.8347074301824,128.28764251418784,152.02328503329727,204.64037093028168,192.4933259010966
1.3013013013013013,10.423377459140356,5.639943784559123,184.57576086989485,156.39174603569074,127.92452817208274,152.5447247772754,205.2317390996119,191.9889022961608
1.334668001334668,9.272773323303664,5.165609754685212,184.06698808805007,155.4356644813508,127.45536899721684,152.94202529817264,205.9276181471392,191.55523093740743
1.3680347013680347,9.839449257437543,5.03479949548361,182.76161184770672,160.63537042367872,126.88468975087322,153.1980580449111,206.66680668048275,191.2018813755707
1.4014014014014016,10.531077341885467,5.03479949548361,181.5211791908989,164.4734855143373,126.2766509947352,153.42622373041567,207.39517790058844,190.87725593827727
1.4347681014347682,10.314364853195904,5.03479949548361,182.1490955749863,167.52868987836794,125.73645853419345,153.61531109458855,208.1060049602465,190.57467296264824
1.4681348014681348,10.075333763731212,5.03479949548361,181.9179854475884,169.57135109524688,125.2171966214866,153.79434723362533,208.8471468560285,190.290132913922
1.5015015015015016,9.932634385977538,5.03479949548361,181.25855001471257,170.39705543123077,124.74585926172028,153.93424260138227,209.597244574614,190.028479667998
1.5348682015348682,10.140154589217875,5.180182767854599,180.24596827574223,170.21231043259306,124.33837003202486,154.04041137705727,210.35753882385788,189.7991824082676
1.5682349015682349,10.58639968558229,5.296389071861166,178.49093240253427,169.21734080978257,123.98381812357914,154.10197954995755,211.1241493956448,189.59661771791409
1.6016016016016017,11.50059898111748,5.523183985869733,176.91770929003118,167.5288373353085,123.6841782824386,154.15555650502824,211.87023191058088,189.4329323420098
1.6349683016349683,2.9365368468689086,5.9335691130092405,174.85923018991474,165.2690566746601,123.4313564902777,154.19227171727806,212.57709891751983,189.3038590709592
1.6683350016683351,-2.2980216614183053,6.564126084655035,172.54997500898102,162.53470180072458,123.24927326195166,154.2121804141717,213.2472068942295,189.2278333460792
1.7017017017017018,-4.379801861793174,7.289941424673052,170.2733223960519,158.8095929366415,123.1408249794054,154.20013532066946,213.88317920191324,189.21490747315485
1.7350684017350684,-3.5762381427131142,8.266304279999057,167.77306127550352,154.28860318094274,123.1060061756138,154.08466211015084,214.52625400961057,189.38363847167005
1.7684351017684352,0.5506419076265878,9.340094040216067,164.83880269907053,148.28559456016626,123.2212969549225,153.9103279859558,215.08549364523776,189.6429605434245
1.8018018018018016,0.5506419076265878,10.446720091112834,162.17500153086272,137.53579294914996,123.36629330983207,153.7341172104865,215.6429205155277,189.89479483869425
1.8351685018351689,0.5506419076265878,11.397660359281216,159.9756527750348,128.663683936435,123.54197311121304,153.52974355675232,216.17476651478543,190.18932200236785
1.8685352018685355,0.5506419076265878,12.704917244169394,157.9499211076293,122.19085775656124,123.76757319777268,153.3950084314773,216.6090227873798,190.3688731196603
1.901901901901902,0.5506419076265878,5.762356027188295,156.25303774536454,114.89282434521289,124.04818988847394,153.2800749699181,216.9394683476228,190.49721981491743
1.9352686019352687,0.5506419076265878,2.11607072727902,154.5636511253915,106.13891315123531,124.3570524378705,153.13611818080528,217.2166874367709,190.64068091897465
1.968635301968636,0.5506419076265878,2.11607072727902,153.1379052965043,101.71175003950316,124.69235383823876,152.91953495374827,217.41209147098152,190.79021172225373
2.002002002002002,0.5506419076265878,2.11607072727902,152.11664750192844,97.67538773760236,125.0057501988011,152.76391037008432,217.6719556411127,190.90530159413697
2.035368702035369,0.5506419076265878,2.11607072727902,151.40856596199498,93.91612225271192,125.34676814966063,152.66729809057122,217.9353435423268,191.0105780773331
2.0687354020687354,0.5506419076265878,2.11607072727902,150.65805944290682,90.2688840155114,125.64965312968478,152.56159887442664,218.21033262357992,191.14420753034912
2.1021021021021022,0.5506419076265878,2.11607072727902,149.62175831027545,86.73518640805844,125.91070179388886,152.45120215354936,218.49816762198725,191.29552035879345
2.135468802135469,0.5506419076265878,2.11607072727902,148.8269149950783,83.39401219395455,126.13717209230164,152.35246498543245,218.77901919738565,191.4381538782844
2.1688355021688355,0.5506419076265878,2.11607072727902,148.34199817775257,80.19372550885905,126.34544888990725,152.2596730449842,219.024876253436,191.5740429264604
2.2022022022022023,0.5506419076265878,2.11607072727902,148.48895338252538,77.25055640883913,126.5337564939662,152.19866475051828,219.2134665898294,191.6939941313008
2.235568902235569,0.5506419076265878,2.11607072727902,149.0391987096273,73.90473651587757,126.63146353111384,152.16439088903388,219.305684921662,191.8103123566612
2.2689356022689355,0.5506419076265878,2.11607072727902,149.18166943986284,70.88784966920825,126.7051150461474,152.15099443753078,219.3630663319174,191.91382937385663
2.3023023023023024,0.5506419076265878,2.11607072727902,149.47967577123856,69.04835786075533,126.7484781708568,152.17317265724608,219.41327267242363,191.9961035116628
2.335669002335669,0.5506419076265878,2.11607072727902,150.64201211906325,68.16790200789207,126.73770786505828,152.20835331465074,219.4890679638671,192.05314214320188
2.369035702369036,0.5506419076265878,2.11607072727902,152.2210380260551,67.6123582376272,126.67744574760373,152.26570122459427,219.5846035448538,192.081866080309
2.4024024024024024,0.5506419076265878,2.11607072727902,154.71533088921447,68.89545437524507,126.57979423472716,152.32680746013898,219.6858831188548,192.0880375639067
2.4357691024357693,0.5506419076265878,2.11607072727902,157.77351350344705,71.59891759978557,126.45902204482476,152.4116486777321,219.77680388515788,192.1047948955364
2.469135802469136,0.5506419076265878,2.11607072727902,159.46716516773824,76.7476412558017,126.3646785504866,152.4872879234797,219.86591615859984,192.102689159471
2.5025025025025025,0.5506419076265878,2.11607072727902,161.0725942045397,83.66503827178504,126.25997778011548,152.6809383838693,219.96307023642416,191.9580584539062
2.5358692025358693,0.5506419076265878,2.11607072727902,163.15992750519354,84.76861456636371,126.26862234606224,152.91926384774405,220.0648100451001,191.74480709651743
2.569235902569236,0.5506419076265878,2.11607072727902,165.6618641615624,86.12464013533878,126.29489700469117,153.20475286781135,220.197273333806,191.4840010009246
2.6026026026026026,0.5506419076265878,2.11607072727902,165.9933666715935,86.54424754489379,126.26307796330128,153.4203023920625,220.3641941244022,191.29632329008257
2.6359693026359694,0.5506419076265878,2.11607072727902,166.46874762889726,86.61371173327531,126.29223109240284,153.5957377413745,220.554158911664,191.07892545968565
2.669336002669336,0.5506419076265878,2.11607072727902,166.52135136731644,86.62965522265807,126.32626732326322,153.72692841304152,220.7850644455884,190.9163013732593
2.702702702702702,0.5506419076265878,2.11607072727902,166.4368940713143,86.0519807049406,126.3340740586794,153.7472880242935,221.03926715340373,190.8338678064877
2.736069402736069,0.5506419076265878,2.11607072727902,166.40947339337671,85.09769470358334,126.287295149057,153.6814134917693,221.3045034613405,190.8384005586773
2.7694361027694363,0.5506419076265878,0.9383123653837656,165.9000822383541,84.85206212438457,126.08376795693654,153.55705604552506,221.6395813077924,190.8965873630798
2.802802802802803,0.5506419076265878,10.41315570496274,165.51981098630844,83.53039165821139,125.77666379666388,153.31571406585812,221.9988211931457,191.0990822795742
2.836169502836169,0.5506419076265878,11.424403623587782,165.37438780578947,80.86789645242844,125.30414809821728,153.0450720821728,222.42183839756188,191.2661099932409
2.8695362028695364,0.5506419076265878,14.65812654480668,164.54041804628872,77.45369590465556,124.81413310275778,152.64833084605786,222.8059737931124,191.5756877157904
2.902902902902903,0.5506419076265878,28.10725212416094,159.93696621877632,71.3052425524487,124.1126223912968,152.13175793299962,223.34427041976812,191.9702984553888
2.9362696029362696,0.5506419076265878,40.917783255290026,157.09919225343475,64.8196933751717,123.2993148944087,151.46558413668916,223.8495855080852,192.5517476244636
2.9696363029696364,0.5506419076265878,52.93947079650656,155.84834008924332,64.75979055950799,122.46029462681666,150.78275230453195,224.28617806992392,193.2409974172682
3.003003003003004,0.5506419076265878,64.19254244655906,154.87015537343729,65.28416966439774,121.63882275587514,150.03318411988428,224.578153755714,194.0737085681513
3.0363697030363697,0.5506419076265878,74.6659143187288,155.48570353815074,64.75846558121218,120.70191514933067,149.21136894726607,224.7897256060375,195.0340751959548
3.0697364030697365,0.5506419076265878,84.21796218751147,156.53398378467034,66.20022230961087,119.94139693573408,148.34766921859747,224.7352315589138,196.13248480939745
3.103103103103104,0.5506419076265878,92.71749628987553,157.59492228918313,70.85358634348572,119.17084068549352,147.47014570146715,224.64144355336128,197.4137929190564
3.1364698031364697,0.5506419076265878,100.37863107925592,158.50858580244906,72.76004221079619,118.5982843422006,146.62763575891174,224.337129554104,198.79541875280577
3.169836503169837,0.5506419076265878,106.59596252244329,158.27288394102342,74.45691476641534,118.29695155801586,145.87855166203786,223.9116791124332,200.27344272772044
3.2032032032032034,0.5506419076265878,112.08104677564286,157.8922848431023,76.11133713608088,118.26046955410956,145.12312607650412,223.25698549033024,201.790769325914
3.2365699032365702,0.5506419076265878,117.19612222029188,161.81141638239006,79.70628067246183,118.18903084273384,144.2029153521158,222.31216372087988,203.3425028852448
3.2699366032699366,6.645641262459106,121.37160069304905,166.11195146958227,85.8555239634264,118.42876809894106,143.34152679247222,221.0745734207168,204.8719239626901
3.3033033033033035,14.627791501601248,124.21675005889006,168.53891462048577,90.58719087126966,119.21928226175794,142.42607632951797,219.2312304812886,206.79396236312087
3.3366700033366703,24.32150597701636,126.2538475584996,164.27550027339126,91.91770289162048,120.1712669447189,141.52717737483505,217.4104372703904,208.57464040403767
3.3700367033700367,35.35815205878207,127.45379752821036,165.97686509076513,95.63700969450538,121.12063805824842,140.5507978891742,215.5749111264056,210.2177149829089
3.4034034034034035,47.56702291959415,127.74898701020184,166.75380541446566,99.46990229714405,122.25887586672764,139.6464489602965,213.65255778070767,211.591731880134
3.4367701034367704,61.06097907879503,127.27343571612695,166.44705527975256,103.20020089398352,123.53468657271414,138.891178200906,211.81950816758288,212.6122107427896
3.4701368034701368,75.52493174937024,125.69238529924438,164.91503928881218,105.35282417836082,124.93859801345393,138.29296309718646,210.0436725738044,213.29343474487524
3.503503503503504,90.6349623825648,123.25107330097622,162.55526770614506,106.3079888502031,126.3994613690687,137.74870240495798,208.40626267768727,213.7747301918945
3.5368702035368704,106.15965903882766,119.80033855381568,159.5457365623473,106.98448444028244,128.12430391170278,137.3458008845389,206.78712834944145,213.9835604888885
3.5702369035702373,122.19186496111512,115.36563600846186,148.50878464335452,106.80363166129004,130.0613134923885,137.1749306790032,205.1818688399891,213.8274557237629
3.603603603603604,138.52689194037387,109.8714382424156,146.17853116361562,106.31449991439692,132.10288438580858,137.23042814548091,203.5823970510048,213.29193768030703
3.6369703036369705,154.78491231174135,102.9796913653536,142.6706483934161,105.89148798503368,134.2218225357399,137.40234794644888,202.037007684135,212.5701812812756
3.670337003670337,170.87922629740115,95.01713709333802,137.9953938075288,105.07476895264332,136.3895927836636,137.601969915806,200.52128835107817,211.74924721707924
3.703703703703704,186.8369047950467,86.86562741242362,132.07669029147013,106.14792230367205,138.52105735400045,138.06756159298385,198.81358533107849,210.4471056497269
3.737070403737071,202.6239671758423,77.49343453827305,125.30209156895336,106.27476631604571,140.65853847908284,138.59449851614397,197.25797550830825,208.93148859862663
3.770437103770437,217.7752500741552,66.58145656859692,116.59091733383252,106.35340325706666,142.98079030053873,139.50651815045745,195.7829386005524,207.1917109763266
3.803803803803804,232.27638516039687,54.96732397419398,108.1110362844054,105.2858056474115,144.94253009935989,140.37681889683466,194.6749218044561,205.4223599313862
3.8371705038371706,245.80370959156693,42.331787729449935,98.1488975421518,94.28254340711504,146.35663875130209,141.09503367338775,194.2117168804845,203.62907620632745
3.8705372038705375,258.4810041642243,40.10254199600145,88.92418334387207,85.11047427799481,147.40751979997523,141.756653353808,193.98180621815777,201.85725724176945
3.903903903903904,269.80028488089954,39.16936353457931,76.62424560564769,80.14217249991738,148.2313443840455,142.48437747785837,193.8745517877431,200.1603938083188
3.937270603937271,279.4323180961245,40.514912850582,65.38131562719684,74.8746543913654,148.84431985476706,143.18997710357604,193.8934108195146,198.55624739152373
