Time,Left Shoulder Angle,Right Shoulder Angle,Left Elbow Angle,Right Elbow Angle,Left Hip Angle,Right Hip Angle,Left Knee Angle,Right Knee Angle
0.0,61.107445216206216,85.7721581573007,156.6351394212776,185.8428425907847,132.64194438733483,126.0734997977128,205.60262064762844,215.5413207378222
0.0333667000333667,36.262855921470674,54.01709199158204,159.7831850917294,180.83279206021425,133.64714659360789,129.38320538517544,203.9355036332225,211.32522794189032
0.0667334000667334,17.50918496621596,28.77720235931493,162.51927221721036,175.45225052265343,134.49991079941893,132.40681477092457,202.7121667960845,207.54811508718515
0.1001001001001001,4.392720673435591,9.598806117210458,164.86311882616138,169.76069764170683,135.212723702939,135.15622198890495,201.8954292856044,204.1895511472281
0.1334668001334668,-3.540248633876942,-3.9717798780202855,166.8344429470235,163.81761308097896,135.79807200233924,137.6433210730615,201.4481102511725,201.2291050955408
0.1668335001668335,-6.743434632728139,-12.388238769666202,168.45296260823758,157.68247650407432,136.26844239579074,139.8800060573389,201.3330288421788,198.6463459056444
0.2002002002002002,-5.67054900012451,-16.104253701016205,169.73839583824463,151.41476757459742,136.6363215814646,141.87817097568202,201.5130042080135,196.42084255106064
0.2335669002335669,-0.775303413072578,-15.573507815359193,170.7104606654856,145.07396595615273,136.91419625753198,143.64970986203562,201.9508554980668,194.5321640053108
0.2669336002669336,-0.775303413072578,-11.249684255984093,171.38887511840147,138.71955131234483,137.11455312216393,145.20651675034458,202.6094018617288,192.95987924191647
0.3003003003003003,-0.775303413072578,-3.586466166179818,171.79335722543317,132.4110033067782,137.24987887353154,146.5604856745536,203.45146244838963,191.68355723439905
0.333667000333667,7.488590451421217,6.9624633107647895,171.94362501502167,126.2078016030574,137.33266020980597,147.7235106686076,204.43985640743944,190.68276695628
0.3670337003670337,18.66742091635028,19.94342103156076,171.85939651560793,120.16942586478685,137.37538382915827,148.70748576645127,205.5374028882684,189.9370773810808
0.4004004004004004,32.30747630470824,34.90272385291918,171.56038975563288,114.35535575557113,137.39053642975958,149.5243050020295,206.70692104026656,189.42605748232288
0.4337671004337671,47.95504493948842,51.38668863155123,171.0663227635375,108.82507093901472,137.39060470978097,150.18586240928704,207.9112300128242,189.1292762335277
0.4671338004671338,65.15641514368446,68.94163222416792,170.39691356776274,103.63805107872211,137.3880753673936,150.70405202216875,209.11314895533133,189.0263026082168
0.5005005005005005,83.45787524028987,87.11387148748034,169.5718801967496,98.8537758382979,137.39543510076854,151.09076787461936,210.27549701717825,189.0967055799116
0.5338672005338673,102.40571355229795,105.44972327819956,168.61094067893896,94.53172488134652,137.42517060807688,151.35790400058374,211.36109334775497,189.32005412213343
0.5672339005672339,121.54621840270248,123.49550445303832,167.53381304277323,90.73137787147331,137.48976858749091,151.51735443400787,212.33275709645352,189.67591720840548
0.6006006006006006,140.42567811449675,131.76557445080263,169.80582898512753,92.33773124619184,137.75476584773483,151.86161103504423,212.71332267424987,190.1829344806684
0.6339673006339673,158.59038101067532,136.1651261259509,169.90918950312343,84.05070915276669,138.1439971701986,152.0609796382488,212.75559092062835,190.68447431080577
0.6673340006673341,161.18679347803,142.7098500699556,163.28162935369275,87.46425598865567,138.790908319903,151.91320526717598,212.47400809197336,191.2067535563723
0.7007007007007008,164.11810688520626,142.73164095280956,157.4921380541893,84.22797558616953,139.46906018101933,151.74160552198276,211.8409471074985,191.75501121992176
0.7340674007340674,169.3372448859303,142.8417327602358,156.67693844616372,83.46480833826305,140.20641265931,151.28549519179987,210.8331729845034,192.32268693129643
0.7674341007674341,170.59813369766016,142.3191790818311,157.2854373970239,85.87128070534274,141.079036597888,150.80414362734066,209.42421566333124,192.74486571259496
0.8008008008008008,170.2095089940055,142.13183497471724,157.85355440038464,89.40241347478435,141.86585998045553,150.34663132632215,207.71273353750212,193.0991016760014
0.8341675008341676,169.44055820258123,142.50622419245923,158.40945943035584,93.78779265977596,142.49796685379073,149.79549902289048,206.1889606153541,193.44880640564315
0.8675342008675342,169.1554195731872,152.5939067585071,160.9371107991461,100.27382849526845,143.1077337222647,149.65158047403025,204.3560979282552,193.76880059508056
0.9009009009009008,168.95582619252144,146.40163808516257,161.41906572135846,106.69683531840708,143.90859988585197,149.25383713414126,202.20352443409843,194.3833162169268
0.9342676009342676,177.84790108862964,139.91976076940034,161.64677796853107,113.178390025091,144.79296927898417,148.9425991336387,199.9579443684229,194.86308667778
0.9676343009676344,168.17272388102958,133.46094770619027,161.54371109239136,119.5516887691424,145.76729481465568,148.74160763363312,197.6479440553045,195.17628628917493
1.001001001001001,158.16519731519531,127.33787179050287,161.03332864466822,125.64992770438506,146.83802940586207,148.67460379523612,195.3021098188212,195.2910893626484
1.0343677010343677,148.22247415718817,121.86320591730826,160.03909417709065,131.30630298464263,148.01162596559885,148.7653287795593,192.94902798305063,195.17567020973684
1.0677344010677343,138.74170717307015,117.34962298157691,158.48447124138764,136.35401076373887,149.2945374068615,149.03752374771426,190.61728487207068,194.7982031419768
1.1011011011011012,130.12004912890376,114.10979587827914,156.2929233892881,140.62624719549726,150.6932166426456,149.51492986081266,188.3354668099591,194.12686247090485
1.1344678011344678,122.75465279075104,112.45639750238506,153.38791417252102,143.95620843374152,152.21411658594658,150.2212882799661,186.13216012079369,193.1298225080575
1.1678345011678346,117.04267092467371,112.70210074886516,149.69290714281533,146.17709063229535,153.86369014976003,151.1803401662862,184.0359511286522,191.77525756497133
1.2012012012012012,113.3812562967344,115.15957851268972,145.13136585190006,147.12208994498226,155.6483902470814,152.41582668088455,182.07542615761247,190.031341953183
1.234567901234568,112.16756167299437,120.1415036888289,139.62675385150408,146.62440252562612,157.57466979090626,153.95148898487278,180.27917153175227,187.8662499842289
1.267934601267935,113.79873981951673,127.96054917225318,133.1025346933564,144.5172245280504,159.6489816942301,155.81106823936253,178.67577357514938,185.2481559696457
1.3013013013013013,118.67194350236323,138.92938785793268,125.482171929186,140.63375210607896,161.87777887004842,158.0183056054654,177.29381861188153,182.14523422096983
1.334668001334668,127.1843254875955,153.36069264083784,116.68912911072184,134.8071814135352,164.26751423135676,160.59694224429302,176.16189296602664,178.52565904973795
1.3680347013680347,139.73303854127636,171.56713641593905,106.64686978969286,126.87070860424296,166.82464069115062,163.57071931695697,175.30858296166238,174.3576047674866
1.4014014014014016,156.71523542946727,193.8613920782064,95.27885751782804,116.65752983202584,169.55561116242552,166.9633779845689,174.7624749228666,169.6092456857523
1.4347681014347682,178.52806891823104,220.55613252261023,82.5085558468563,104.00084125070752,172.46687855817697,170.79865940824035,174.55215517371707,164.24875611607166
