Time,Left Shoulder Angle,Right Shoulder Angle,Left Elbow Angle,Right Elbow Angle,Left Hip Angle,Right Hip Angle,Left Knee Angle,Right Knee Angle
0.0,17.909603071745686,30.987204332994995,149.35381582297572,163.5388459875769,145.09270853391715,145.01446134719995,203.23655292740003,197.7986866233873
0.0333667000333667,16.656541533733233,30.09133324650083,149.6260571904319,162.9972453240423,145.4701680099394,144.24585958732803,202.7632375955048,198.3109655675225
0.0667334000667334,15.873403450936562,29.3940294328698,150.07136889341845,162.61468605876237,145.81539536423287,143.63355567648696,202.3160300125588,198.7343869414297
0.1001001001001001,15.520097271951297,28.87754507079117,150.6810122635103,162.3730564917153,146.1305383216575,143.17044115772316,201.89407883129616,199.0729288050472
0.1334668001334668,15.55653144537306,28.52413233895424,151.4462486322823,162.25424492287928,146.41774460707327,142.84940757408305,201.49653270445103,199.330569218313
0.1668335001668335,15.942614419797476,28.316043416048267,152.35833933130937,162.24013965223247,146.67916194534018,142.66334646861296,201.1225402847574,199.5112862411656
0.2002002002002002,16.638254643820172,28.23553048076254,153.40854569216637,162.31262897975304,146.91693806131823,142.6051493843593,200.77125022494943,199.6190579335431
0.2335669002335669,17.60336056603677,28.26484571178633,154.58812904642824,162.4536012054192,147.13322067986738,142.66770786436845,200.4418111777612,199.65786235538383
0.2669336002669336,18.79784063504289,28.386241287808925,155.8883507256698,162.64494462920908,147.33015752584765,142.84391345168683,200.1333717959268,199.631677566626
0.3003003003003003,20.181603299434176,28.581969387519592,157.300472061466,162.8685475511009,147.50989632411898,143.12665768936083,199.84508073218024,199.5444816272077
0.333667000333667,21.71455700780623,28.83428218960761,158.81575438539173,163.10629827107283,147.67458479954138,143.50883212043678,199.57608663925572,199.40025259706744
0.3670337003670337,23.35661020875469,29.12543187276226,160.42545902902185,163.340085089103,147.82637067697485,143.98332828796114,199.32553816988727,199.2029685361433
0.4004004004004004,25.067671350875173,29.43767061567281,162.12084732393126,163.55179630516966,147.96740168127934,144.54303773498023,199.09258397680912,198.95660750437344
0.4337671004337671,26.80764888276331,29.75325059702856,163.8931806016949,163.72332021925095,148.09982553731484,145.1808520045405,198.8763727127552,198.66514756169624
0.4671338004671338,28.536451253014725,30.054423995518764,165.73372019388754,163.83654513132504,148.2257899699414,145.8896626396883,198.6760530304596,198.33256676804987
0.5005005005005005,30.21398691022504,30.32344298983272,167.6337274320842,163.87335934137008,148.3474427040189,146.66236118347004,198.4907735826564,197.96284318337257
0.5338672005338673,31.80016430298988,30.54255975865968,169.58446364785965,163.81565114936433,148.46693146440742,147.49183917893208,198.31968302207977,197.5599548676026
0.5672339005672339,33.25489187990519,30.694026480689217,171.57719017279015,163.64530885528728,148.58640397596804,148.370988169122,198.16193000146544,197.12787988067987
0.6006006006006006,33.86660103345101,30.6324126668,172.16521348250438,164.39027936993108,148.53461006122612,149.29774437674624,198.13374736793,196.69690184301805
0.6339673006339673,33.90490180229465,30.2026194598477,178.29663225920174,164.42354817341536,148.59219475355286,150.27820189320585,198.03721481449085,196.24505478594645
0.6673340006673341,33.83951143587342,29.518318761814403,184.351962213312,163.98304545350712,148.71710806796173,151.29269250795346,197.8995700531421,195.7676972955845
0.7007007007007008,33.47322169272122,27.05847848525352,189.4190377826101,165.3872903248582,148.8963208888406,152.35086729443395,197.7398863356068,195.2711045635549
0.7340674007340674,32.221700706385434,26.24615084370118,191.88331564982667,165.61033054756373,149.1211037174447,153.44380234655546,197.5653194643076,194.75697724965568
0.7674341007674341,31.14093389857896,25.54963565917493,194.036319215636,163.1958613427297,149.26771453903183,154.49560449012515,197.4110496111795,194.23283880128537
0.8008008008008008,20.169624492429683,22.50350469092545,193.18309843520785,161.07383877811012,149.58820043063082,155.4816884479651,197.2873934196574,193.711807004159
0.8341675008341676,13.003926435206418,12.736052992298356,190.8699171593626,156.06351367570468,149.95878517186685,156.41837702646913,197.1428914370261,193.19189583389368
0.8675342008675342,8.513106772234387,13.335879726863226,188.3132960161835,150.5727710272536,150.36066131406187,157.30801393522026,197.02986770548523,192.6779642429385
0.9009009009009008,6.527369610310023,14.567515524021337,185.52914438034887,144.75998124286437,150.7988077226157,158.15016000173284,196.93380871922088,192.17327965291312
0.9342676009342676,6.7068257819062245,16.42994078160759,182.6565365031628,139.11633170134897,151.27110109022377,158.93273148742276,196.8452012062241,191.68344093189705
0.9676343009676344,9.156137446460155,18.52413179019828,179.7935834443002,132.9730470492709,151.7348387955222,159.65323828306188,196.75055571425256,191.2248759243656
1.001001001001001,13.540790081342804,20.677949682333573,176.78379736127553,126.6343728405456,152.20068007438917,160.29752032448812,196.63809908754024,190.79932516273607
1.0343677010343677,19.76509356432642,22.996724821490684,173.68334337532082,120.13252768088245,152.65641661915066,160.85491475559553,196.51797253591545,190.420479650076
1.0677344010677343,27.63495874468016,18.39334308717581,170.7068331382045,113.5211534784586,153.15107629391346,161.31656252141687,196.3037768782339,190.09587542725524
1.1011011011011012,36.95648260934064,16.505887949040726,167.8125553395618,107.10684331225178,153.7033823215889,161.68881004305814,195.9961742736012,189.80375795454725
1.1344678011344678,47.48200323920353,17.014506423756977,165.40563082396346,101.12475610226166,154.21539317503544,161.958148272367,195.7121665763217,189.56760453864092
1.1678345011678346,59.10917022710613,19.76149466728338,163.1597163903008,95.4970012476114,154.7101326365914,162.11385563745978,195.4060883636625,189.3940941702822
1.2012012012012012,71.75349940250833,24.50410785010116,161.1674550249817,90.07058424825475,155.18649057458242,162.1649231695864,195.08292902912743,189.2867932456429
1.234567901234568,85.29867837204146,31.06127030370639,159.3695220844755,85.04000141024052,155.69623181788003,162.13463512265454,194.68732053317297,189.24388580487823
1.267934601267935,99.49257576630995,39.32614508851439,157.73730053805824,80.41049951970285,156.2064489472382,162.05746220820225,194.2379641973597,189.2549066368164
1.3013013013013013,114.19295695409896,49.04746685626323,156.47510508856217,76.2824849333171,156.73156975364046,161.94171162883455,193.79016163846788,189.29118125528703
1.334668001334668,129.24875732028377,60.08812103074984,155.66965534323435,72.74800055576436,157.25265255079083,161.78820000282545,193.3694974731069,189.3439888823998
1.3680347013680347,144.56229240359357,72.23290448740292,155.15933856496022,69.93099985451988,157.65416542336243,161.61048224493223,193.02624094409703,189.3949130109372
1.4014014014014016,159.8272633765447,85.31426786099554,154.81845947311533,67.9023848949863,157.99837742802688,161.42582046591852,192.7623622268229,189.4633269032033
1.4347681014347682,174.94788411993736,99.13984390229815,154.6159808090242,66.67091172823855,158.34420651848907,161.23523464655952,192.50341456273247,189.55312286649675
1.4681348014681348,189.6527651262936,113.48248812169092,154.6899975230221,66.26025503101793,158.80075767642015,161.08481036188633,192.1219904115696,189.6355938121473
1.5015015015015016,203.8272320564006,128.15134104014942,154.97654596927998,66.47911084863975,159.3168098547755,160.98979932551595,191.57978219922023,189.5998808069196
1.5348682015348682,217.4175408353549,142.82593508830277,155.6865980084705,67.4919621575066,159.85709365699086,160.98087640051511,190.85151393506897,189.4612561076296
1.5682349015682349,230.057120838361,157.26395163070043,156.73665598001205,69.32884670191923,160.46461569779646,161.13068261539436,189.97156739427612,189.04742469214565
1.6016016016016017,240.68023295579297,171.65137736367052,158.22701383188974,71.30276738335726,161.04024902919943,161.4135906749258,189.231988244756,188.39431571025293
1.6349683016349683,257.5765006656439,190.5627375257752,161.64216478071,71.87723362875123,161.0592083548249,161.8689944983944,188.79046813720697,187.6693100848905
1.6683350016683351,272.29957815425007,211.7760414674999,167.63541557607846,75.22938407581006,160.97835859575503,161.88226940694335,188.88061709278628,187.18699631371024
1.7017017017017018,282.04938940834285,229.2051791252252,168.99329243211238,78.12902094149791,160.6791171588217,161.67621245447563,189.298116016521,187.3108482344855
1.7350684017350684,287.2622348205007,242.34645418937865,172.5158952263795,82.06537715225313,160.05016626971926,161.36920422188632,190.416991451481,187.95604049765552
1.7684351017684352,288.0716118107747,251.6346986100756,178.394800418239,84.41557675137113,159.31994498169004,160.50823050486247,191.90396658471207,189.26145927762784
1.8018018018018016,285.3444455390276,257.0879719567434,179.7224625028753,88.40255727215006,158.89922504272562,159.79281155630616,193.19200654523829,191.02440565275344
1.8351685018351689,278.2237635107781,258.31328471394704,179.7691695760886,90.70970761449696,158.09866676486246,158.90478792013906,194.64644994792323,193.13147481428683
1.8685352018685355,267.6902224443261,258.1456634751124,179.94485668924,93.69467603652816,157.23908310198073,157.89275923067746,196.08020252593388,195.13980861776625
1.901901901901902,253.27944459496013,253.01874644694632,179.56841094866132,97.81467168795744,156.422362181707,157.23057444594767,197.3430146872748,196.85440214819155
1.9352686019352687,227.94828845668096,242.7661181317074,178.78436115070082,92.26700827359358,155.5808634552565,156.82054407781084,198.743825059787,198.45889547774672
1.968635301968636,215.6482118649906,231.50162546483904,175.71111462005908,90.44205854160138,154.69738881368406,156.51142005710872,199.95962673127096,199.95632487042985
2.002002002002002,203.4436737960382,227.92667396958723,172.521641965027,92.83683635595888,153.94824839941472,156.20173006742283,200.9671942340299,201.40906349332965
2.035368702035369,191.62970979280652,215.4768286595109,169.8187460501525,96.80199681912114,153.3482646873694,155.99776842682158,201.6118413622914,202.4870971430885
2.0687354020687354,180.6051556454381,202.7205010989188,167.10949696511526,100.85960192168298,152.74043073181218,155.76405413931096,202.06252292789725,203.39575409108645
2.1021021021021022,169.82022703203646,189.3612307611112,164.70223115933737,105.77300281414708,152.14496726800328,155.29574270071316,203.05747940105772,203.71943396750743
2.135468802135469,159.88429013506246,175.40564568545557,162.3042072920824,110.57416396537955,151.57426024793526,154.9178106501493,203.669371484394,203.7189968779801
2.1688355021688355,151.79841382212905,160.6520353796534,159.89738084807578,115.55426713225974,151.08646210044515,154.53363155017348,203.92707408730703,203.4524812036408
2.2022022022022023,144.78420190591947,145.22645070568538,157.93812649982064,120.41195017062272,150.7655511514411,154.11864384502377,203.596809787174,203.14668433969965
2.235568902235569,138.93703373528666,138.57454032523503,156.8366559300995,125.23777865032152,150.67435490384204,153.6334579874357,202.7604995939559,202.77716150010272
2.2689356022689355,134.53797456313603,132.99509518543297,156.09163770716495,129.87842273153495,150.41200874778164,153.58990063590167,201.32718728835087,202.0632001745965
2.3023023023023024,131.48103202114825,128.71322553221316,155.35264812239265,134.40724823716326,150.2244542161569,153.6752907135635,199.71231577668024,201.02340126977217
2.335669002335669,129.7706869163024,123.22030799928906,154.57115383787792,143.3497933456226,150.077147261646,153.7995908511114,198.66678768327404,199.2420820064153
2.369035702369036,129.12562722717422,121.89293248977334,153.94016362646147,147.3089143698897,150.1950241996706,154.04261881720984,197.23990740516035,197.211428568978
2.4024024024024024,129.35067390607102,126.44560412915708,153.33522721670374,151.08377299590103,150.56336429483056,154.50483440089906,194.7175041862409,195.56088406186424
2.4357691024357693,130.66321448933368,129.31748552552347,152.53004330624074,149.65818994339813,151.0624095505015,155.08330888658622,192.04782724140475,193.61759684375684
2.469135802469136,132.5068346955092,136.8308736742961,152.4581284796118,148.68939479041342,151.6368703105345,155.7909767743444,189.3992326606828,191.4232576621456
2.5025025025025025,136.77714234920268,142.8717830391391,150.2648097599222,148.87520571917335,152.37774231206956,156.6269033386614,186.67996187708064,188.9811302087849
2.5358692025358693,143.92109964799732,148.7306605335639,146.30680656318228,149.11676818756365,153.18221041916308,157.49715566689488,184.7679825827608,185.9829968019751
2.569235902569236,151.48655752517772,154.93848064468898,143.04737992682212,150.1004298217972,154.25506359150936,158.41478403418887,182.4964472424709,182.6640912595089
2.6026026026026026,165.1856768017102,160.98712946590007,142.9448572947345,151.29372619827203,155.43701125533858,158.95191965513175,180.07033815355595,179.7869894482362
2.6359693026359694,170.36384491434745,164.95465297831322,141.2718853153243,153.87896585273896,156.39827176004806,159.95771808853968,177.57491543889026,176.91744929884254
2.669336002669336,177.88571942501648,170.2002109972998,138.3859046102035,159.03006164000809,157.42690692393623,160.96484907347326,175.32087205373765,173.96923463869578
2.702702702702702,187.22403442318512,176.9296762319607,135.18209533932142,163.65724646327664,158.1455358595816,161.91764084139544,173.43714894735487,171.1932310091416
2.736069402736069,206.8054390180656,183.7710644241047,132.3514155053753,165.95936827584043,158.59829992223575,162.70509849756507,172.16155346699463,168.88608588352798
2.7694361027694363,227.0051907709749,191.2317219334629,129.15125217259805,165.9156687484097,158.68049982606712,163.17737689892738,171.41396959654148,167.34832048694216
2.802802802802803,237.39576968662143,193.0187642492305,124.61377608694256,168.50796141529742,158.91697132155525,163.09810642161182,171.11169296386913,166.70943745188788
2.836169502836169,242.4594715615165,187.77812068519083,116.8204227072566,167.51352510267765,158.87372452218915,163.06564235057866,170.97025713011706,166.86210787807337
2.8695362028695364,245.0115963021955,180.1451901145292,113.31431406273244,165.72810841722838,158.90881275993516,162.9651392541789,171.08973214693918,167.35797476046986
2.902902902902903,244.83922687432752,166.0696791827376,108.12421309739236,165.5989373118955,158.94442687305943,163.16482711930936,171.23087620321357,167.91688880427375
2.9362696029362696,243.1596302123157,150.8809017157968,102.79889204751828,164.89084690522108,158.9533927798096,163.34729581857545,171.4254139955517,168.6263648800349
2.9696363029696364,239.9791466246565,134.90062506610994,97.37115692022974,163.5292797271734,158.9413123460321,163.5145224816957,171.645808122664,169.45325567625835
3.003003003003004,235.3041164198482,118.45061658608174,91.87381372264744,161.43967830772235,158.91378743757477,163.66848423839002,171.86452118326227,170.36441388145045
3.0363697030363697,229.1408799063892,101.85264362811652,86.33966846189196,158.54748517683788,158.8764199202853,163.81115821837827,172.05401577605835,171.3266921841176
3.0697364030697365,221.49577739277788,85.42847354461904,80.80152714508402,154.77814286448978,158.83481166001147,163.94452155138035,172.18675449976405,172.30694327276626
3.103103103103104,212.37514918751245,69.49987368799364,75.29219577934427,150.057093900648,158.79456452260106,164.07055136711617,172.23519995309124,173.27201983590277
3.1364698031364697,201.78533559909133,54.38861141064487,69.8444803717934,144.30978081528238,158.76128037390183,164.19122479530557,172.1718147347517,174.1887745620336
3.169836503169837,189.73267693601284,40.41645406497723,64.49118692955203,137.46164613836285,158.74056107976156,164.3085189656685,171.96906144345726,175.02406013966515
3.2032032032032034,176.22351350677536,27.905169003395457,59.26512145974087,129.4381323998593,158.738008506028,164.4244110079248,171.5994026779198,175.7447292573038
3.2365699032365702,161.26418561987717,17.176523578304113,54.19908996948054,120.16468212974158,158.7592245185489,164.54087805179435,171.03530103685114,176.31763460345596
3.2699366032699366,144.86103358381652,8.552285142107522,49.32589846589171,109.5667378579796,158.80981098317204,164.6598972269971,170.24921911896303,176.7096288666281
3.3033033033033035,127.020397707092,2.354221047210217,44.67835295609511,97.5697421145432,158.89536976574522,164.78344566325285,169.21361952296738,176.88756473532652
3.3366700033366703,107.7486182982018,-1.0959013539832725,40.28925944721135,84.0991374294024,159.02150273211612,164.91350049028156,167.900964847576,176.81829489805773
3.3700367033700367,87.05203566564413,-1.4763147090681912,36.19142394636109,69.08036633252694,159.1938117481326,165.05203883780308,166.28371769150067,176.46867204332807
3.4034034034034035,64.93699011791747,1.534748334359776,32.41765246066501,52.43887135388675,159.41789867964235,165.2010378355373,164.33434065345327,175.80554885964398
3.4367701034367704,41.40982196352015,8.259055128705398,29.00075099724377,34.1000950234518,159.69936539249318,165.3624746132042,162.02529633214564,174.79577803551192
