Time,Left Shoulder Angle,Right Shoulder Angle,Left Elbow Angle,Right Elbow Angle,Left Hip Angle,Right Hip Angle,Left Knee Angle,Right Knee Angle
0.0,23.998532043462845,22.2176478588592,181.1247262468472,176.81390266295182,200.2890158640883,227.46780764405656,170.64827669258725,166.15880864865272
0.0333667000333667,23.834913648892368,22.067261425778764,181.97081518189864,177.21317841311054,200.4714553072839,227.4780742622504,170.75313831344303,166.5505706296183
0.0667334000667334,23.701966797141235,21.89072169042915,182.69137092372964,177.61412250213343,200.6013613206624,227.43114938648063,170.87177676597133,166.9307840503906
0.1001001001001001,23.60106519055523,21.69231301797489,183.2946225996267,178.01805067573608,200.6840630459807,227.3314175545681,171.00139324809172,167.2991444876979
0.1334668001334668,23.53358253148013,21.476319773580503,183.7887993368763,178.4262786796339,200.72488962499563,227.1832633043335,171.13918895772375,167.65534751826866
0.1668335001668335,23.50089252226173,21.247026322410544,184.18213026276493,178.84012225954243,200.729170199464,226.9910711735976,171.28236509278716,167.99908871883122
0.2002002002002002,23.5043688652458,21.008717029629526,184.48284450457905,179.26089716117718,200.7022339111428,226.7592257001811,171.42812285120146,168.33006366611392
0.2335669002335669,23.54538526277813,20.765676260401985,184.6991711896051,179.68991913025366,200.6494099017886,226.4921114219048,171.57366343088628,168.6479679368452
0.2669336002669336,23.62531541720449,20.522188379892448,184.83933944512964,180.12850391248736,200.5760273131584,226.19411287658943,171.71618802976124,168.95249710775337
0.3003003003003003,23.74553303087068,20.28253775326545,184.9115783984392,180.5779672535938,200.4874152870092,225.86961460205572,171.85289784574593,169.24334675556682
0.333667000333667,23.907411806122468,20.05100874568553,184.9241171768201,181.0396248992885,200.38890296509743,225.52300113612452,171.98099407675994,169.52021245701394
0.3670337003670337,24.112325445305647,19.831885722317203,184.88518490755888,181.5147925952869,200.2858194891804,225.15865701661653,172.09767792072293,169.78278978882307
0.4004004004004004,24.361647650765992,19.629453048325008,184.80301071794213,182.00478608730464,200.1834940010146,224.78096678135245,172.20015057555446,170.03077432772264
0.4337671004337671,24.656752124849287,19.44799508887348,184.68582373525624,182.51092112105712,200.087255642357,224.39431496815303,172.28561323917418,170.26386165044096
0.4671338004671338,24.99901256990132,19.29179620912713,184.5418530867877,183.03451344225988,200.00243355496448,224.00308611483908,172.35126710950166,170.48174733370644
0.5005005005005005,25.389802688267864,19.16514077425052,184.37932789982307,183.5768787966284,199.93435688059387,223.6116647592313,172.39431338445652,170.68412695424743
0.5338672005338673,25.830496182294706,19.07231314940816,184.2064773016488,184.1393329298782,199.88835476100195,223.22443543915048,172.4119532619584,170.8706960887923
0.5672339005672339,26.32246675432779,19.01759769976472,184.0315304195528,184.7231915877263,199.86975633794728,222.8457826924191,172.40138793992824,171.04115031407082
0.6006006006006006,26.851107270955584,19.086127562994484,184.0053541554932,185.35239254708023,199.83896325967208,222.5882898891557,172.40412030291935,171.15884687897582
0.6339673006339673,27.500387059343243,19.222188411518925,183.99673827739355,186.05643593950464,199.8848412053197,222.33762598481184,172.35187622171617,171.2821601030389
0.6673340006673341,28.238487693852,19.37834584839268,183.82294489346776,186.7485519233077,200.0397129065484,222.0907033615436,172.2478841476663,171.40959067327884
0.7007007007007008,29.05321619328549,19.583580906885267,183.71987512037057,187.49092238564413,200.2928859163257,221.843560162976,172.07346937846864,171.52880196453262
0.7340674007340674,29.790729806073003,19.81493836914661,183.91941462674737,188.24497896016487,200.60686119583897,221.6458242073044,171.89403197021446,171.61141819125544
0.7674341007674341,30.5984474238188,20.12339033201637,184.19896588001987,189.05968700086592,201.00576953754177,221.48852545015365,171.6361768142353,171.6622065722311
0.8008008008008008,31.40840329757144,20.55455326411728,184.47017612209376,189.82768314274043,201.50111415252752,221.36152348399787,171.27960687647217,171.67568378156832
0.8341675008341676,32.34991875792242,21.022891526862225,184.75797973207537,190.65655426886315,202.0723443670801,221.20265162151304,170.82933865142633,171.69594456850328
0.8675342008675342,33.27295215247548,21.537143488499936,185.06178175394467,191.2309788283663,202.68106833889524,221.0219075300592,170.3220063719516,171.70851423469244
0.9009009009009008,34.31451587746739,22.100981741468093,185.3837378610568,191.87570832335783,203.3384973468342,220.8563054625141,169.74681074892882,171.69603909894565
0.9342676009342676,35.57768421057298,22.769474969441568,185.3233628979256,192.46339675490327,204.032411497216,220.7688363476851,169.12360359243505,171.65014892435818
0.9676343009676344,36.96315026369478,23.461922159815423,185.177888573701,193.2144021774836,204.75495125387465,220.7061220176136,168.44411503079982,171.58695619944174
1.001001001001001,38.33436616588152,23.84164943908169,185.03510718378217,194.17750897627144,205.52750640270853,220.6466982293373,167.721673372578,171.51968600422106
1.0343677010343677,39.72732355631291,24.22220907234272,185.0263296693283,195.3392689957669,206.3066212798184,220.5746628659716,166.96256429805314,171.45998360158256
1.0677344010677343,40.99482522086446,24.44539912560838,184.48443712411373,195.96583735521423,207.0919715613512,220.471258568474,166.18505576513064,171.4002166188013
1.1011011011011012,42.32501327926971,24.788507554777347,184.234223674385,196.9515117578198,207.8667947243951,220.359655027021,165.38766597389505,171.3394488627511
1.1344678011344678,43.583202087355815,25.34491012526516,184.49313724620063,198.10823606906467,208.6142216624621,220.2710605722764,164.58371888022526,171.2473215593459
1.1678345011678346,44.83227468180897,26.08497678032116,185.1412868154065,199.4634195178771,209.3520885634132,220.1988540735244,163.75342634180447,171.1394429091001
1.2012012012012012,45.89047056364404,27.53214386588132,185.44399720791856,200.2701307022733,210.0294276186604,220.36610867949025,162.8268022402122,171.11434122886692
1.234567901234568,47.02761638351213,29.068756881460416,185.9117450903265,201.27342171126008,210.6885962815652,220.4801078298339,161.88801053920332,171.1064115246577
1.267934601267935,48.41535107471609,31.04867512609536,186.60975931291608,203.51020728984915,211.2903564560728,220.5061989058744,161.07108023124908,171.08230120815753
1.3013013013013013,50.07926847242997,33.10050438817391,187.325603717848,205.3284722459297,211.86915051267744,220.3021630142501,160.31664706957432,171.1005098213251
1.334668001334668,52.43965110292709,34.6194574395483,193.49801174982588,207.947031457794,212.30252976226112,220.08691555293623,159.57858619397763,171.1778460299249
1.3680347013680347,54.76606114861804,35.754238736854404,197.96342370243588,209.960639209624,212.6506643494004,219.8282177309025,158.80918362628017,171.27264455844346
1.4014014014014016,56.47472578011456,36.529520950699066,195.685644897578,212.15285396409573,212.9436153801776,219.3983015961801,158.1250180930063,171.3519654715725
1.4347681014347682,57.81720880925396,36.92399674866823,193.5569634935712,213.8140129239516,213.19115840306367,218.89023903363852,157.46685588977047,171.37992933437707
1.4681348014681348,59.53135900157493,37.07029748250725,196.3324880995311,215.24718206820828,213.3697753894876,218.35698837599364,156.87950090801732,171.36580338025107
1.5015015015015016,61.049174472833954,36.94368402312114,198.74406969215684,216.3538638905024,213.3843130076782,217.8516615572763,156.33275574985583,171.2798122104118
1.5348682015348682,62.18887809037199,35.971432270486154,199.2284000474642,215.8812613418566,213.7462571925868,216.85509754945195,155.89876320586538,171.12409650308177
1.5682349015682349,62.796149407060426,34.94444300709982,198.6361471693767,215.2080414192632,214.0180343423652,216.00686064140737,155.50748512982767,170.9250648334666
1.6016016016016017,61.20084277746584,34.16865637833592,199.7186837632541,214.7984383288204,213.6586052100755,216.00052356835167,155.0971939747378,170.72812617103398
1.6349683016349683,59.647449805057406,33.326990753804054,199.37845572882395,214.4133746943894,213.29305750572044,216.05912586276463,154.67390936406724,170.51951334359435
1.6683350016683351,59.60890181676897,32.02761761224408,195.5328977160389,213.54568187814465,213.416005750496,215.826979712312,154.31058529719866,170.27643846559351
1.7017017017017018,59.73152086803712,30.593992767429626,190.6751525181321,212.73905837591712,213.63693770126736,215.52094804472875,153.9147757502932,169.99562657087105
1.7350684017350684,59.48194742504908,29.42959708877778,186.34826116884045,212.58395632270663,213.35694600739512,215.52781008723065,153.47082279737745,169.72721639492934
1.7684351017684352,58.82905664794391,28.1683559812004,181.7944293438889,212.20611531314168,213.19208727971275,215.49967332185503,153.0047748204631,169.44012531488482
1.8018018018018016,57.44163776674837,26.74481684701417,173.4589065502635,210.00278050329464,213.34264426988847,215.14069254057688,152.40824255701193,169.28683445097855
1.8351685018351689,56.609989008551736,25.332363020961143,167.19451529628577,207.29292080245392,213.56282733872112,214.9095316227914,151.84244904824004,168.98063333685997
1.8685352018685355,55.86436190445586,23.849717222736903,163.88901247362588,204.6705564692306,213.8468519554727,214.79194223048893,151.36692327023738,168.5341394798276
1.901901901901902,55.73683716489403,22.37719112799076,159.24107882855128,203.32280697940868,214.20392952494305,214.73135096505044,150.87528356122988,167.9898536380142
1.9352686019352687,55.66548854145205,20.79982689399685,151.06507618086545,209.9170428271288,214.56559266552995,214.5233465096024,150.4254907676175,167.48608906720227
1.968635301968636,56.06777378845479,19.07200126594679,143.636364818396,215.1045386077726,214.96783082501284,214.34332449343984,150.0087317540163,166.93123226835093
2.002002002002002,57.2116387173417,17.085543880908013,136.80390013903272,217.9877919855113,215.24531752756943,214.57874123613155,149.74827248319582,166.0139217627596
2.035368702035369,58.42918766018486,14.136231075981591,126.0086637213857,217.8707005155012,215.64614719183987,214.8418003600504,149.46499971108472,165.12754476316834
2.0687354020687354,59.83422110483182,11.35224527166319,115.70225855250712,216.5273592627099,216.1566194068008,215.11789891458565,149.16583431749723,164.29245948481008
2.1021021021021022,61.87404134165295,5.663153634962045,107.122331438654,209.852161713707,217.12794184329832,214.8574007421444,148.92399504289665,163.44779378012288
2.135468802135469,60.75020330025848,0.6004318939434561,102.28780442658886,211.11349332622385,213.1026411690061,210.57198163726147,147.72094967606725,163.109997697878
2.1688355021688355,60.616010452508405,-2.8979435369082944,94.8290180742413,210.359686424676,210.4030294299491,207.80096075433087,146.4946106323079,162.87903958519126
2.2022022022022023,61.675014733919234,-4.398641469223992,86.24224168679659,207.2627813219012,222.38069140441257,206.32995688395172,145.77436753279412,162.54496352819365
2.235568902235569,63.87673162995068,-3.8355110514535498,78.9081139598876,203.87081926109693,231.52825712137,206.151875308302,145.3050652529493,162.16492712485015
2.2689356022689355,66.26707442274636,-1.7208499063771217,73.12082954331879,200.0943216448764,238.05441907359145,207.2011517783484,144.93744656199405,161.5634459744978
2.3023023023023024,69.51918053342821,1.7701983740779617,69.33236831466692,196.4503784915302,242.01452050362417,209.3330561235712,144.7281838300551,161.0567195001633
2.335669002335669,73.1415690500492,1.7701983740779617,67.66691621100158,191.5357488622312,243.53516857988348,212.6098257436481,144.4564118524671,160.68453976648428
2.369035702369036,78.13329904092848,1.7701983740779617,66.47972471217633,186.66319585589457,242.80850060358347,216.47597757553663,145.31303458776583,160.36501833662416
2.4024024024024024,84.04256316577559,1.7701983740779617,66.3130743559688,181.5504296915396,240.16066474242555,220.9817693928266,146.31624391931695,160.06714973556538
2.4357691024357693,90.41615657493516,1.7701983740779617,67.27714703531653,175.00998982295127,235.74872623848896,226.10088328330977,147.38742006759395,159.7208926350319
2.469135802469136,96.6551329436039,1.7701983740779617,70.1197513274105,168.57440432215176,229.59286404958408,231.85261523814583,148.67953529421402,159.3657799194991
2.5025025025025025,102.40464895249042,1.7701983740779617,67.23140813959702,160.45700959558997,221.9828732471487,237.9832099096355,150.06043732798489,158.8858062130388
2.5358692025358693,108.3130773663304,1.7701983740779617,64.41528954307124,152.2970533094451,213.039225888044,244.3640623462377,151.5680871973706,158.33738765357631
2.669336002669336,114.6817183261086,1.7701983740779617,68.56213568296052,143.3458872026734,202.8726078506484,251.10482485978136,153.07704951838346,157.6675360750688
2.702702702702702,121.70650098443278,1.7701983740779617,73.62726209409318,133.56083234181332,191.62913379380612,258.07665974347265,153.92538494271173,156.84858654844362
2.736069402736069,127.0332606889515,1.7701983740779617,72.8747156161252,125.17133617445708,179.68107407291086,265.027263414117,155.62193918782344,155.86175111212347
2.7694361027694363,130.5430799775179,1.7701983740779617,71.25620880912142,115.68453557704774,167.12167698612438,272.09493745077134,157.3371210141392,154.8631001847694
2.836169502836169,134.4205221386896,1.7701983740779617,71.3304129781689,107.20673348821748,153.38365557632025,280.00473522658405,159.40803025171107,154.2296183008169
2.8695362028695364,138.16298754484174,1.7701983740779617,70.46957408600375,99.33614501752834,139.1060168401105,287.9196366926459,161.34097559115224,153.5508169104539
2.902902902902903,142.64416364425452,1.7701983740779617,66.75543338081728,90.58298403317184,112.45800821261676,295.1651460613176,163.49684616868254,153.08592577362927
2.9362696029362696,147.54664579535685,1.7701983740779617,62.9453456099718,82.47465313764037,101.93847486656546,301.92705447921685,165.41190215625497,152.8581959483654
2.9696363029696364,151.03752847366144,1.7701983740779617,61.53152565571176,75.14332245927581,90.9219029406946,308.6070320303991,166.77823783052025,152.64844268788534
3.003003003003004,153.73330052534695,1.7701983740779617,60.479456377974,68.54514729743553,79.68650227547194,315.0355675321758,167.82062083808228,152.35228456730118
3.0363697030363697,155.96160858462812,1.7701983740779617,57.5657676812419,61.66282759669504,56.7759037309888,320.6718308385751,168.5442023234474,151.97143701299265
3.0697364030697365,158.3359082154278,1.7701983740779617,53.86865296400261,55.43602073935257,38.129634031653886,325.6328367334908,169.0283236071327,151.5562856842089
3.103103103103104,161.94033459927388,1.7701983740779617,55.086890097496045,53.36513550283836,36.08515958104789,330.1168256058705,169.40192579247588,150.82106119369266
3.1364698031364697,164.69443189838168,1.7701983740779617,53.26128635351558,52.674178696867024,21.61752953793334,333.98349087360486,169.6548440882438,150.15905088798706
3.169836503169837,167.09508528313492,1.7701983740779617,48.01836383747816,54.567172190025886,11.197072661695772,337.0024593844218,169.6238811095827,149.17954026660632
3.2032032032032034,169.3041575657729,1.7701983740779617,41.672465443128566,58.01502747641501,17.031337983356764,339.19411142942363,169.14141842376804,147.6897186153932
3.2365699032365702,171.70584908127194,1.7701983740779617,37.94934319895064,54.25144014459241,23.25534151762112,340.507876007954,167.3215310780038,145.63013455097985
3.2699366032699366,173.4397557224228,1.7701983740779617,33.271940920597984,49.47668628655311,29.78437218662649,340.90086402048263,166.10519810442003,141.88534025167837
3.3033033033033035,173.78656110465246,1.7701983740779617,27.45405084122472,44.22421022866658,36.96006245490481,339.9134622326658,164.87435304294414,139.224545201119
3.3366700033366703,172.54802765925146,1.7701983740779617,27.018957302122683,40.67432398639056,32.44805372229061,337.799522757994,163.49275633879125,139.3148308061189
3.3700367033700367,170.91710540057784,1.7701983740779617,27.0793218514233,37.688002426569646,32.86778445383139,334.28234339136003,162.05722208228752,140.91854080722476
3.4034034034034035,167.99711384694226,1.7701983740779617,26.849367266602027,42.18107131047511,37.211938368076574,329.973712297309,160.8093228148381,142.19830662363677
3.4367701034367704,167.58055009998586,1.7701983740779617,23.60331514506452,40.19624249809543,52.2484163289733,329.9137635939455,160.6903071440183,142.44039048895044
3.4701368034701368,167.5244555427181,1.7701983740779617,24.682786786009324,40.1056492854262,86.06155707949199,341.645423979404,161.4398530880786,142.26706042397302
3.503503503503504,166.32640832225007,1.7701983740779617,23.74014830105589,36.22253491246356,104.19539808739334,337.2224586160761,161.46790053301325,141.8113884266492
3.5368702035368704,164.96781016630734,1.7701983740779617,27.26375541472875,36.68408653511372,108.08380522488936,333.80750204438675,160.7649528133754,141.24155540560471
3.5702369035702373,163.96186358056383,1.7701983740779617,31.297063300277763,38.53223838815997,113.49182289667868,330.73086211904405,160.16348223968654,140.82144624115793
3.603603603603604,163.40511216841236,1.7701983740779617,33.87112666469991,39.13742846845715,120.35934131070502,328.06051835330874,159.97366695847427,139.97134532705968
3.6369703036369705,163.1957439219249,1.7701983740779617,35.80145835558297,39.68384561363635,128.5125611286072,325.5126984459306,161.0841841969844,139.17894203576657
3.670337003670337,162.41588086897303,6.815838355886887,39.5680418417801,40.6247007349627,137.83912303150004,323.3301512721073,161.3838572662008,138.66801914554568
3.703703703703704,161.4947866355019,12.617018084885874,43.86461784043593,42.08790338957924,147.84747385948793,321.2923249327381,162.1835883791617,138.1916843892603
3.737070403737071,160.74676710685276,19.279753087258964,48.23718691669546,43.827973718847154,158.24339964563356,319.3742281825746,164.1091030484024,136.1144225353061
3.770437103770437,160.5809958468968,26.15910311695849,52.13583660413034,45.69891773940246,168.93792670290915,317.593791348564,166.15016508947335,134.89831614883042
3.803803803803804,160.88217014541345,33.16897182582109,55.23919437291338,48.0188001518925,179.67278124302427,315.999400112153,167.98638356448205,134.3009247174779
3.8371705038371706,160.87005297577898,41.01622026846074,57.60968507060998,50.85294644673401,190.3159639722461,314.5515710032426,169.2911211386144,133.96374959422627
3.8705372038705375,160.33927898967764,49.31342083162582,59.0090438523411,53.8831672864013,200.5645869441444,313.2253184197418,170.525498244708,134.11493297774257
3.903903903903904,158.48142952203506,57.87534330973617,60.82250818288033,57.91646002614126,210.1946547176912,312.05839797164737,172.70058222482447,134.71602000017418
3.937270603937271,156.7206199249287,66.51955184125877,63.9417562853915,59.2594052822656,218.7137217307934,311.20955493331206,174.35287260789497,138.27597625361895
3.9706373039706375,155.78565950473748,75.25712524506575,67.82624635303898,61.951244547848255,226.06482431253423,310.5379861451817,176.12087434143024,142.262112647933
4.004004004004004,154.16437721877972,84.25008146881002,69.96168334940958,65.16255441473469,231.81002030118148,321.58179807029256,178.38811818655165,145.2240097350147
4.037370704037371,151.34115311926143,93.6039835803408,74.38848055191484,65.71672123350037,235.86903794764044,317.1160589826887,180.5571473293594,148.16795005427835
4.070737404070738,149.42021677761613,102.78257019317408,79.18472263561715,69.2076161754652,255.01644180869204,313.01881286230895,182.27132899510465,150.71372611394176
