Time,Left Shoulder Angle,Right Shoulder Angle,Left Elbow Angle,Right Elbow Angle,Left Hip Angle,Right Hip Angle,Left Knee Angle,Right Knee Angle
0.0,24.550457228568508,37.265056616451886,167.81125510204708,166.61389536605364,139.851228243706,137.36825073570813,197.1538242356266,202.3936476170843
0.0333667000333667,24.55318711828314,37.10684306354284,167.86835937102902,166.61267946805447,139.67108303702125,137.69619649683247,197.83060951477103,202.032997795224
0.0667334000667334,24.62060266887455,36.96419056782552,167.95125290398155,166.5772949356624,139.42489331209867,137.94067153137223,198.4690826362837,201.73151460607
0.1001001001001001,24.747710584140503,36.83498606840315,168.0591522059377,166.50946750306284,139.11879777341883,138.108413248108,199.06933105211863,201.48473397803903
0.1334668001334668,24.9295175678788,36.717116504378936,168.1912737819304,166.41092290444126,138.75893512546222,138.20615905582036,199.6314422142301,201.2881918395477
0.1668335001668335,25.1610303238872,36.6084688148561,168.34683413699258,166.28338687398306,138.35144407270934,138.2406463632899,200.1555035745722,201.13742411901245
0.2002002002002002,25.4372555559635,36.506929938937866,168.5250497761573,166.12858514587364,137.90246331964073,138.2186125792972,200.64160258509915,201.02796674484983
0.2335669002335669,25.75319996790547,36.41038681572744,168.72513720445744,165.94824345429848,137.4181315707369,138.14679511262284,201.0898266977651,200.9553556454765
0.2669336002669336,26.10387026351089,36.31672638432804,168.946312926926,165.74408753344295,136.90458753047838,138.03193137204738,201.50026336452424,200.91512674930897
0.3003003003003003,26.48427314657756,36.2238355838429,169.18779344859593,165.5178431174925,136.36796990334565,137.88075876635142,201.87300003733063,200.90281598476372
0.333667000333667,26.889415320903225,36.12960135337522,169.4487952745002,165.27123594063255,135.81441739381927,137.70001470431555,202.20812416813857,200.9139592802575
0.3670337003670337,27.31430349028569,36.03191063202822,169.72853490967182,165.0059917370485,135.25006870637972,137.49643659472034,202.50572320890217,200.9440925642067
0.4004004004004004,27.753944358522737,35.928650358905124,170.02622885914369,164.7238362409258,134.68106254550756,137.2767618463464,202.7658846115756,200.988751765028
0.4337671004337671,28.20334462941214,35.817707473109145,170.3410936279488,164.42649518644987,134.11353761568324,137.04772786797426,202.988695828113,201.0434728111377
0.4671338004671338,28.65751100675168,35.6969689137435,170.67234572112008,164.11569430780614,133.55363262138735,136.81607206838456,203.1742443104686,201.10379163095268
0.5005005005005005,29.111450194339128,35.5643216199114,171.01920164369056,163.79315933918,133.00748626710035,136.58853185635783,203.3226175105965,201.16524415288936
0.5338672005338673,29.56016889597228,35.41765253071607,171.38087790069318,163.4606160147569,132.48123725730278,136.37184464067468,203.4339028804509,201.22336630536427
0.5672339005672339,29.998673815449123,35.25484858526103,171.75659099716228,163.11979006872363,131.98102429647628,136.1727478301168,203.5081878719876,201.27369401679564
0.6006006006006006,30.39124399208928,35.154321492570894,172.1200454148053,162.8376606327585,131.53669791819135,136.0155200948288,203.50580300793465,201.30949891148407
0.6339673006339673,30.78363467378468,34.99782429281141,172.52326866759867,162.55954071231193,131.14352979436515,135.9406274780183,203.47843846900125,201.2985926861756
0.6673340006673341,31.217655650171626,34.824385882779744,172.9960771525636,162.32355435911367,130.73978011095605,135.89315616839335,203.45545577390595,201.2538571812519
0.7007007007007008,31.593749401207173,34.561824602540696,173.47720208293586,162.0200096453336,130.42761031779847,135.8990613218296,203.3750416282072,201.1699863562156
0.7340674007340674,31.912943217782605,34.249489662702835,173.89370808758204,161.69887418904705,130.2200714048661,135.94889915750284,203.1864103853285,201.06278767903592
0.7674341007674341,32.16030562416097,33.83756613153439,174.31090759961177,161.29426214307244,130.1223553587127,136.07666273526004,202.93656506684408,200.911560813038
0.8008008008008008,32.33396722519277,33.40514537101388,174.7612527509818,160.87243366209827,130.17069529871907,136.28567040879517,202.5820391007716,200.7063861688573
0.8341675008341676,32.42187016789106,32.92940105538679,175.2245151673358,160.45621482596908,130.3263554139168,136.5791463481715,202.1806277445164,200.4522908008644
0.8675342008675342,32.427982293297,32.4312530031574,175.69103811177322,160.01538578554923,130.5988595706039,136.94552964671263,201.73119087520848,200.1647832550724
0.9009009009009008,32.35575880724514,31.87192396855718,176.1621604740804,159.55513935230238,130.9212733452405,137.37793415822054,201.30508965104605,199.85007245458007
0.9342676009342676,32.21860165611479,31.316243941895127,176.6267984905082,159.09413622692313,131.23870846233436,137.86543021636618,201.15516586809275,199.51618849981904
0.9676343009676344,32.019692853198414,30.734118721177893,177.1008746032464,158.59705864829562,131.54085567656182,138.3594629632805,201.11627206001185,199.17998744107965
1.001001001001001,31.82515262860224,30.20594148470341,177.58368204777696,158.15866120084723,131.79470257966366,138.85561421075704,201.1062960501792,198.83996327259248
1.0343677010343677,31.59904852765617,29.67233191858108,178.05468168326922,157.7606711835106,131.99845400114768,139.3638840130102,201.13061974903192,198.4891320930516
1.0677344010677343,31.315779998644764,29.16448987236233,178.47595560692804,157.37954498887515,132.3821340049869,139.81926216111748,200.89315607075963,198.2717835601124
1.1011011011011012,30.976587119289267,28.61527895015708,178.89601511189133,157.03986063297182,132.76596309775226,140.29896750056295,200.6623352654913,198.0700727285825
1.1344678011344678,30.655966440702688,28.194580746013127,179.2954201599384,156.8467697772958,132.95016181038238,140.9083546386268,200.65816070838372,197.584543809174
1.1678345011678346,30.27936781921216,27.683985406221808,179.68046274688942,156.60171157057812,133.05518461483572,141.54619585990028,200.78499322489444,197.07691662528512
1.2012012012012012,29.9454577086502,27.12547267719914,180.10779452669385,156.31427342999353,133.15921471356003,142.17976054777057,201.0065791028912,196.6110765532961
1.234567901234568,29.536111786085645,26.478975331342863,180.54304911268,155.99288306138078,133.23406898451742,142.79522478861352,201.3036428538198,196.20697383073752
1.267934601267935,28.99074904956285,25.801176058921484,180.7671908045324,155.63590013138554,133.27759509198026,143.40786852118964,201.671839111512,195.8800953237216
1.3013013013013013,28.33695894802207,25.040267196604788,180.92690706368185,155.28029874258758,133.2946153427227,144.03059209293343,202.0848378166663,195.5980459173105
1.334668001334668,27.68542828298635,24.2830007047486,181.0642505859645,154.95276744476786,133.27932807794173,144.5909231279,202.507082734008,195.41670049011657
1.3680347013680347,26.98802964892978,23.35009352203436,181.27566697773128,154.62215829104815,133.2122632725821,145.12440789249828,202.9392277526128,195.2659763569877
1.4014014014014016,26.24773505970848,22.217481779359275,181.39539648810563,154.51006274225057,133.1131001727823,145.6337652992125,203.384344800132,195.1527929171912
1.4347681014347682,25.41350351407939,21.01605169576115,181.46877586694927,154.34676762582288,133.0049472210273,146.08866831531222,203.824968219978,195.1008002465713
1.4681348014681348,24.551011887595227,19.75267459510307,181.3854611116688,154.06265331184235,132.85203492466513,146.5132807025824,204.2695696240588,195.04841312222945
1.5015015015015016,23.531312575618745,18.39950202791084,181.34929621495772,153.63964432627236,132.6399014472921,146.94281635688952,204.72228830805523,194.9829948634656
1.5348682015348682,22.26551300989626,16.9152191342404,181.48603386520932,152.84694902597474,132.38898034315997,147.3469472660381,205.1968353907815,194.96162117499748
1.5682349015682349,20.96722613752149,15.50125371272106,181.5759309674521,152.0039558806223,132.08283849468327,147.73883111507487,205.6628697003404,194.93906413810467
1.6016016016016017,19.638483966405857,14.097857544976424,181.7221135247441,151.08339094161656,131.68242339800292,148.11001096659703,206.12099367126424,194.903691602438
1.6349683016349683,18.22203497367068,12.743070084341404,181.88573931800104,150.1743681705497,131.30591585344018,148.49814037400188,206.50499938921172,194.84170340117527
1.6683350016683351,16.717709414931047,11.489164900956668,182.02142658875968,149.63119773514947,130.93259739833107,148.8807868214648,206.8294222839968,194.76184416070697
1.7017017017017018,15.279642466841024,10.378576011813957,182.11005246687387,149.25422619202052,130.5490244176079,149.30459593711674,207.1433966021171,194.6373007391557
1.7350684017350684,13.810566620377124,9.542928360414392,182.623447045514,148.90292175766422,130.14205435635017,149.73334198631457,207.42863672111903,194.47769373046896
1.7684351017684352,12.472316397181258,8.726843746442126,183.11913131702408,148.45604773777063,129.76636158792724,150.13780163599088,207.634621151876,194.30158027610264
1.8018018018018016,11.210977495866372,8.043497264430448,182.9271103589987,147.9284151938545,129.40054573467373,150.50095067604536,207.7893676901764,194.12111209932303
1.8351685018351689,10.0717606765641,7.463430366906481,182.30814157653248,147.2922952842374,129.1260050839383,150.86708611065424,207.850165056356,193.9281712401539
1.8685352018685355,9.145053784237884,6.983162657851289,179.88782209945467,146.13164124708004,128.90433770109914,151.24426311603156,207.8354873638295,193.715937203433
1.901901901901902,8.418661127839279,6.606322721742291,177.6712114854994,144.18442467279712,128.75413049512414,151.6446525488249,207.7924175142452,193.468414798813
1.9352686019352687,7.893157371436394,6.392610603492916,175.44550187936036,148.14576671261244,128.6463743010055,152.05071212084206,207.7236843234356,193.1926055202311
1.968635301968636,7.562486320715862,6.3090620442070335,176.27190416090295,151.01690120278474,128.5422886356829,152.44780269113127,207.7101671839286,192.91933700024464
2.002002002002002,7.418510091166311,6.216092899875149,177.12083660193588,153.04076208974462,128.4614059334802,152.82724324387945,207.72733992345863,192.6306150473457
2.035368702035369,7.46452509931482,6.216092899875149,177.52197209027386,154.1643339373599,128.38685280421922,153.19892254688685,207.81279116293052,192.3296215050869
2.0687354020687354,7.686991224892533,6.216092899875149,177.59537055362813,154.50685677253892,128.3333915328088,153.5474969139533,207.93050314652825,192.0309412587459
2.1021021021021022,8.139198386108902,6.216092899875149,177.30541896578944,153.94669785165502,128.34926726771104,153.8508815476514,207.81130121760103,191.73856716843247
2.135468802135469,8.70470461004773,6.216092899875149,176.778607394268,146.3577531611354,128.47891957005746,154.1022993579814,207.51583792030348,191.4468897474502
2.1688355021688355,9.41821237101144,6.216092899875149,175.82736818608245,142.56338327865737,128.71837269759965,154.3083019269436,207.1172180369812,191.1812652718796
2.2022022022022023,10.119190131868033,6.216092899875149,174.32888202970838,140.63567278320338,129.0581818678605,154.487991777152,206.6449267386916,190.95583494499343
2.235568902235569,10.966179212095945,6.216092899875149,172.51642708139295,138.38453008587103,129.21622040584842,154.71857136810786,206.5102861293162,190.5951709580282
2.2689356022689355,12.055757476875748,6.216092899875149,170.6177584694858,137.69124356011423,129.23097209625112,154.95658606722478,206.62317712561145,190.1362951452961
2.3023023023023024,13.215023249867604,6.216092899875149,168.50258663991778,136.4267619192122,129.33701416749344,155.05665711547698,206.73887359562764,189.9483753242912
2.335669002335669,14.521723529857647,6.216092899875149,166.26453849033842,134.4739720730403,129.46552015575347,155.08199590147325,206.89902939643764,189.86587478092
2.369035702369036,15.939396573289532,6.216092899875149,163.92646720775733,131.8670378377018,129.56508544671598,155.0625983959763,207.08554660623457,189.8547036510656
2.4024024024024024,17.56313107514203,6.216092899875149,161.84665299961813,128.90370180104466,129.6670281612079,155.0066201790019,207.29748086498049,189.90961037195805
2.4357691024357693,19.155325299107417,6.216092899875149,159.58499514118856,125.7235784041556,129.7725974535844,154.88621945661572,207.5234319023696,190.0165426631629
2.469135802469136,20.97873995192702,6.216092899875149,157.46597668447063,122.30064203746744,129.88478950871405,154.69854652149712,207.7607992060702,190.16703512615337
2.5025025025025025,22.928597161361083,6.216092899875149,155.514385807294,118.4028409398963,130.00835224050857,154.52019372780526,208.03642708320632,190.30118961383465
2.5358692025358693,16.098266297270552,6.216092899875149,153.72939569912725,114.0270251112362,130.13368649070676,154.30663823716097,208.3521906807363,190.4676641870976
2.569235902569236,12.098730405480792,6.216092899875149,152.15633698120826,109.00932822160826,130.25635425470725,154.06331383825002,208.6925563398439,190.6381643571694
2.6026026026026026,10.75918667524602,6.216092899875149,150.7413163006109,103.69974337274438,130.3404262243989,153.8128313963175,209.04743470948148,190.75941053565
2.6359693026359694,11.790946717371371,6.216092899875149,149.7119414133471,98.17964971899566,130.41905320199132,153.57792626491462,209.3770155580248,190.85471266531505
2.669336002669336,15.03944964560512,6.216092899875149,148.88333976285358,92.49090041317532,130.48452743305694,153.35029672084795,209.7095621042086,190.94404472082928
2.702702702702702,20.46824011722439,6.216092899875149,148.08821659978122,87.07326574162896,130.48773923948485,153.1437954484984,210.04472728841057,190.97820019188336
2.736069402736069,27.73800814349494,6.216092899875149,147.54746119063847,81.83736567929944,130.42579576971798,152.98968505552057,210.41671820116085,190.90922616810207
2.7694361027694363,36.6922286126712,6.216092899875149,147.17439919766733,76.93475188458856,130.35033330196512,152.8584284545806,210.79422215481452,190.80637755096367
2.802802802802803,47.09401677926398,6.216092899875149,146.95984580455948,72.62693781036384,130.2477511713827,152.73192871120958,211.17419295009248,190.7080748856377
2.836169502836169,58.90476053396839,6.216092899875149,146.8375343185365,68.4260264120068,130.11203601796254,152.5938552309593,211.55742556946063,190.6467254384065
2.8695362028695364,80.85564959464871,6.216092899875149,146.80174747073707,64.30582367425701,129.9463939029174,152.45699690517827,211.940972276301,190.60895732563367
2.902902902902903,101.2710521612761,6.216092899875149,146.2063324877359,60.527214088112906,129.75234159060804,152.30871934355886,212.34019947524283,190.6171602902368
2.9362696029362696,120.1100049104853,6.216092899875149,145.20860552908087,56.99154819682276,129.52450644151284,152.17644498313098,212.75127504144635,190.63053245175897
2.9696363029696364,137.29524572325792,6.216092899875149,144.5306660690017,53.69850077151323,129.27705702429216,152.04806909500678,213.16532351119488,190.68462243774687
3.003003003003004,152.8427889625589,6.216092899875149,144.17404983130172,51.686625082562976,129.06480411508525,151.95273608438256,213.54384093931088,190.7630411698871
3.0363697030363697,166.48839079043577,6.216092899875149,145.92403713486345,51.85439682525704,128.86674122734206,151.8510415399468,213.9066887362984,190.88654128627653
3.0697364030697365,178.34938927451157,6.216092899875149,148.64066146994256,54.824353258929456,128.6632682473038,151.77683024315155,214.26293962486105,190.9434520676297
3.103103103103104,188.0809128666168,6.216092899875149,152.4273282401966,52.243616350872166,128.48969136687276,151.6786316090608,214.59114067333908,191.0664053658041
3.1364698031364697,195.86637651069844,6.216092899875149,153.09777347901746,47.95586043966608,128.31378322771957,151.50543332558658,214.88268968400092,191.3046377966674
3.169836503169837,201.5153070704211,6.216092899875149,153.1940016513059,43.27046083571983,128.15960595949406,151.2851952488087,215.1388193254744,191.65474006417884
3.2032032032032034,205.3846663386982,6.216092899875149,151.5115779359304,38.42023475645623,127.9783479151751,151.00843677348468,215.46576252527177,192.07605122410712
3.2365699032365702,207.0719341762997,6.216092899875149,149.9696587315977,33.73651623079965,127.83654713126556,150.69976830808895,215.7889892585439,192.57629623225688
3.2699366032699366,206.69574367044947,6.216092899875149,148.28720580410328,28.073912657925863,127.72298979868818,150.3697317536588,216.0957483814572,193.11857447595384
3.3033033033033035,204.12786547537004,6.216092899875149,146.66203691755254,30.841799409163205,127.63969593270328,150.04692710468404,216.3825072470852,193.72952805087056
3.3366700033366703,198.6370104590191,6.216092899875149,145.3454113612542,32.44520952557398,127.4798368654886,149.7308392925819,216.7719957376554,194.39588126235188
3.3700367033700367,191.16488013070085,6.216092899875149,144.2749516465405,33.76441484568794,127.31258404976406,149.41750951111237,217.15870773470027,195.11260792815395
3.4034034034034035,181.45642929157023,6.216092899875149,143.99871364065945,36.48922536251106,127.11705329032311,149.1456894520618,217.5765773206908,195.80544719897625
3.4367701034367704,169.94153798390755,6.216092899875149,143.88631681409782,38.39979771186252,126.9814663892526,148.88445370770597,217.9222576713672,196.55352067317952
3.4701368034701368,156.73860267785352,6.216092899875149,144.59413996386655,40.84349853805804,126.8203136164958,148.59759187458522,218.33272049469863,197.34284921945977
3.503503503503504,141.98547523407294,6.216092899875149,145.55636473361565,43.8441145290488,126.74889245360718,148.30421642884107,218.60299585770892,198.1844495299505
3.5368702035368704,125.56870317557394,6.216092899875149,146.73355308890928,47.42201218722559,127.30161768284069,148.17542905027452,218.06511282884924,199.0303927914671
3.5702369035702373,107.55390194675176,6.216092899875149,147.70081011069772,51.49313811824688,127.75523813645356,148.10927906860638,217.6097411002192,199.8775582969919
3.603603603603604,88.28382073894299,6.216092899875149,149.0352550202941,55.85738584907345,127.75689369418257,148.07363840538878,217.76291291699687,200.7102530105588
3.6369703036369705,67.6226008839878,6.216092899875149,150.684392966517,60.30460767154397,127.8936655935964,148.0282122695573,217.70088528974168,201.53817263566395
3.670337003670337,45.75577904398619,6.216092899875149,152.9054772669089,64.22649341010177,128.1610273019879,147.95278873434384,217.2912530160908,202.4167933575457
3.703703703703704,34.366446359196175,6.216092899875149,155.38394987943232,68.38568969661658,128.67106193505046,147.9287554577755,216.6108774302268,203.22022517449625
3.737070403737071,24.896784075685783,6.216092899875149,157.27701601568307,73.1596616214563,129.4022241604977,147.97568918198866,215.67088944448253,203.97281719634324
3.770437103770437,17.189116537410243,6.216092899875149,158.79803467532662,78.15752291815558,130.27789203191497,147.99058137897833,214.4995504440731,204.60352288993707
3.803803803803804,11.947172596255305,6.216092899875149,164.53964890000472,85.25094721458153,131.57491690448967,148.40761059443955,212.6873486192081,205.08400660243632
3.8371705038371706,8.60178036650427,6.216092899875149,169.0188765251934,91.70297793048552,132.95203504207635,148.81151067852812,210.864870802706,205.35132410838057
3.8705372038705375,6.903935640859517,6.216092899875149,172.8923795268278,98.03917176399256,134.38154407960954,149.08777137063427,209.21194579731093,205.59201926795183
3.903903903903904,7.558538657711525,6.216092899875149,176.00565467367554,103.78734691541186,135.80982084414728,149.27276236206433,207.54757905367453,205.702134959457
3.937270603937271,10.59049098358935,6.216092899875149,178.73712725477284,110.0224713042151,137.06363661612357,149.2048232921396,205.93954214537013,205.7854864730453
