Time,Left Shoulder Angle,Right Shoulder Angle,Left Elbow Angle,Right Elbow Angle,Left Hip Angle,Right Hip Angle,Left Knee Angle,Right Knee Angle
0.0,72.11484248135451,46.53679744247696,149.30460672024654,142.5553196858799,135.35100616432618,131.15205499543714,202.1373544473168,207.38107768867903
0.0333778371161548,54.21761585502641,42.504123066330585,155.8730074128005,152.10891840253404,134.88240990505162,130.32599892257429,201.76238252398605,207.69958538239985
0.0667556742323097,39.03343125095019,38.36233249414429,161.40306257710895,159.75958692035528,134.50424908554814,129.8571036290188,201.4736360270065,207.8067835042841
0.1001335113484646,26.447987548234263,34.192624354815166,165.9590923385972,165.62554698598302,134.2086443450004,129.7175339851276,201.2691816268873,207.72124585048093
0.1335113484646194,16.346983625987065,30.0761972772403,169.60541682269053,169.8250203460567,133.98771632259314,129.8794548612576,201.1470859941374,207.46154621713924
0.1668891855807743,8.616118363316993,26.0942498903168,172.40635615481415,172.47622874721566,133.83358565751098,130.31503112776574,201.105415799266,207.046258400408
0.2002670226969292,3.141090639332475,22.327980822941736,174.42623046039336,173.69739393609933,133.73837298893866,130.99642765500892,201.142237712782,206.4939561964363
0.2336448598130841,-0.1924006668581057,18.858588704012213,175.7293598648534,173.6067376593471,133.69419895606083,131.89580931334407,201.2556184051946,205.8232134013731
0.2670226969292389,-0.1924006668581057,15.767272162425323,176.38006449361956,172.32248166359835,133.6931841980622,132.9853409731281,201.4436245470129,205.05260381136736
0.3004005340453938,-0.1924006668581057,13.135229827078165,176.44266447211706,169.96284769549254,133.72744935412746,134.23718750471792,201.704322808746,204.2007012225681
0.3337783711615487,-0.1924006668581057,11.043660326867816,175.9814799257712,166.646057501669,133.78911506344127,135.62351377847048,202.0357798609029,203.2860794311244
0.3671562082777036,-0.1924006668581057,9.573762290691375,175.0608309800072,162.49033282876718,133.87030196518833,137.11648466474267,202.4360623739927,202.32731223318515
0.4005340453938584,-0.1924006668581057,8.806734347445946,173.74503776025037,157.6138954234265,133.96313069855333,138.68826503389144,202.9032370185245,201.34297342489936
0.4339118825100133,-0.1924006668581057,8.8237751260286,172.09842039192597,152.13496703228626,134.05972190272098,140.31101975627365,203.43537046500745,200.3516368024161
0.4672897196261682,-0.1924006668581057,9.706083255336443,170.18529900045922,146.17176940198596,134.1521962168759,141.95691370224628,204.0305293839505,199.3718761618843
0.5006675567423231,-0.1924006668581057,11.534857364266578,168.0699937112754,139.8425242791649,134.23267428020284,143.59811174216622,204.6867804458629,198.42226529945304
0.5340453938584779,-0.1924006668581057,14.39129608171607,165.8168246497998,133.2654534104626,134.29327673188646,145.2067787463904,205.4021903212536,197.5213780112712
0.5674232309746329,-0.1924006668581057,18.356598036581627,163.49011194145905,126.55877854251943,134.3261242111126,146.75507958527697,206.17482568063323,196.6877880934895
0.6008010680907877,-0.1924006668581057,26.232009973253565,162.26275135306935,122.06809827924307,134.37625818291488,148.17118774258142,206.91499666388296,195.8440234755686
0.6341789052069425,-0.1924006668581057,43.48831957845916,164.35005150756473,120.25584104363791,134.04165948360608,149.62096004885345,207.7117605520848,195.01051283055963
0.6675567423230975,-0.1924006668581057,62.04039690608946,168.4782294236801,115.79605472001504,133.57605742481306,150.5744475853248,209.0025472956956,194.3833527392672
0.7009345794392523,-0.1924006668581057,78.73897393740123,164.29762647370288,109.2468589724723,132.92609050071678,151.23556927997916,210.4999737412472,194.08093639631275
0.7343124165554072,-0.1924006668581057,94.01792334238704,160.53573742332892,102.63854187535549,131.97790383105112,151.33272870783912,212.4033047348224,194.3446714133605
0.7676902536715621,-0.1924006668581057,107.79882552007535,158.19775510431992,96.227628647231,131.14867957832843,150.9235816549976,214.486615201122,195.23807040331928
0.8010680907877169,-0.1924006668581057,119.60334565301766,156.33449070547542,89.93429237360532,130.36085418314252,150.36605266768726,216.33016310969936,196.557421957174
0.8344459279038718,-0.1924006668581057,129.5405040636683,154.32480787422773,83.07859276737896,129.74938459314214,149.62808816390574,217.8610369420876,198.02216554624
0.8678237650200267,-0.1924006668581057,137.9537513297841,154.17548402021052,84.42804086160459,129.09211927690157,148.9618394125435,219.3289310420029,199.4932395675704
0.9012016021361816,-0.1924006668581057,144.00710272932764,153.25716275442446,84.95993213551591,128.65018599974334,148.26937549784176,220.3827767613374,200.9059592647295
0.9345794392523364,-1.4986566761462683,149.80982390360296,153.08996220945963,85.80659665931836,128.3475323771775,147.37125826383678,221.043766239202,202.4066209043788
0.9679572763684912,-0.8919785094236516,155.15793617566575,153.10962184752165,87.83280419710863,128.0948165135635,146.34052741546694,221.3973887507691,204.0136311957631
1.0013351134846462,1.5133327124181903,159.2467684897984,147.05733940251827,81.31565272471587,128.10791005788795,145.19026192643992,221.1929894805986,205.58191472197075
1.034712950600801,1.5133327124181903,153.2077077156857,142.94618707664952,78.7608051088636,128.3890040242915,144.03119454677764,220.4677845840089,207.11876874302664
1.068090787716956,1.5133327124181903,148.70753328247758,139.50095216967733,77.4373288385967,128.8913317545113,142.78397948830684,219.3256134829087,208.652208587739
1.1014686248331107,1.5133327124181903,144.94433336193052,136.22655995398642,77.62232135985329,129.52696291244538,141.5923638047129,217.75889979851044,210.0565926887283
1.1348464619492658,1.5133327124181903,141.5351771618941,133.9644974892039,79.27288754814741,130.18686073572948,140.52137045877015,216.0382753656546,211.21066465333004
1.1682242990654206,1.5133327124181903,138.34167761500325,132.62311262796817,82.03106601755285,130.96532809878696,139.60785412205826,214.19433972471293,212.05858180018788
1.2016021361815754,1.5133327124181903,134.86515435946325,132.3890821279668,86.28916407631363,131.96181920256598,138.8910541809901,212.20253043051488,212.5619012573464
1.2349799732977302,1.5133327124181903,131.3422450723274,132.15353386544683,91.57669598837812,133.21524777041682,138.40005332932242,210.0013678946229,212.6195802084248
1.268357810413885,1.5133327124181903,127.8422190524715,131.68881497204484,97.8086195887776,134.68166964184115,138.2065698319966,207.56129196841343,212.2415758263284
1.30173564753004,5.602975868487661,123.90597849399288,129.97521617964597,108.23618920353668,136.3044738669942,138.2321843202861,204.9402759350384,211.5277816763701
1.335113484646195,11.262649837893164,118.82584675224278,128.437543908176,114.1576173065181,138.1607950597806,138.51076396939234,202.1890825430456,210.48364843843336
1.3684913217623498,18.37805349974316,113.85833794517956,125.8060407475022,118.82755909363355,140.13921591807855,139.02215559261782,199.3608383815194,209.1400087939124
1.4018691588785046,26.834885733145995,108.2486710295368,123.07129216978016,121.81872325535576,142.24226299034555,139.72490834756698,196.46800416421627,207.5535064167461
1.4352469959946594,36.51884541721013,103.03223544197591,120.90588803709568,125.20237703378416,144.54519595400987,140.51767618922253,193.3473131070575,205.73011400904943
1.4686248331108145,47.31563143104398,97.381311302155,118.31158362448568,129.012707973486,146.93147529206817,141.62990841692474,190.29334421042228,203.7069567325224
1.502002670226969,59.11094265375583,102.07847301541142,116.52125676440576,132.83171722504375,149.34926288318047,142.9315006705686,187.39449591661167,201.4405171067576
1.535380507343124,71.65099122689062,108.3783715388737,114.86840499985894,136.44856882720998,151.7669030663669,144.45090728978352,184.6979337854021,198.9526922851931
1.568758344459279,93.14701358756636,116.37484150270114,113.37063050107923,139.96074364552229,154.09555703312998,146.15308030821453,182.23393821949128,196.27123515344783
1.6021361815754338,113.17647521772204,126.1717540732556,112.03802740101554,143.24117554243003,156.32042703172715,147.99903732362694,179.9603917342293,193.42132662515863
1.6355140186915886,130.55827633745318,137.64795614233208,111.08261073930213,146.3489479162426,158.42667547333946,150.0155577662252,177.9291322454717,190.4369302225872
1.6688918558077437,146.35767459156745,156.45772034418252,111.20691938234673,149.5529888764425,160.06187988007645,151.8550138948078,176.87103821158715,187.4076793987831
1.7022696929238983,161.66727661388316,175.55380531329956,111.27320327543164,152.2721220941582,161.56915620847775,153.66948220764843,176.0238732895656,184.4480302001004
1.7356475300400531,174.4640987413328,194.49870857806064,111.21582490870628,154.43560198718373,162.9408232415959,155.43343343330403,175.37732573042325,181.60112046693092
1.7690253671562082,184.8043923138658,212.85492766684456,110.96914677232098,155.9726829733143,164.1691997624843,157.12133830033252,174.9210837851778,178.91008803966875
1.802403204272363,193.04902715740675,230.18496010803,110.46753135642618,156.812619470345,165.24660455419678,158.70766753729188,174.64483570484714,176.41807075870742
1.835781041388518,199.1341528164511,246.05130342999547,109.64534115117225,156.884665896071,166.16535639978684,160.16689187274008,174.53826974044898,174.16820646444071
1.8691588785046729,202.3345259830409,260.01645516111995,108.43693864670956,156.11807666828742,166.9177740823081,161.47348203523512,174.59107414300107,172.20363299726247
1.902536715620828,202.96555072376705,271.64291282978195,106.7766863331886,154.4421062047894,167.49617638481422,162.60190875333498,174.79293716352126,170.56748819756635
1.9359145527369823,194.4217239325406,280.4931739643601,104.59894670075973,151.7860089233721,167.89288209035874,163.5266427555976,175.13354705302729,169.30290990574622
1.9692923898531367,185.70581163397856,286.1297360932332,101.83808223957334,148.0790392418306,168.1002099819953,164.22215477058097,175.60259206253693,168.45303596219574
2.0026702269692924,177.31469848455737,288.11509674478,98.42845543977988,143.25045157796012,168.11047884277758,164.66291552684308,176.18976044306797,168.0610042073087
2.036048064085448,169.48419721208074,286.01175344737885,94.30442879152967,137.22950034955574,167.9160074557591,164.8233957529419,176.88474044563822,168.1699524814789
2.069425901201602,161.63736111632042,279.3822037294089,89.40036478497322,129.94543997441258,167.5091146039935,164.6780661774354,177.67722032126537,168.82301862510008
2.102803738317757,153.5693608495251,267.78894511924875,83.65062591026086,121.32752487032582,166.88211907053437,164.20139752888156,178.5568883209673,170.06334047856592
2.136181575433912,145.09321994704266,250.79447514527675,76.98957465754299,111.30500945509058,166.0273396384354,163.36786053583836,179.5134326957617,171.9340558822703
2.1695594125500666,135.50717623824104,227.961291335872,69.35157351697005,99.807148146502,164.93709509075012,162.15192592686375,180.5365416966664,174.4783026766069
2.2029372496662214,124.8399656336096,198.8518912194129,60.67098497869243,86.76319536235522,163.60370421053213,160.52806443051577,181.6159035746992,177.73921870196943
