Time,Left Shoulder Angle,Right Shoulder Angle,Left Elbow Angle,Right Elbow Angle,Left Hip Angle,Right Hip Angle,Left Knee Angle,Right Knee Angle
0.0,-19.593309175032005,-27.564541435446348,182.011964108647,144.9104229136449,157.21680335988265,205.39190061472385,186.6352376039398,178.50687342988437
0.0333667000333667,-14.647467549166636,-21.276117882707982,185.1554071281928,154.20224274031463,157.549317977142,204.6607583814973,185.6780155806304,178.52112479173687
0.0667334000667334,-8.903943290927762,-14.036771416653842,187.44488457164263,161.92767085979207,157.96626615500932,204.04990860728068,184.769264168179,178.3353278385629
0.1001001001001001,-2.4583913841496354,-5.970086171872303,188.94686023655865,168.18589289620832,158.46192489037966,203.55232917921325,183.9118690908012,177.97650028582726
0.1334668001334668,4.593533187333492,2.800353717048228,189.7277979205027,173.0760944736945,159.03057118014806,203.1609979844343,183.10871607271224,177.47165984899482
0.1668335001668335,12.156175439687368,12.15096411551936,189.8541614210368,176.69746121638164,159.6664820212095,202.8688929100832,182.3626908381277,176.84782424353045
0.2002002002002002,20.13388038907774,21.9581608889527,189.3924145357229,179.14917874840089,160.36393441045908,202.66899184329927,181.6766791112628,176.1320111848989
0.2335669002335669,28.43099305167035,32.09835990275984,188.4090210621231,180.5304326938833,161.11720534479178,202.55427267122195,181.0535666163332,175.35123838856512
0.2669336002669336,36.95185844363096,42.44797702235239,186.97044479779925,180.94040867696003,161.92057182110267,202.5177132809904,180.4962390775541,174.5325235699939
0.3003003003003003,45.6008215811253,52.88342811314196,185.1431495403133,180.47829232176207,162.76831083628673,202.552291559744,180.007582219141,173.70288444465012
0.333667000333667,54.28222748031912,63.281129040540165,182.99359908722727,179.2432692524206,163.65469938723908,202.6509853946221,179.5904817653093,172.88933872799862
0.3670337003670337,62.90042115737819,73.51749566995856,180.5882572361033,177.33452509306667,164.57401447085465,202.80677267276403,179.2478234402745,172.11890413550424
0.4004004004004004,71.35974762846821,83.4689438668088,177.9935877845031,174.85124546783135,165.52053308402856,203.0126312813091,178.9824929682519,171.4185983826318
0.4337671004337671,79.56455190975498,93.01188949650243,175.27605452998876,171.8926160008458,166.4885322236558,203.26153910739663,178.79737607345697,170.8154391848462
0.4671338004671338,87.41917901740423,102.02274842445117,172.50212127012227,168.55782231624107,167.4722888866314,203.546474038166,178.6953584801051,170.33644425761227
0.5005005005005005,94.8279739675817,110.3779365160665,169.7382518024656,164.94605003814826,168.4660800698504,203.8604139607565,178.67932591241174,170.0086313163948
0.5338672005338673,101.69528177645314,117.95386963676007,167.0509099245807,161.15648479069844,169.46418277020783,204.19633676230745,178.7521640945923,169.8590180766587
0.5672339005672339,107.925447460185,124.62696365194432,164.50655943403098,157.28831219802385,170.46087398460006,204.5472203299598,178.91675875086352,169.9146222538701
0.6006006006006006,110.5935782294808,125.45459784329138,163.55681288929063,152.9246387130129,171.67097701234434,205.34758579847707,178.9729166442024,170.71016070172516
0.6339673006339673,111.86525699720237,123.82738059800192,163.87305412909205,150.85747841999296,172.87013339771258,206.2593371771156,179.22383665580853,171.99340678651822
0.6673340006673341,112.95752258573371,122.19277192394904,163.6279947761994,148.94093456594294,174.05430457156635,206.98555523566185,179.75652187358844,173.53531234541646
0.7007007007007008,114.12617291553347,120.42721346643224,163.6807587115822,146.9967831129111,175.05334499935438,207.4064420901508,180.65643625074512,175.52739557716043
0.7340674007340674,114.76375753144198,119.2620444076231,162.80080208103763,144.62094232671907,175.84852683502615,207.41375046949287,181.7458026469997,177.80509080434447
0.7674341007674341,114.62901703912922,117.57218294992724,162.2999119811032,142.88305828932556,176.52323825281726,207.285001112541,182.90630528333625,180.3429563910598
0.8008008008008008,114.11294720621449,115.59137676599576,161.74990022900906,141.93101968438648,177.090992772403,206.9147317424844,184.138460286056,183.1680800637517
0.8341675008341676,112.76093455502912,113.7509271706784,162.2496378599678,141.1620900623718,177.61711767022953,206.3755917228501,185.35846943778145,186.1471343504555
0.8675342008675342,110.95686446533958,112.01204376913584,163.19996407727243,141.46656599782602,177.99523921612607,205.6962032431097,186.62748306358696,189.2161919219137
0.9009009009009008,103.30887161250222,102.90309963902114,166.40966272161342,143.04502245896532,178.1919098201849,205.43143136004403,188.3490238609185,192.9093817035952
0.9342676009342676,95.93992311061297,94.24809047311372,169.64728115287872,145.2168304744018,178.35958310980465,205.070019685052,190.0537183419229,196.5776666925979
0.9676343009676344,89.17490990376346,86.41710127333995,172.80312564121056,147.98618040974782,178.5101775762401,204.60236955787948,191.70872016072457,200.16010754191703
1.001001001001001,83.33872293604607,79.78021704162639,175.76750245675282,151.3572626306167,178.65561171074742,204.0188823182745,193.281182971449,203.59576490454936
1.0343677010343677,78.75625315155305,74.7075227798997,178.43071786964913,155.33426750262197,178.80780400458275,203.3099593059848,194.738260428222,206.8236994334916
1.0677344010677343,75.75239149437688,71.56910349008662,180.68307815004343,159.92138539137704,178.9786729490022,202.46600186075804,196.04710618516904,209.7829717817405
1.1011011011011012,74.6520289086097,70.73504417411384,182.41488956807945,165.12280666249535,179.18013703526196,201.47741132234216,197.17487389641587,212.41264260229283
1.1344678011344678,75.78005633834378,72.57542983390805,183.51645839390085,170.94272168159034,179.42411475461816,200.3345890304849,198.0887172160882,214.6517725481453
1.1678345011678346,79.46136472767147,77.46034547139611,183.87809089765136,177.38532081427542,179.72252459832694,199.027936324934,198.75578979831164,216.43942227229465
1.2012012012012012,86.02084502068483,85.75987608850458,183.39009334947485,184.45479442616409,180.08728505764446,197.5478545454373,199.14324529721185,217.7146524277376
1.234567901234568,95.78338816147654,97.84410668715994,181.9427720195152,192.15533288286977,180.53031462382685,195.88474503174257,199.21823736691448,218.41652366747093
1.267934601267935,109.07388509413911,114.08312226928926,179.42643317791598,200.49112655000587,181.06353178813023,194.0290091235976,198.9479196615452,218.48409664449133
1.3013013013013013,126.2172267627641,134.8470078368191,175.7313830948211,209.46636579318584,181.6988550418108,191.9710481607502,198.2994458352296,217.8564320117956
1.334668001334668,147.5383041114441,160.50584839167612,170.7479280403741,219.0852409780232,182.44820287612464,189.7012634829481,197.2399695420935,216.4725904223805
1.3680347013680347,173.36200808427168,191.429728935787,164.36637428471906,229.35194247013123,183.323493782328,187.2100564299392,195.7366444362624,214.27163252924265
1.4014014014014016,204.0132296253389,227.9887344710785,156.4770280979996,240.2706606351235,184.33664625167688,184.4878283414712,193.75662417186203,211.19261898537889
1.4347681014347682,239.81685967873813,270.55294999947745,146.97019575035932,251.84558583861343,185.49957877542755,181.52498055729177,191.26706240301803,207.17461044378595
