Time,Left Shoulder Angle,Right Shoulder Angle,Left Elbow Angle,Right Elbow Angle,Left Hip Angle,Right Hip Angle,Left Knee Angle,Right Knee Angle
0.0,26.140896756473246,41.44889987582704,172.57562705742052,170.99404608122435,134.89068318419766,145.60847797471197,212.91397567958424,196.9968235711929
0.0333667000333667,25.77086321348781,40.79978094449177,172.32066230645918,170.09224470025907,135.53294811602728,145.9748375012319,212.22521297129828,196.86051683319133
0.0667334000667334,25.45591022204036,40.25849609889337,172.11770314031048,169.39590773519265,136.03232847081955,146.299198780814,211.7159410128166,196.7336311121772
0.1001001001001001,25.19280581017089,39.81639549668319,171.9644643854014,168.8904017082526,136.39810419408565,146.58415303192473,211.37377790562,196.61659140934395
0.1334668001334668,24.978318005919384,39.464829295512594,171.85866086815892,168.56109314166636,136.6395552313367,146.8322914730305,211.18634175118896,196.5098227258852
0.1668335001668335,24.809214837325847,39.19514765303294,171.79800741501,168.39334855766143,136.7659615280838,147.04620532259776,211.14125065100427,196.41375006299435
0.2002002002002002,24.68226433243027,38.99870072689559,171.7802188523817,168.3725344784653,136.78660302983818,147.22848579909294,211.2261227065466,196.3287984218652
0.2335669002335669,24.59423451927265,38.866838674751904,171.8030100067009,168.4840174263054,136.71075968211093,147.3817241209825,211.4285760192965,196.25539280369108
0.2669336002669336,24.54189342589298,38.79091165425324,171.86409570439466,168.7131639234092,136.54771143041324,147.5085115067329,211.7362286907348,196.1939582096657
0.3003003003003003,24.52200908033125,38.76226982305096,171.9611907718899,169.04534049200427,136.30673822025622,147.61143917481053,212.13669882234203,196.1449196409826
0.333667000333667,24.531349510627468,38.77226333879644,172.09201003561364,169.46591365431797,135.99711999715106,147.69309834368187,212.61760451559888,196.10870209883527
0.3670337003670337,24.566682744821616,38.812242359141,172.25426832199287,169.96024993257782,135.6281367066089,147.75608023181334,213.16656387198609,196.08573058441732
0.4004004004004004,24.62477681095369,38.87355704173603,172.44568045745453,170.5137158490113,135.20906829414085,147.8029760576714,213.77119499298425,196.0764300989224
0.4337671004337671,24.702399737063686,38.94755754423288,172.66396126842562,171.1116779258459,134.7491947052581,147.8363770397225,214.41911598007405,196.08122564354383
0.4671338004671338,24.796319551191605,39.02559402428291,172.90682558133315,171.73950268530905,134.25779588547178,147.85887439643307,215.0979449347361,196.10054221947536
0.5005005005005005,24.90330428137744,39.09901663953749,173.17198822260406,172.38255664962827,133.74415178029304,147.87305934626954,215.79529995845115,196.13480482791047
0.5338672005338673,25.020121955661168,39.15917554764796,173.45716401866534,173.02620634103098,133.21754233523302,147.88152310769837,216.49879915269983,196.18443847004275
0.5672339005672339,25.143540602083032,39.19742090626605,173.76006779594547,173.65581828174618,132.68724749580403,147.88685689918717,217.1960606189645,196.24986814706733
0.6006006006006006,25.16365430121401,39.07810666426966,173.91696005501413,174.11625524156815,132.25477737318926,147.93192276256838,217.7310853792412,196.3418981156541
0.6339673006339673,25.203694853093538,38.88283289037197,174.15705447981355,174.45119174034696,131.8424288064962,147.92337271510877,218.32566723084503,196.472133981866
0.6673340006673341,25.269860856169416,38.63696275012538,174.44132411784258,174.7386263664436,131.4289793130631,147.9018863257839,218.89735441316296,196.64472340569648
0.7007007007007008,25.35231286213887,38.36190369014339,174.72805379782548,174.92970177458184,131.0256392827777,147.86367034486773,219.42551648421727,196.83559760391952
0.7340674007340674,25.45180912597337,37.99368128770356,175.06611439831332,175.02254024585346,130.62229030508422,147.8705776084284,219.9100127962504,197.03638331965965
0.7674341007674341,25.610871276458017,37.61165251599565,175.4254493254308,175.0423169258518,130.27258370871166,147.9066667597087,220.181965838613,197.2466481522256
0.8008008008008008,25.7797244921771,37.18829940316613,175.8396714725577,174.98475728100897,129.99673543000375,147.97804878793175,220.33161157918465,197.4622454001476
0.8341675008341676,25.99947184995451,36.826258848613165,176.37645397996076,174.9903885966779,129.80585092085832,148.0609264967825,220.3847060847538,197.69585893786143
0.8675342008675342,26.176241721822024,36.40018120764064,176.9428048547898,174.90806248668684,129.70323403973654,148.1754640293407,220.34086590526965,197.93174199214644
0.9009009009009008,26.28912872912776,35.910532421743625,177.49627635568297,174.72701732207466,129.89603887632956,148.3138040871019,219.93758402149743,198.1950799410596
0.9342676009342676,26.310930050791004,35.33508991776599,177.99430476162615,174.45208506264805,130.19927049861275,148.48798548722303,219.39109308823456,198.45788492012773
0.9676343009676344,26.25795829825777,34.70691513533634,178.48224132679448,174.13432615880316,130.4893599086707,148.68757341907087,218.87745822758995,198.72985555107
1.001001001001001,26.139641756010487,34.00758504949114,178.93922040157292,173.7329356805234,130.82373223646658,148.92251929955353,218.3309233219632,198.97759151440263
1.0343677010343677,25.97885981857877,33.285929645876145,179.33826020498444,173.2849642815736,131.1934787600473,149.18098548152162,217.7774957926953,199.18451813374372
1.0677344010677343,25.7958712461786,32.53653392414058,179.74652127675543,172.8058079499015,131.5018699122626,149.49400038309562,217.3042435960904,199.31586719020564
1.1011011011011012,25.58475264521812,31.90867224415682,180.15817811111097,172.45834195107642,131.6570814085006,149.81974198961552,217.0057023020229,199.3909985658825
1.1344678011344678,25.33562040708121,31.237868091124387,180.56911078323745,172.05035376519638,131.79322047330243,150.1731728725491,216.7447923274815,199.41230845188355
1.1678345011678346,25.085254278608897,30.58145751472013,180.9458093066416,171.54878367106687,131.86014831835908,150.53966825909586,216.5051599446089,199.3750768559125
1.2012012012012012,24.847001534646733,29.88070818018325,181.3694795713795,170.85312195581696,131.95897602130393,150.8988050223157,216.1985267632528,199.28895552382605
1.234567901234568,24.581092190930395,29.24818132423293,181.81103096568228,170.19089260179948,132.22627506403276,151.24272391727743,215.8349190205348,199.2137553258974
1.267934601267935,24.31409548804124,28.545826001713884,182.2852812698132,169.5510223921242,132.5518329208535,151.59754909234772,215.45858622520743,199.1022193317453
1.3013013013013013,24.07854310305476,27.75626498461904,182.8000370425888,168.8144595332398,133.08444593561256,151.95360677992358,214.94590846369803,198.96659412758447
1.334668001334668,23.84432511926324,26.903115369905784,183.35488784047092,168.0410651162582,133.6919220633073,152.3255917123315,214.4000551114489,198.7825778922858
1.3680347013680347,23.60082730667886,26.044615294660144,183.8353941879188,167.26985183800335,134.32837981848292,152.72747501873985,213.8640565112976,198.4927181373036
1.4014014014014016,23.33215192724624,25.18450405493818,184.3122210626493,166.6165908895099,134.89121948210538,153.12998447535972,213.3828755853208,198.12805029261528
1.4347681014347682,23.13003210889808,24.400893469254623,184.8303591888088,165.98043763414836,135.24121348230173,153.4916722415469,213.04910004742217,197.75140868686856
1.4681348014681348,22.94543256343437,23.570714592204325,185.43355394220828,165.33342969377165,135.47490293001252,153.90722982253166,212.7940047130672,197.32711233094875
1.5015015015015016,22.751539346637443,22.72615373376133,185.9240533051891,164.64518930992674,135.69458966251105,154.3377421600329,212.5141687374557,196.8443966785001
1.5348682015348682,22.54151607234424,21.744483950573017,186.3934872621153,163.86647329151498,135.89253979291044,154.80875941446084,212.22244674655903,196.32983434631367
1.5682349015682349,22.36854536499308,20.77868480109192,186.87567464950084,163.17759111292065,136.07020400866205,155.29374873458872,211.9444150980767,195.79126090966133
1.6016016016016017,22.175223268465995,19.659629011969155,187.41577807484776,162.43645569533214,136.2315696274182,155.768515465919,211.66260630984024,195.229789717752
1.6349683016349683,21.97102214660997,18.37219062669283,187.86163105329183,161.61738354303944,136.41411297305402,156.21336194997346,211.3496669739372,194.66428330337405
1.6683350016683351,21.719929710709707,17.036391852275433,188.34484727526788,160.81602656676426,136.52338731678253,156.60432633139118,211.12333112824035,194.12656245045892
1.7017017017017018,21.53405109965017,15.64384910862495,188.9529387501742,159.9657401491918,136.57901091787247,156.94674496929625,210.9918898848839,193.62615077278923
1.7350684017350684,21.33288059115634,14.22895876402155,189.6666439675508,159.09648617843675,136.52883267557664,157.26097118863004,210.9562105349895,193.15762908644524
1.7684351017684352,21.12002367008901,12.822877603061851,190.3411934255123,158.25857819357697,136.36886069667165,157.53490074533818,211.02806461775023,192.72373392114704
1.8018018018018016,20.784329674412795,11.517828246604854,190.93745225818995,157.57500444680568,136.1578001412255,157.812442273332,211.0932501194744,192.3245123101174
1.8351685018351689,20.298079388598687,10.327342042951766,191.94942870387845,156.9451976026877,135.94388478856277,158.07081203996768,211.1084947138354,191.9472123975346
1.8685352018685355,19.649576062216283,9.208851715840806,192.86876220104023,156.4026022590796,135.70954377512902,158.323686089557,211.01952283990133,191.5916819138782
1.901901901901902,18.588008828138648,8.105661280564686,193.5449388231553,155.83131281611452,135.43263616821497,158.53214703896978,210.8520437562861,191.28295529399844
1.9352686019352687,17.503936377519654,7.1875164750595175,194.09619674212692,155.29258503870673,135.11512501193795,158.69611286446687,210.788387869382,191.02408695936012
1.968635301968636,16.492718376450313,6.373244326072416,193.7752055119134,155.03990195328075,134.76857435439973,158.80992244348425,210.77372211226688,190.8299970714343
2.002002002002002,15.554530756497908,5.615598110221052,193.34374583907567,154.94372858063153,134.40494193384623,158.91741322746472,210.79251810708115,190.68224343001907
2.035368702035369,14.332229237992056,5.018702023141368,193.05054076666,154.94735852751967,133.99811145098244,158.98277148495922,210.9056006921452,190.5997089919281
2.0687354020687354,13.27189461586084,4.600266449142231,192.8060607630368,156.48009420559436,133.28229632975132,159.02515792719203,211.45085116126424,190.53871289540783
2.1021021021021022,12.395435959117703,4.389178369590089,192.23297224816525,159.07056358563418,132.32402239380346,159.0303211564204,212.3401375073417,190.50550636804235
2.135468802135469,11.732093673707595,4.35989294693597,191.79412178770232,161.20453937069735,131.29294657356033,159.0269452913439,213.3590457729638,190.46816607349623
2.1688355021688355,11.200469170147134,4.35989294693597,193.88730409793607,162.16737080904974,130.17029500038842,159.00873192541465,214.5123438716107,190.43377251980155
2.2022022022022023,10.81168619082015,4.35989294693597,195.3165691351641,162.3907337924723,128.9891655180685,158.99001160583552,215.7625063127404,190.4055427344265
2.235568902235569,10.767944638464684,4.35989294693597,196.7640540280873,162.68419834986523,127.77583162014427,158.92913854570455,217.06091016918447,190.43550921108
2.2689356022689355,10.603093665488617,4.35989294693597,196.8542122986587,162.0896182147494,126.7723098025216,158.86504269474335,218.1227417642569,190.5102423720772
2.3023023023023024,10.423710477613538,4.35989294693597,196.26804385409704,160.2372433228993,125.90489143690326,158.77215842421802,219.112315573773,190.6012876213747
2.335669002335669,10.508590983323282,4.35989294693597,195.3024645941283,160.1100401996503,125.28541194720988,158.66788353675918,220.00231688470112,190.7234848465405
2.369035702369036,10.846333864953095,4.35989294693597,194.1275895129756,158.47100118230813,124.89635436048862,158.5507016352372,220.89351814346145,190.8890582783048
2.4024024024024024,11.571597166043192,4.35989294693597,192.63837651229,155.61764684012394,124.58436335208036,158.43811569872656,221.75137828358035,191.0173926575809
2.4357691024357693,12.622325872142037,4.35989294693597,190.9838872352667,151.40454259856608,124.40843830402927,158.31293368995688,222.54455795164785,191.1229582721804
2.469135802469136,14.05156946455152,4.35989294693597,189.0896951862146,146.3688204393652,124.12863638389814,158.18497058589193,223.4425242216596,191.17516414069505
2.5025025025025025,15.907784813772206,4.35989294693597,186.9850903919426,140.7534976688326,123.8310239052509,158.04222049906102,224.3320619626496,191.18490386043368
2.5358692025358693,18.130386295941285,4.35989294693597,184.86586514380247,134.74747811088506,123.49184840795088,157.87082361599232,225.2288472931883,191.2026315333443
2.569235902569236,12.296695686370027,4.35989294693597,182.3411819526848,128.23022174670226,123.13573539699136,157.68524030608785,226.10007061640573,191.22489683205845
2.6026026026026026,9.38840014400029,4.35989294693597,179.77510409168457,121.5655660794,122.92607747878525,157.55685783313538,226.82340484748795,191.17780635970288
2.6359693026359694,9.0797077625827,4.35989294693597,177.3472158422967,114.66709628483736,122.92673888924234,157.47452067201488,227.43368814660377,191.0735571581172
2.669336002669336,11.235185149450151,4.35989294693597,175.0233408210995,108.36119163385771,122.95530499935248,157.43372887142024,228.05404240589183,190.9595449535283
2.702702702702702,15.639156023389107,4.35989294693597,172.8306730828149,102.22820353013536,123.04937939029678,157.42220613644406,228.64535054750053,190.83639744802005
2.736069402736069,21.967621718991893,4.35989294693597,170.8208487434514,96.2576343592884,123.17953844159354,157.42211392474593,229.1943014402655,190.71351999546064
2.7694361027694363,30.04815689149232,4.35989294693597,169.0092405310996,90.62500229291838,123.372071842984,157.43449745954936,229.67902850316835,190.58500651268025
2.802802802802803,39.65179903977551,4.35989294693597,167.40397437411684,85.37106911608615,123.536600775575,157.464791615857,230.16880783497933,190.4527230889319
2.836169502836169,50.65737041041977,4.35989294693597,165.9291927866799,80.46857254763376,123.6931682439007,157.50504803506732,230.62751210740487,190.3222835164419
2.8695362028695364,62.68289269129591,4.35989294693597,164.4916784605796,76.09800906761592,123.83477493930988,157.55516568419415,231.02912164592803,190.1854357188228
2.902902902902903,75.58974424736157,4.35989294693597,163.10565002633825,72.19200061322178,123.97245057592303,157.6046368425739,231.35361172065785,190.033249896797
2.9362696029362696,89.13032984494536,4.35989294693597,161.87923859810294,68.84836150891233,124.09572432971122,157.64745092182312,231.60939750726249,189.8829043809011
2.9696363029696364,103.16812803823538,4.35989294693597,160.88143478354846,66.0415076339569,124.20652364291897,157.60923492586122,231.796166489002,189.76909542765767
3.003003003003004,117.5676436696418,4.35989294693597,159.5766971937546,63.88129583849519,124.24800396812356,157.5703637072371,231.989193898099,189.6757273054711
3.0363697030363697,132.09299954639312,4.35989294693597,158.57987930798743,62.39277906877204,124.19156108803408,157.5555828352544,232.2161563013028,189.5873021998485
3.0697364030697365,147.10885790372026,4.35989294693597,157.87839319785002,61.86934785510545,124.07869179768744,157.58120915557996,232.52796188348955,189.51378532737712
3.103103103103104,170.322908201901,4.35989294693597,157.48111036211785,61.69510566711891,123.8772552829696,157.87902633210751,232.80268217399512,189.45722526203863
3.1364698031364697,191.37672205384,4.35989294693597,158.63090955929775,62.635976334745976,123.68653999544244,158.16758150800942,233.12793485723748,189.410792916222
3.169836503169837,209.44494296339545,4.35989294693597,159.47582452319017,64.63793208087961,123.55507365288824,158.53114917199406,233.31112182690867,189.4017083415189
3.2032032032032034,225.08204486363005,4.35989294693597,160.13608809401305,68.29863608156913,123.38891150978228,158.82040835244948,233.5603861977686,189.41873590130567
3.2365699032365702,238.1428344850904,4.35989294693597,160.42294253879933,74.97942702938542,123.04664939844926,158.6384765241239,234.00983497777216,189.3153914509968
3.2699366032699366,248.7756474488092,4.35989294693597,161.67024021361703,79.21828663043586,122.91751023519464,158.4398515064467,234.51278766548785,189.22564596398848
3.3033033033033035,256.86661489951285,4.35989294693597,163.40186272430458,81.79153645241173,122.92799680227432,158.34294552593133,234.8941965250108,189.20333290323995
3.3366700033366703,262.03904964402886,4.35989294693597,162.33375501244404,84.68297223710343,123.0880512132636,158.36307598421104,235.1925945227657,189.30576891196745
3.3700367033700367,264.6592937454,4.35989294693597,158.9552960422354,87.42949561400987,123.31994716832264,158.38644965819586,235.367527247012,189.4377065097015
3.4034034034034035,264.20044056077154,4.35989294693597,155.11348985207084,88.88555864211334,123.6350579690083,158.2419671262923,235.4575400854901,189.6825384037997
3.4367701034367704,261.76895718108153,4.35989294693597,153.2634094316229,89.78484217491336,124.24614880990389,158.11615981540825,235.53537002723763,190.05709236552568
3.4701368034701368,256.92466767565355,4.35989294693597,151.86564234919854,91.46676703857564,124.87523210635904,157.94276344930418,235.71275871346296,190.57036952274444
3.503503503503504,248.92148203643137,4.35989294693597,150.06199501129035,86.28836569451013,124.39612222376115,157.94756045840415,237.9588556231652,190.7466013817356
3.5368702035368704,238.13834164984928,4.35989294693597,148.73676637560956,81.73954897628637,124.43935266679364,157.92904079586876,239.0760091660824,191.01920206689152
3.5702369035702373,224.4532328686172,4.35989294693597,148.0031338425652,78.8279187392735,124.22267509862895,157.48133484420248,240.35822375398044,191.76296610197625
3.603603603603604,208.1019325445804,4.35989294693597,147.6575494296887,76.91530402690455,124.37404137005792,156.953871229555,241.03398834797468,192.7141389524136
3.6369703036369705,188.57750310306133,4.35989294693597,147.32909388568115,75.9815437149512,124.79096280719894,156.33745177668095,241.0748200532201,193.8880058565572
3.670337003670337,166.4187806456542,4.35989294693597,147.40226270743685,75.59383545084317,125.45893214080274,155.74616589865366,240.66426179369856,195.1799975203593
3.703703703703704,141.49878902323644,4.35989294693597,147.87131437756338,75.61228642764912,126.34219638584578,155.2334087055893,239.96645204293088,196.4805639538399
3.737070403737071,125.1861293442082,4.35989294693597,148.99623705280976,76.2451278485319,127.38013937635095,154.77959667501986,239.05782797983144,197.8197237902218
3.770437103770437,108.84346291813812,4.35989294693597,150.1424623451145,77.02689860387729,128.69701428463628,154.4469097977236,237.92736875893223,199.13069954595647
3.803803803803804,93.11279384176537,4.35989294693597,151.4019408375143,78.54635757740414,129.68907371456174,154.15903837202487,237.24409331531496,200.4760775114996
3.8371705038371706,78.36868243063823,4.35989294693597,153.46576689357994,79.91005273932815,130.82972404194788,153.96746976820864,236.05197340197256,201.87077404614848
3.8705372038705375,64.60170590478667,4.35989294693597,155.7989489972883,81.67325429842374,132.01223730030893,153.82517539528357,234.5509900067944,203.20706451499024
3.903903903903904,52.41778172121861,4.35989294693597,159.12797573081647,83.66363490212771,133.2448444162885,153.7666197163275,232.75911826221488,204.55157382053824
3.937270603937271,41.50654930329513,4.35989294693597,162.55373152430363,85.88474941900479,134.5313327309393,153.66078883415315,230.69573476655407,205.89054336039527
