Time,Left Shoulder Angle,Right Shoulder Angle,Left Elbow Angle,Right Elbow Angle,Left Hip Angle,Right Hip Angle,Left Knee Angle,Right Knee Angle
0.0,19.921634371117484,36.27017701906112,167.02194805795924,163.7037797374212,119.56081625449904,116.98282951032412,210.21650393850825,213.4059115838108
0.0333667000333667,24.25843288125621,35.867976887815374,165.18411785249393,163.2327227253832,119.64653271900544,117.20469147731322,210.2082477883248,213.2755685098764
0.0667334000667334,28.17973771348425,35.512311535045484,163.43872922938442,162.83319786485748,119.73035087443392,117.39760591677113,210.2083655363277,213.15308971883204
0.1001001001001001,31.702129439481133,35.201301687935945,161.78878947356392,162.5010037769018,119.81140602251118,117.56300490766228,210.21644326973737,213.03840758564968
0.1334668001334668,34.84218863092636,34.93306807367123,160.23730586996567,162.23193908257394,119.88883346496397,117.70232052895118,210.23206707577424,212.9314544853013
0.1668335001668335,37.61649585949944,34.705731419435814,158.78728570352288,162.02180240293166,119.96176850351895,117.8169848596023,210.2548230416587,212.83216279275905
0.2002002002002002,40.04163169687989,34.51741245241419,157.44173625916875,161.86639235903277,120.02934643990292,117.9084299785801,210.28429725461123,212.74046488299484
0.2335669002335669,42.13417671474721,34.36623189979083,156.2036648218365,161.76150757193503,120.09070257584256,117.97808796484904,210.3200758018522,212.6562931309808
0.2669336002669336,43.91071148478093,34.250310488750216,155.07607867645936,161.7029466626962,120.14497221306462,118.0273908973736,210.3617447706021,212.57957991168885
0.3003003003003003,45.38781657866055,34.16776894647684,154.06198510797054,161.68650825237413,120.1912906532958,118.05777085511828,210.4088902480813,212.5102576000912
0.333667000333667,46.582072568065584,34.11672800015517,153.16439140130328,161.70799096202654,120.2287931982628,118.0706599170475,210.4610983215102,212.4482585711596
0.3670337003670337,47.510060024675525,34.09530837696969,152.38630484139077,161.76319341271122,120.2566151496924,118.06749016212576,210.5179550781093,212.3935151998664
0.4004004004004004,48.18835952016992,34.101630804104886,151.73073271316625,161.84791422548597,120.2738918093113,118.04969366931752,210.57904660509905,212.34595986118336
0.4337671004337671,48.633551626228254,34.13381600874523,151.20068230156292,161.95795202140854,120.2797584788462,118.01870251758724,210.6439589896997,212.3055249300827
0.4671338004671338,48.86221691453004,34.189984718075216,150.79916089151402,162.08910542153671,120.27335046002383,117.97594878589942,210.71227831913188,212.2721427815364
0.5005005005005005,48.89093595675479,34.268257659279314,150.52917576795275,162.23717304692832,120.25380305457097,117.9228645532185,210.783590680616,212.24574579051645
0.5338672005338673,48.73628932458202,34.366755559542014,150.39373421581234,162.3979535186411,120.22025156421424,117.86088189850898,210.85748216137227,212.2262663319949
0.5672339005672339,48.41485758969159,34.48359914604807,150.39584352002728,162.5672454577341,120.17183129068148,117.7914329007363,210.93353884862304,212.2136367809456
0.6006006006006006,48.14816247759595,34.730375007965776,150.43987278050224,162.9997384608207,120.10137691064004,117.72107497717636,210.9983272817924,212.1996781858068
0.6339673006339673,47.88728260859867,34.962971727286266,150.98459904791272,163.34595409788145,120.00784457045278,117.62698585954418,211.0672630529645,212.1986061806976
0.6673340006673341,47.3452444755464,35.11352885433912,151.41177015965928,163.52318189206227,119.85245930641834,117.51050087000036,211.1564129444989,212.2194361202503
0.7007007007007008,46.59509544592894,35.17479564189459,151.90588906958877,163.5772403233151,119.67411240533464,117.41551739213838,211.24086899908045,212.22741546791733
0.7340674007340674,45.688787468321735,35.23538344722821,152.55084144488313,163.59202353554173,119.4743247510812,117.33468924270784,211.346689095364,212.2403755540529
0.7674341007674341,44.68927993164744,35.306341908144574,153.45258280364754,163.56586070041163,119.2733604302266,117.29171566458707,211.4400905812345,212.24401309720776
0.8008008008008008,43.61525099776232,35.389960185822304,154.68891103149363,163.49097845869508,119.07598182731952,117.25507024137914,211.5063991415353,212.25053835419348
0.8341675008341676,42.3811903921198,35.508815376446094,156.11893838081727,163.37573016469787,118.8497351589278,117.21693462220148,211.5673509957828,212.2812937851332
0.8675342008675342,40.91694571050039,35.70893316280969,157.5335023362857,163.44764955558028,118.64960226896784,117.1878445567082,211.59106363033257,212.33159916817576
0.9009009009009008,39.71798302200199,35.88994091884582,159.348274042963,163.3734055672939,118.48049212855624,117.16618743578528,211.5810015068972,212.3846023365883
0.9342676009342676,38.636023057753455,36.026819210814864,161.360559836033,163.1560497632274,118.2684200227242,117.1255680426448,211.55542256869413,212.4464254815637
0.9676343009676344,37.73875353595752,36.332311262090535,163.74871006603558,162.9219078912425,118.0442592871418,117.01917762775452,211.53327162632112,212.51756257610225
1.001001001001001,37.334129530778654,36.60669350749555,165.48121449694608,162.46591229532388,117.86388357358824,116.93998728971486,211.5062303455928,212.60143694135928
1.0343677010343677,37.178086319023606,36.63473354703814,167.16574263610235,161.53452650432172,117.73282863611676,116.896843494218,211.47687769381585,212.691969399042
1.0677344010677343,36.89798736235083,36.67192075739611,169.3824856155316,160.64799526407705,117.58064510979068,116.88980150262664,211.48412542623632,212.7964823721223
1.1011011011011012,37.35592102301965,36.80013652538504,170.2844587963722,159.95171861446144,117.4204385345612,116.90871908219404,211.53058011367065,212.910468708164
1.1344678011344678,37.96246052655091,37.0096720093586,171.72046068548525,159.39912279819862,117.2563744288065,116.95885699231988,211.61766609531844,213.04122771152697
1.1678345011678346,38.65043137402641,37.2305380015033,173.1077509357225,158.9426579002022,117.08062783041642,117.05378005236923,211.739828590815,213.17021944606407
1.2012012012012012,39.42572090890572,37.46129991688826,174.42156724597407,158.52771206112683,116.8874282471852,117.18507563269635,211.9056434873003,213.2991191931032
1.234567901234568,41.06820267746878,37.70537184528991,172.5717020681398,158.28392121237536,116.66225168811462,117.34242147321014,212.12001211916788,213.42973308689795
1.267934601267935,42.80697036182973,38.04362336159903,171.8592550011984,158.17492894469785,116.46022298061357,117.52033079802406,212.35153347318453,213.57697046038865
1.3013013013013013,43.632710990869214,38.46409592669422,171.44143021580987,158.5066052555906,116.25169651821908,117.70970125582303,212.61206990549027,213.74403453794133
1.334668001334668,44.37617293017766,38.805023132335606,170.76956600159127,158.5430198385812,116.019491783395,117.90438497570256,212.91870924066475,213.9349017432948
1.3680347013680347,45.12704978284467,39.104262628547446,170.7299060015465,158.80340648470184,115.75422573585088,118.09771214979864,213.3031588162271,214.14639357726472
1.4014014014014016,45.95668187315521,39.25306916446935,171.94607628936606,159.25007333519042,115.43088119397508,118.2951885984501,213.74400573863545,214.36514446768803
1.4347681014347682,46.71210539704532,39.38258773852674,173.62963453695005,160.70064786122109,115.13816357376994,118.49998146154488,214.2111754982084,214.5850281348023
1.4681348014681348,47.447712916114654,39.26988190594716,175.6182523211129,161.65297975249177,114.88339725136731,118.71508576040168,214.66429563796336,214.8050043203087
1.5015015015015016,48.08830599755749,39.16646127828143,184.09807591349715,161.70731374020528,114.62808335170952,118.9630611518925,215.1580776778673,215.02414739431973
1.5348682015348682,48.55073477165079,39.07813573274955,190.5559846249029,160.7632004921164,114.34917536204382,119.21142320189132,215.7068592728591,215.2430273386365
1.5682349015682349,48.68729244754259,38.89297766110373,195.8754669094964,158.79189534548087,114.08775306065066,119.46186019553068,216.3077196715219,215.45043866326668
1.6016016016016017,48.37768796891199,38.592018357313,199.3883730240429,154.68892680587712,113.81458505020616,119.69582014230124,216.9620794275788,215.64234976391032
1.6349683016349683,47.843256616689,38.333170107602704,201.67502884834423,149.66114857662268,113.51807983985805,119.92982971389544,217.6670543607235,215.8267328530464
1.6683350016683351,44.51689306337282,38.149958626782016,206.69257537375992,146.67857515528465,113.24907392572172,120.17298613435668,218.3882918400598,215.9899762947828
1.7017017017017018,39.74593418377994,38.09178370908776,199.93597934454505,143.6231037591952,112.98047826246948,120.39192432159868,219.1438734994689,216.14315010904107
1.7350684017350684,37.04036136193759,37.83999044903821,203.7777798876,143.20372524616585,112.7647468650904,120.56314593155558,219.9239379043632,216.29254520026143
1.7684351017684352,34.27934197964203,37.48094516336665,195.3816393188548,140.52663820279912,112.58627923987086,120.73440896005988,220.71741560448493,216.42354473332995
1.8018018018018016,33.14731900752231,39.239295460196686,195.099316583028,137.3908544672914,112.4496549420112,120.920390812523,221.505585823218,216.5230385115774
1.8351685018351689,31.819308322507982,40.99350815607615,188.0782163721516,133.73250564112988,112.38812471551957,121.1698000919358,222.27209922313816,216.5741833716164
1.8685352018685355,29.622799155381724,39.58188517600264,184.5642853187604,126.29526966476676,112.35169653047107,121.41617152472044,223.0048486181016,216.6072761444884
1.901901901901902,26.00468219503773,38.76836082476967,184.12645921774063,119.79783100878606,112.3412430158062,121.66513095580484,223.6438594168877,216.6162899375408
1.9352686019352687,25.408586097051536,37.393310882899314,183.4923193014885,112.95060498173017,112.2923073280772,122.1210132017476,224.18287900172533,216.6363652903088
1.968635301968636,27.905418063413947,29.200483632146817,181.178493169826,109.00449086889714,112.37703150465424,122.37132422455312,224.694005336904,216.6484749402645
2.002002002002002,31.22915962352169,32.429123779036345,177.99322695116504,104.81479552684608,112.66918720294125,122.5093378999654,225.1474307956653,216.63358899326352
2.035368702035369,35.94255505266993,34.781616452169,177.42234840432712,98.50146733002488,112.9614948399946,122.55572349364228,225.5579304689588,216.5896106718015
2.0687354020687354,41.44908958932312,30.79822438967401,177.22495930814603,94.42483685752252,113.4868947695215,122.39990415087924,225.9572241246164,216.53222066735984
2.1021021021021022,48.37819803178182,30.403206843212352,176.71186851774038,89.79362074462809,114.1635636931087,122.21052982139362,226.3506182136479,216.4699082290172
2.135468802135469,56.99196673449994,31.76722209244469,175.49296668201671,84.66182487517568,114.87319311824837,122.1280480417238,226.71959327789588,216.39493562830424
2.1688355021688355,66.9960084485073,34.56718545824809,173.79729911974366,81.49825667091521,115.5420690087652,122.08167180179233,227.07655137761896,216.30891100179744
2.2022022022022023,78.17563341355712,39.24535891961366,171.81270498446287,82.74088515596662,116.14968052881346,122.049557261135,227.4400180823244,216.2217859570468
2.235568902235569,90.11814669848442,45.48337553383119,170.3326450467101,79.87474190787164,116.75120262298717,122.04132730812285,227.7740745342918,216.13016418410825
2.2689356022689355,102.60781017957322,53.038681655477234,169.07330799740834,77.13326169423658,117.31849971185848,122.06232451190972,228.08440995761,216.04378021919908
2.3023023023023024,115.5236684761392,61.84810994987284,168.05442033334342,71.89458826755913,117.8523303975284,122.10900464394564,228.35518785337555,215.9564735912164
2.335669002335669,128.79906230456393,71.55109676979643,167.17347948715852,71.6328352119812,118.36169258230656,122.16127655694602,228.5878405066997,215.87904630653648
2.369035702369036,142.48751298950646,81.45489715575009,166.14476742305862,72.71422036019239,118.83612200509836,122.24661023091237,228.77080693714228,215.81122411470568
2.4024024024024024,156.17302176679385,92.00010744961136,165.96288826591925,74.7876512624487,119.29725166716923,122.34196445916972,228.89536205116383,215.7547625471676
2.4357691024357693,170.3340604773974,102.68502586937296,166.2046972152432,77.93420596284767,119.56268816855096,122.47054512560592,228.999934306994,215.70063899805584
2.469135802469136,184.1068310329562,114.26428076013408,168.4572862354691,80.82428937584447,119.84511075265748,122.63674807328296,229.0882132208412,215.61420303417265
2.5025025025025025,197.36931039296343,127.79349183419323,172.4150427362948,82.87900456837241,120.1959201728611,122.79577771829446,229.16579708629752,215.55003334994475
2.5358692025358693,209.2702695149933,141.28019452760444,177.5985271204282,86.68732663243044,120.53778297029174,122.9695352864528,229.1856941006256,215.5069610916165
2.569235902569236,220.0671267988111,160.10249134934506,183.60425163304848,89.12456840491345,120.78348085559692,123.27353508863987,229.1417285408435,215.4728876704609
2.6026026026026026,229.3761197897284,176.57870632798748,194.68705990039584,90.54582353753833,121.08432214497832,123.53035273825247,229.0871566454363,215.47024452329688
2.6359693026359694,247.98146273919795,183.94773083460623,201.34956976101645,94.42114351894568,121.46089173015164,123.73331032372096,229.0926396548663,215.51350031656585
2.669336002669336,253.34523088892112,198.07734348326863,202.09345226953127,93.64120991623189,121.54262509346422,124.15735173762012,229.04732282697063,215.62906604206907
2.702702702702702,265.8625077694924,210.81606709381296,202.11604782993243,92.02633493811553,121.61772045490176,124.35774203634551,229.0646907892161,215.7807523763472
2.736069402736069,272.07752177819,225.6893947042916,196.77587456460628,96.53613263227996,121.70215426741356,124.30408651996729,229.14049935397,215.9848839403181
2.7694361027694363,275.07039269335417,236.54996234088972,199.11191937806024,103.81943728319656,121.80509725778016,124.12262177222378,229.2552516745421,216.21007751921752
2.802802802802803,274.08496279596403,244.86928213218235,200.08323855537955,111.59382051613328,121.94977521386056,123.91700440253211,229.38318304856887,216.4533185629704
2.836169502836169,272.18445232893225,250.32292296442407,187.19727895673003,116.52982880872136,122.06574574297107,123.75773453916396,229.5094924591797,216.7569984950741
2.8695362028695364,269.1748912305449,252.6890980678465,184.1532507638286,120.2726811808477,122.05451896107864,123.61111491284991,229.63065225870145,217.1433792609265
2.902902902902903,262.1763717650375,252.7318505915628,173.12876159295394,119.98059845004914,121.84919434666242,123.4983713439009,229.8384404959196,217.59465789948703
2.9362696029362696,253.43458264527305,250.04822626124133,174.4294659634297,119.1826841814016,121.46412661092222,123.39608957250772,230.06929361006232,218.1316902117317
2.9696363029696364,241.51782554460468,241.87606995766373,168.79024542553014,116.9862684111861,120.9903063925336,123.30523951781218,230.2569816207613,218.71032103892315
3.003003003003004,228.43525179341216,229.8812746436671,170.93546132227655,114.0193861210444,120.44340292637548,123.13274067882988,230.3874902645856,219.33163101988893
3.0363697030363697,215.65120306016385,217.8666594060116,171.51797223774568,114.15971697660824,119.83270422369414,122.96810485686548,230.4450710341605,219.9648169156396
3.0697364030697365,205.41618726556905,203.25864027892703,169.5601046796958,114.23583063107806,119.32306279955604,122.80611794514118,230.31288930571063,220.5676020455871
3.103103103103104,193.9246338930145,187.4336079349789,167.37477448392906,115.83900784942718,119.00718244347134,122.3478868289718,230.1117438142103,221.13058792910195
3.1364698031364697,180.54474444666187,179.45879057569235,166.99632749109335,114.75843134483738,118.73357782186083,121.9294707714736,229.80589138220304,221.73441421981207
3.169836503169837,167.22659354437738,160.63896162740676,168.21684737317895,113.51596234120557,118.51560250627055,121.50854028760124,229.30180725626948,222.3821599934037
3.2032032032032034,154.2330549412255,140.64797428235514,168.58970953233842,114.42975611313813,118.5505362752288,121.04168434448428,228.5861700253215,223.04505491520572
3.2365699032365702,141.83105363921328,127.08696204985756,168.03945170056917,112.90806951431532,118.61675876550308,120.87477170652056,227.50810119100748,223.6060954116126
3.2699366032699366,130.09600041805504,112.50534207345672,167.5670337183155,112.36142004798351,118.75677594767922,120.92661066382853,226.1588113877991,224.0377813516849
3.3033033033033035,117.95115386260667,98.87802935482398,166.5488792982175,113.00562084974442,118.89284003418152,120.8385390653989,224.6228723864638,224.70071540874773
3.3366700033366703,106.13261799537568,85.29689303267709,166.6204133650175,113.57687776078691,119.2952660602326,121.08122989680702,222.81320048128143,225.02364198132884
3.3700367033700367,94.26447268122584,72.24175447659242,166.81602974788572,108.73924250265723,119.8747404238738,121.52374457155184,220.83042963682743,224.9778790635868
3.4034034034034035,82.84931170806742,59.86929838165977,167.12567408687607,108.2965731718106,120.57649995415476,122.19749928707198,218.83992625131097,224.55239335545733
3.4367701034367704,71.9587922570636,48.65281736968322,167.16503536099296,108.41280735536768,121.43341234094318,123.02807155839191,216.639875687199,223.7526690018856
3.4701368034701368,62.449856657463485,38.55077682994736,167.5817573736975,116.0744941814,122.39613378071525,124.056254694104,214.31339909352536,222.6818992972804
3.503503503503504,53.83784790982599,29.87439151727844,167.98864621077223,122.91005099950382,123.46109814227248,125.19186176210516,211.92905964009543,221.3385093557721
3.5368702035368704,45.990089602260575,23.50082654579718,168.6445873967062,128.52619705846584,124.50431203516985,126.27232541259148,209.53748013271112,219.8195865363247
3.5702369035702373,39.65809990129416,19.05527836982248,169.10927735608234,131.99495551724308,125.68794911819596,127.50334847943884,207.17030529738904,218.0679522976528
3.603603603603604,33.9769660645287,14.437410062630654,169.61313281128653,132.38683745908867,127.13261674570572,128.7976761120088,204.85746662837155,216.08561234787484
3.6369703036369705,29.811094792729666,12.072179064166376,170.04878975687362,122.55096030599604,128.58650999814722,130.17423777054623,202.7024139406292,213.90592300598465
3.670337003670337,26.995296808185564,11.022152355307284,170.76041957895657,117.02095161176672,130.0173420027169,131.61539698646337,200.44317610526664,211.5925524789304
3.703703703703704,25.458189685869023,13.281886703111969,170.22511792736094,111.77540284508284,131.49894903612264,133.02396066736472,198.14063660921764,209.20116195676155
3.737070403737071,27.69157629798922,11.139478919590251,169.12382529586137,110.42244004992752,133.1004683223124,134.26806905242066,195.95934604509577,206.7885430101782
3.770437103770437,33.64863820471347,11.026952297752151,162.04645554170676,111.06056857878929,134.64094109247992,135.38436321970457,193.85739770942607,204.398368299266
3.803803803803804,28.58006094261931,22.066164884131624,159.91400827331597,109.9931676363301,135.9605832788708,136.4827591750511,191.84285739125065,202.03575799408
3.8371705038371706,34.56814873455204,28.711169756635243,156.6423783595993,114.98471764219096,137.45627357688016,137.26820986921118,190.05997378716808,199.635419293513
3.8705372038705375,31.20839591370642,36.48595116093595,153.0063306779913,124.14201484922027,138.90436326340026,137.97424113690988,188.43207784603985,197.3032975390444
3.903903903903904,29.507277479024133,45.03907847233619,155.92968753063406,137.4578072923369,140.22547207670075,138.73832902683822,186.98223434435064,195.06266683101992
3.937270603937271,26.510225968636384,54.01228861687274,151.54736813930828,147.87838079406768,141.3514891162272,139.49733143920224,185.72790257738515,192.99684839645485
