Time,Left Shoulder Angle,Right Shoulder Angle,Left Elbow Angle,Right Elbow Angle,Left Hip Angle,Right Hip Angle,Left Knee Angle,Right Knee Angle
0.0,33.3096935923493,34.66982778251656,166.50948809564198,159.3504443140739,145.74701867307607,139.88863850360624,209.58110004704187,212.271233659871
0.0333667000333667,33.8390690297842,34.80007680156412,167.28282741180217,159.81770483243605,145.51078158345555,140.22213223837423,209.485226191886,212.28500715482951
0.0667334000667334,34.33628208844066,34.94406487193667,168.0160942040476,160.2758539941101,145.296820969577,140.52159060863156,209.40064144626567,212.2943891067517
0.1001001001001001,34.80211376351287,35.09972751524664,168.7101538057675,160.72322912893384,145.10427859409316,140.78871152649555,209.32656406264064,212.29965867473268
0.1334668001334668,35.23734505019502,35.26500025310647,169.3658715503511,161.1581675667451,144.93229621965688,141.0251929040835,209.26221229347072,212.3010950178674
0.1668335001668335,35.64275694368129,35.4378186071286,169.98411277118754,161.57900663738164,144.78001560892093,141.2327326535127,209.2068043912157,212.29897729525084
0.2002002002002002,36.019130439165885,35.61611809892545,170.565742801666,161.9840836706813,144.64657852453809,141.4130286869005,209.15955860833543,212.29358466597805
0.2335669002335669,36.36724653184299,35.79783425010945,171.11162697517574,162.3717359964818,144.53112672916117,141.56777891636418,209.11969319728968,212.28519628914407
0.2669336002669336,36.68788621690678,35.980902582293055,171.6226306251059,162.74030094462094,144.43280198544292,141.69868125402107,209.0864264105382,212.2740913238439
0.3003003003003003,36.98183048955147,36.16325861708869,172.0996190848457,163.08811584493657,144.3507460560362,141.80743361198844,209.0589765005408,212.26054892917253
0.333667000333667,37.24986034497123,36.34283787610878,172.5434576877843,163.41351802726643,144.28410070359377,141.89573390238365,209.0365617197573,212.244848264225
0.3670337003670337,37.49275677836027,36.51757588096577,172.9550117673109,163.71484482144837,144.23200769076837,141.96528003732394,209.0184003206475,212.2272684880963
0.4004004004004004,37.71130078491275,36.68540815327209,173.33514665681471,163.9904335573201,144.19360878021288,142.0177699289267,209.0037105556712,212.2080887598815
0.4337671004337671,37.90627335982288,36.844270214640176,173.68472768968493,164.23862156471947,144.16804573458003,142.05490148930917,208.99171067728813,212.1875882386756
0.4671338004671338,38.07845549828485,36.99209758668246,174.00462019931075,164.45774617348425,144.15446031652263,142.0783726305887,208.98161893795816,212.16604608357355
0.5005005005005005,38.22862819549285,37.12682579101138,174.29568951908132,164.64614471345223,144.15199428869346,142.0898812648826,208.97265359014105,212.14374145367043
0.5338672005338673,38.357572446641065,37.24639034923936,174.5588009823859,164.80215451446122,144.15978941374533,142.09112530430815,208.9640328862966,212.12095350806123
0.5672339005672339,38.46606924692401,37.34872678297913,174.79481992261492,164.9241129063504,144.17698745433222,142.08380266098385,208.95497507888624,212.0979614058427
0.6006006006006006,38.48118676955484,37.42075069450426,174.85741362790472,164.98334494884315,144.20529206522482,142.0899624989246,208.9392544663767,212.08312638621976
0.6339673006339673,38.54422056698028,37.43643075093061,175.02290040082215,164.98695324591938,144.24797475185431,142.09894302728617,208.9061908095012,212.05904933274928
0.6673340006673341,38.617339495279495,37.40287449576713,175.21836555489853,164.92738724173634,144.30066573450793,142.10569561150837,208.87071447717256,212.0303716941892
0.7007007007007008,38.67950842455334,37.33540487758545,175.40149716890448,164.81667797977474,144.35597811164598,142.10251543423885,208.8300176920528,212.00646259936173
0.7340674007340674,38.74031836820984,37.243315541366535,175.56140221586904,164.65731773288644,144.40521457578126,142.0958059666697,208.79254403230644,211.9847235788773
0.7674341007674341,38.77062666655782,37.12534929355227,175.68916895767234,164.44203705567386,144.46300138040323,142.07683038884295,208.7522011552346,211.96430265494428
0.8008008008008008,38.78636135609094,36.96484079302085,175.81045223958515,164.16094098671422,144.52275737926996,142.04148720945915,208.7096024773204,211.94846996109672
0.8341675008341676,38.73184078829605,36.77854375106153,175.81505155075806,163.84557297024972,144.58564196080678,142.0113184655198,208.66073884183623,211.93224317397684
0.8675342008675342,38.66535111134096,36.58899334015573,175.8151414206857,163.5173083584934,144.6441668086853,141.98602270400997,208.6165018451642,211.91674699527024
0.9009009009009008,38.577704641111694,36.447057014264615,175.82588478177053,163.2075968064272,144.69558495328636,141.94479708886408,208.57902805477465,211.9146175375589
0.9342676009342676,38.47591611445217,36.3426719551987,175.82580278604524,162.92866632846827,144.733026832771,141.89311372243165,208.5462957388731,211.9230295535012
0.9676343009676344,38.35809280827311,36.26310840271669,175.79018496599525,162.68260572687615,144.75437013033843,141.84591758033528,208.51917935734903,211.9376335453288
1.001001001001001,38.21782195480213,36.17715890796744,175.68936926064438,162.44528589584488,144.7593965370062,141.81384664794996,208.49519004988684,211.9538558208964
1.0343677010343677,38.04735775295649,36.06888007513868,175.53228304718417,162.18886438499646,144.75143715321843,141.80228436749874,208.47750329277704,211.97161789713653
1.0677344010677343,37.86911177394478,35.96907141939822,175.3434031686781,161.97691456677418,144.73716975668694,141.82093996915367,208.4679537089068,211.99189553267905
1.1011011011011012,37.66380915368379,35.842321853743464,175.08723282596395,161.76982632949282,144.7109789727758,141.86849715065904,208.4613256072301,212.0130616935944
1.1344678011344678,37.452361678727854,35.69021152922399,174.81938787045613,161.5589903055597,144.66850647148732,141.9529967679596,208.45919012967053,212.0327547976339
1.1678345011678346,37.22333648976029,35.51019398498056,174.50885952508898,161.34332327564073,144.61029718844182,142.06516347490717,208.4677374696229,212.0541688022433
1.2012012012012012,36.98011037491517,35.31639302772174,174.17185458366734,161.14263298769038,144.5469945169318,142.19767184122423,208.48990836205644,212.08215790309544
1.234567901234568,36.73328017829173,35.09870388610681,173.82775055241467,160.94852055149198,144.46147660724063,142.34083086664353,208.5334440885292,212.12755207127395
1.267934601267935,36.54853185591709,34.88542080710717,173.59215931712035,160.7789516631251,144.36262006170475,142.48508166307025,208.5964463844705,212.1645058756741
1.3013013013013013,36.37234676027548,34.751804542015336,173.4058934811077,160.7488981120144,144.2929186430593,142.64459749893854,208.65357663023104,212.1870440420947
1.334668001334668,36.21701219966514,34.67476471674486,173.28442399066594,160.81796602220533,144.24112761279002,142.8174721392228,208.7045111343858,212.1928256915241
1.3680347013680347,36.099093621366464,34.585624523960256,173.26153866592625,160.88570968797308,144.20022804572486,143.01227790125924,208.74220651156645,212.1782191571517
1.4014014014014016,36.024626879961005,34.48142258369884,173.32415067390502,160.93695886049008,144.14131096229502,143.2193616889475,208.7842944487056,212.1435939758956
1.4347681014347682,35.98177414836744,34.33145789366112,173.44484874689206,160.93928065598,144.0661380212684,143.4398092827638,208.8254353249732,212.0916768121297
1.4681348014681348,35.98735483578094,34.16830014608287,173.6155631075377,160.90659150094476,143.9785316465157,143.6643729831856,208.86325072968336,212.02577709631444
1.5015015015015016,36.03802614522623,33.975459806274564,173.85697226500665,160.83630621701198,143.8690251857931,143.89098885738107,208.9038921859134,211.959422088174
1.5348682015348682,36.1323781603131,33.77745504099535,174.13286096426415,160.74835039885568,143.745701560596,144.12061029823386,208.93588294703184,211.89099845703944
1.5682349015682349,36.261147550336354,33.52363612856185,174.47301265408606,160.58541486950332,143.61920939859456,144.37113646378577,208.9584644297024,211.81319649675703
1.6016016016016017,36.44023465488368,33.251422899627244,174.8898188316627,160.42093967474142,143.47282355035938,144.63512560094372,208.9827812910255,211.7264996063448
1.6349683016349683,36.64983217846914,32.96183290033141,175.36708551338947,160.2573024475499,143.3113560069485,144.91194135323556,209.0050222954041,211.6328759037914
1.6683350016683351,36.90245626255824,32.614352967762926,175.89991127351044,160.01481333416928,143.1175071366701,145.1865916558934,209.01949967923787,211.52614963650907
1.7017017017017018,37.13212081227588,32.2537101390603,176.5029569905409,159.73358023146557,142.97429275578432,145.46385016685997,208.9906541881356,211.40090105212172
1.7350684017350684,37.38040841691699,31.92199461461769,177.1695939952959,159.4583884389517,142.83331927250325,145.7495521609661,208.9546428221489,211.2614390286306
1.7684351017684352,37.62685837481994,31.538224410092777,177.8628642171738,159.1218317043362,142.6891123454455,146.0421786354939,208.91135522304387,211.1107042841197
1.8018018018018016,37.87032107934312,31.069941840847,178.54210301210372,158.70432391577356,142.56178505279357,146.3341093670122,208.8465540871492,210.9494892602256
1.8351685018351689,38.127842107886536,30.543174617143904,179.26219881191278,158.22599054516175,142.4292140438866,146.62096089153005,208.7740857927152,210.7821730856552
1.8685352018685355,38.39711285962511,30.033454595213943,180.0124651703924,157.75394772920492,142.28705147934758,146.90392572284688,208.7189030361636,210.61022662084088
1.901901901901902,38.6171472447839,29.49466444846944,180.71024284599656,157.24771629674015,142.14493436972083,147.17484085936488,208.67413560691264,210.43723937921297
1.9352686019352687,38.84660026061255,29.057125414475617,181.2881940532695,156.85484585130533,141.97224220129857,147.4324558406284,208.6141687992316,210.2606566391852
1.968635301968636,39.03779213833565,28.62034193066636,181.8229680543692,156.47897711896562,141.78077818650283,147.69003660011467,208.56736125008848,210.08811717567588
2.002002002002002,39.22161564237575,28.2176368089268,182.20379784271617,156.06096076713854,141.57547004051622,147.92110475104866,208.5510061622823,209.9298509445463
2.035368702035369,39.360226016057965,27.808402609006983,182.61026749282945,155.65555893223447,141.38793247111755,148.13725483403053,208.5617548130888,209.78992215649947
2.0687354020687354,39.53404080123055,27.350208588590096,183.1039577079158,155.26987920383033,141.21479380363263,148.35377948824936,208.65089131972223,209.658955730421
2.1021021021021022,39.61248135892742,26.799656994251823,183.61173606570205,154.82779832995357,141.05407280235812,148.57671346818313,208.794265942402,209.5326979416855
2.135468802135469,39.74697701110783,26.221687481089827,184.1558233718925,154.3306074778752,140.79587664410906,148.77293364357726,209.03930194401832,209.41277016794868
2.1688355021688355,39.81324227472823,25.59859743732182,184.72201658312727,153.78353034548886,140.5312111347496,148.9611200890673,209.32134296529725,209.293616668769
2.2022022022022023,39.71636379173454,24.90356367177228,184.95142566435305,153.2427748421047,140.3131474273356,149.13277828210556,209.59152670493387,209.2044572428483
2.235568902235569,39.44800093500063,24.09281789855841,185.0719708180246,152.60134779917135,140.14473770140856,149.29858546852412,209.82892949166657,209.13922503456115
2.2689356022689355,39.104151324677744,23.250886398065425,185.3205675137202,151.98802904193596,140.0581702490455,149.4263993829325,210.02729732195905,209.1256724254956
2.3023023023023024,38.61984267295892,22.342208902752965,185.5965207647504,151.32840711127642,140.04527824846662,149.5440255676398,210.19442665937348,209.12346872696875
2.335669002335669,38.01068489570668,21.41043413552137,185.8470676942802,150.5314674411219,140.1110291500119,149.68024873728422,210.3150996631389,209.0783725776822
2.369035702369036,37.2673840546364,20.42531782999476,186.02958237970432,149.68258939375255,140.23192101825558,149.8342786140669,210.39671430576408,208.99674668259192
2.4024024024024024,36.49878801473671,19.391315029716388,187.03869661212164,148.9745075052587,140.47857227229218,150.04296556366864,210.37827105030863,208.8496941365441
2.4357691024357693,35.745413377273614,18.33042199803945,187.6807248063696,148.25581319019904,140.79010122542937,150.29479956943007,210.3095547280041,208.666426320039
2.469135802469136,34.809371720712434,17.137662761871393,187.681106658268,146.75020963181046,141.07675202907143,150.58436457936915,210.2383294024407,208.4440451486396
2.5025025025025025,33.63602202542632,15.833531432082696,186.51686808772132,145.03980351350546,141.3207573410622,150.88935842636548,210.16752622036765,208.18893879137377
2.5358692025358693,32.487187320925614,14.403420063599713,185.2806662152288,143.33703945026485,141.57261743136016,151.20538366738944,210.10746547720024,207.89763088932293
2.569235902569236,31.197142105647536,12.97320382604978,183.99821371328832,141.6874291011317,141.8265022273169,151.5408038023402,210.0427049067153,207.57588795066192
2.6026026026026026,29.48282635780416,11.677150360361695,183.28427383385048,140.73427038096932,142.04996119720826,151.89617235266215,209.96652589168943,207.22380892165705
2.6359693026359694,27.97201424443492,10.538789126344964,182.2458784018577,140.07128286738606,142.23461155666476,152.2654665986034,209.88594299492647,206.85368913939703
2.669336002669336,25.93021988698703,9.47042357179328,180.4195712233665,141.05183757963508,142.37439674297568,152.64748722077815,209.79905657688604,206.46895323361107
2.702702702702702,23.741820892504844,8.402161440588078,179.59593991703406,141.8207963417468,142.47621867138105,153.04056429610557,209.70489787011692,206.07555638896
2.736069402736069,21.417394111507672,6.871830928291324,178.52773220152787,141.4433221136548,142.59818001022032,153.49621948945276,209.61054133332843,205.64848751863624
2.7694361027694363,19.422655104739704,5.4831897744049805,177.6444681361926,139.83354775265465,142.7020603287789,153.94969022045953,209.4963207270389,205.1981882269964
2.802802802802803,17.382640620885656,4.152160186409619,176.98465487572727,138.2746424058343,142.89162473902127,154.3725551427448,209.3311426241129,204.7358273765104
2.836169502836169,15.75887020264768,2.882124301094158,176.4094845244753,138.85225282601127,143.10171239661065,154.7583576736948,209.1399417048237,204.26923720390369
2.8695362028695364,14.540298620500987,2.0678832557368563,179.12400694123264,136.96685086474255,143.20309089266934,155.1006084143224,208.97159104050635,203.8129686671004
2.902902902902903,13.659085088286805,1.583297121819575,181.4654347125363,135.78518460739116,143.2555161374275,155.4049798769873,208.80758787395783,203.37049756323145
2.9362696029362696,11.916886431819382,2.313609935140449,181.01855704075584,136.91347740371464,143.0853159308016,155.86393241300004,208.57119412885413,202.95887118557025
2.9696363029696364,10.590015427008623,2.854593271178594,180.96529955693555,136.39373144852564,142.87124332479706,156.25488821589462,208.3671682950108,202.57448863128644
3.003003003003004,9.565637123778966,2.854593271178594,180.93895215659208,133.34603566836577,142.70135314096655,156.4610454666415,208.2412102803147,202.2180525326347
3.0363697030363697,8.981146813797693,2.854593271178594,180.9448599522497,129.5480661784366,142.5413198593656,156.5232388060132,208.17095552613225,201.88337085383372
3.0697364030697365,9.075325452495134,2.854593271178594,180.52116523529384,125.31139218730668,142.37868263522074,156.37706082677076,208.18695713411563,201.56595698839425
3.103103103103104,9.634251577717166,2.854593271178594,180.24615072591945,121.23554899970948,142.2340345946336,156.11448388998744,208.30182413721872,201.279450761898
3.1364698031364697,10.42871709666036,2.854593271178594,181.52640053824103,117.85145328553976,141.9819113317256,155.76905371312068,208.4863549471927,201.0353412357087
3.169836503169837,11.324117180905956,2.854593271178594,182.6901155351084,114.69883274370557,141.66946588804234,155.35039671163202,208.72505533408244,200.83683812589464
3.2032032032032034,4.836388860392541,2.854593271178594,183.6670188035488,110.6833587526479,141.55832814170128,154.8126332060544,209.05557829511056,200.69993258396056
3.2365699032365702,1.254430336789352,2.854593271178594,184.1666380915784,107.16636012022056,141.44974243142337,154.23889343649896,209.3937469151797,200.59608914240465
3.2699366032699366,0.7578579806782662,3.688773590249285,184.12638860066272,103.68200887519988,141.32614477590454,153.65596086016697,209.744904455196,200.5289448450121
3.3033033033033035,2.8809931760600387,4.164872198348227,183.5766250625837,100.64100457210247,141.3629369071446,153.09685424716056,210.00954473129988,200.5166070730583
3.3366700033366703,2.8809931760600387,3.686056276833432,183.26346434238587,98.58536131870213,141.45591226895317,152.5234438634463,210.21304413395865,200.57189099714105
3.3700367033700367,2.8809931760600387,3.370369009948837,182.970801134838,96.67378285389736,141.57794085910075,151.98145630606672,210.36553042579555,200.6393184867388
3.4034034034034035,2.8809931760600387,3.370369009948837,182.69322789687791,94.57596690542168,141.76681059057472,151.47453166152752,210.4576149894919,200.7119340775357
3.4367701034367704,2.8809931760600387,3.370369009948837,182.3193396723055,92.45622632579747,141.95400447812088,151.05919899577987,210.5183584567817,200.7311951374016
3.4701368034701368,2.8809931760600387,3.370369009948837,181.57024210378853,90.18689732679576,142.11531215202896,150.72941180095825,210.5908460485,200.7221370285464
3.503503503503504,2.8809931760600387,3.370369009948837,180.7066019288513,88.15144531823815,142.29837435028705,150.47336189649286,210.6169195657484,200.70827002854543
3.5368702035368704,2.8809931760600387,3.370369009948837,179.48134496493847,86.74535093873392,142.48373475162293,150.2784263486041,210.5884870560252,200.69328690801143
3.5702369035702373,2.8809931760600387,3.370369009948837,177.26363739354298,85.60033770426156,142.59761840350097,150.14146516403238,210.570915084903,200.6623026981438
3.603603603603604,2.8809931760600387,3.5119789355624533,174.8636315348982,84.6288418718466,142.65787179884478,150.07751125423556,210.57804897596912,200.60251110832456
3.6369703036369705,2.8809931760600387,3.5119789355624533,172.4080054282296,84.63230037195075,142.7172472860814,150.07640718950523,210.57259264681852,200.516491160412
3.670337003670337,2.8809931760600387,3.5119789355624533,171.07484787789667,85.4809224194592,142.82488327199513,150.20863060217897,210.5196084361041,200.36015357582656
3.703703703703704,2.8809931760600387,3.5119789355624533,169.9821348040233,87.08305908301156,142.93301629824822,150.3875450556489,210.38445551277604,200.19748552031507
3.737070403737071,2.8809931760600387,3.5119789355624533,169.0564941747149,89.2979861468351,143.03016087663468,150.65866661390615,210.1902721563347,200.0023191527024
3.770437103770437,2.8809931760600387,3.5119789355624533,167.55863967118498,91.41110103710376,143.13152011351107,150.98425570581642,209.91656995401584,199.79420785710488
3.803803803803804,2.8809931760600387,3.5119789355624533,166.32297785233905,93.67104861316362,143.2228725388803,151.35681300125944,209.56736642915328,199.610464933723
3.8371705038371706,2.8809931760600387,3.5119789355624533,166.29032873626625,94.1403055919232,143.35714447138997,151.78143110242095,209.1153550341085,199.39711327076023
3.8705372038705375,2.8809931760600387,3.5119789355624533,165.71149332527858,94.11482320482064,143.5305157818159,152.25288211211563,208.5723855451773,199.1414352810553
3.903903903903904,2.8809931760600387,3.5119789355624533,165.8395964024959,94.58340698802832,143.69609842453374,152.6895089178594,207.9266821649028,198.866503175641
3.937270603937271,2.8809931760600387,3.5119789355624533,166.56980976492846,96.26937201231836,143.86031066425713,153.10251859457708,207.30068142787115,198.60850531454992
