Time,Left Shoulder Angle,Right Shoulder Angle,Left Elbow Angle,Right Elbow Angle,Left Hip Angle,Right Hip Angle,Left Knee Angle,Right Knee Angle
0.0,16.376041805913314,20.65970000564012,166.98294981091817,136.16806912754743,150.3002083205335,185.83272061348063,196.23922065186449,181.90342898112883
0.0333667000333667,12.141995671693904,11.771572541035637,177.03652650974746,143.32239150803042,152.11475169852926,187.33054173789944,193.3992710047788,181.40702466765185
0.0667334000667334,9.011132546203418,5.052704105422659,184.9328165342505,148.75880429856147,153.51062792376104,188.55378413381027,191.1731629583292,180.94998607350684
0.1001001001001001,6.902618363490074,0.3452395945843953,190.82951819006897,152.60304282775297,154.52184027599597,189.52318981507176,189.51707277992128,180.53319630151736
0.1334668001334668,5.735619057602095,0.3452395945843953,194.88432978284467,154.9808424242173,155.1823920350012,190.2595007955424,188.3871767369604,180.1575384545069
0.1668335001668335,5.4293005625877,0.3452395945843953,197.2549496182194,156.01793841656675,155.52628648054375,190.7834590890808,187.739651096852,179.82389563529898
0.2002002002002002,5.902828812495109,0.3452395945843953,198.09907600183485,155.84006613341373,155.5875268923909,191.11580670954552,187.53067212700145,179.53315094671706
0.2335669002335669,7.075369741372548,0.3452395945843953,197.57440723933283,154.5729609033706,155.40011655030972,191.27728567079512,187.71641609481424,179.28618749158463
0.2669336002669336,8.866089283268227,-2.508676095695946,195.83864163635505,152.3423580550497,154.99805873406729,191.2886379866881,188.2530592676958,179.08388837272526
0.3003003003003003,11.194153372230378,-3.666898069635163,193.0494774985433,149.27399291706337,154.4153567234308,191.1706056710832,189.0967779130515,178.92713669296236
0.333667000333667,13.978727942307222,-3.287281431450048,189.36461313153933,145.493600818024,153.68601379816732,190.94393073783868,190.20374829828688,178.8168155551195
0.3670337003670337,17.138978927546965,-1.527681285357378,184.94174684098485,141.12691708654393,152.84403323804403,190.6293552008133,191.5301466908073,178.7538080620201
0.4004004004004004,20.594072261997844,1.4540472644260305,179.93857693252173,136.29967705123553,151.92341832282804,190.24762107386567,193.0321493580182,178.73899731648774
0.4337671004337671,24.26317387970808,5.500049113683405,174.5128017117916,131.13761604071118,150.9581723322865,189.81947037085425,194.66593256732497,178.7732664213459
0.4671338004671338,28.06544971472588,10.45246915819791,168.8221194844363,125.76646938358316,149.9822985461865,189.3656451056376,196.38767258613308,178.85749847941804
0.5005005005005005,31.920065701099457,16.153452293752835,163.02422855609757,120.31197240846396,149.0298002442952,188.90688729207423,198.153545681848,178.9925765935277
0.5338672005338673,35.746187772877065,22.44514341613131,157.27682723241713,114.8998604439658,148.1346807063797,188.46393894402289,199.91972812187504,179.17938386649834
0.5672339005672339,39.46298186410713,29.16968742111656,151.73761381903796,109.65586881870196,147.33094321220827,188.05754207534343,201.64239617362145,179.41880340115503
0.6006006006006006,40.56237879234636,36.16922920449181,151.43985301730197,106.857375963038,146.88966014761482,188.2346769879964,202.885394079085,179.6996962746002
0.6339673006339673,40.98477823885809,43.28591366204024,151.0623204511785,104.25934908748876,146.84674214665074,188.6102171009848,203.77610279000228,180.07267801468467
0.6673340006673341,41.22180118059564,50.36188568954513,149.38117859006778,99.95968654628568,147.11405797549838,189.146370376352,204.3085608068581,180.54466837231595
0.7007007007007008,41.4876212844602,57.23929018278994,147.9326138172208,96.63502950005984,147.8159020050574,189.75212241862096,204.5691576003403,180.85959506037187
0.7340674007340674,40.39714033313673,60.03473605645707,148.82720296438768,94.66946374835788,149.39778337318958,190.24133748692225,204.09250211021035,181.3107727724245
0.7674341007674341,40.42140044283411,61.53582231015826,149.29142198659488,94.31959152051763,150.71477360473008,190.691201474148,203.9231170516771,181.8479131808025
0.8008008008008008,41.0995044977989,62.35057275142864,150.59770932711476,95.29459946191582,152.03697994482832,191.1479472843081,203.5355119854915,182.44830883633588
0.8341675008341676,42.34839793429818,63.4291243888982,151.1717348565868,97.25345680461317,153.78422672536254,191.52218640437147,202.8058653691066,183.2582967034481
0.8675342008675342,43.5179474441994,64.04414250901505,152.33454348287316,98.95651870505172,155.58184249899023,192.07288191751888,202.06381209175905,183.9860716302299
0.9009009009009008,43.91179438542935,64.32185612970947,156.21825961194605,101.5762655721806,157.37198365848417,192.80148538390696,201.2050692406829,184.80772140722635
0.9342676009342676,45.80771437442515,64.36309059007561,157.38745380397012,105.78418721913384,159.13583434985932,193.4027169990102,200.44012306875683,185.6672867987743
0.9676343009676344,47.22340937116039,64.07317103053306,160.927787489318,111.92006015094464,160.78784557786585,194.05129036242377,199.63425450034896,186.65473619820804
1.001001001001001,48.87833968259608,64.55728095463448,165.66198824550415,120.42173450025147,162.39957798807714,194.5004620547214,198.6818372183533,187.81416041026333
1.0343677010343677,51.00302652067854,64.9996603430766,170.95004639842028,129.67563431953263,164.08093377481725,194.79435957257635,197.7584353003664,188.9923503998226
1.0677344010677343,54.48360788692705,66.18227659268179,175.7917571224336,138.5402115086982,165.86545078417336,194.9928890636876,196.7541798391617,190.2246087897284
1.1011011011011012,56.6305061952452,67.2083423779457,180.8749616507349,157.35481678759382,167.74076134205035,194.7086896297833,196.1445265139956,191.28656627912017
1.1344678011344678,68.85141397019918,67.4054729159976,183.32647060376505,171.60048747292657,169.36946601622512,194.5995979804648,195.5049673459528,192.28550050293492
1.1678345011678346,80.02714427610962,68.60106163479766,185.04785803551343,181.7879088687472,171.00301671606903,194.3558938107629,194.77652247139287,193.4582260489422
1.2012012012012012,90.02269210977644,70.44179233651533,185.18243386396043,191.5023560054585,172.69876887528162,193.97099308926,193.8732761563957,194.7853985670784
1.234567901234568,99.81869636260114,69.65031336111515,185.04361463077143,199.21453824360376,174.18297382403915,193.6008648454585,192.6325137414824,196.14397158525952
1.267934601267935,108.17216105759596,69.69805048709627,183.3031233144836,204.92329536870443,175.63602136118806,192.99972079469384,191.37549806588868,197.6714404911541
1.3013013013013013,115.74185830970607,71.06426596777713,180.745161059392,208.5725280773045,176.8252621665355,192.31756574494528,190.1102578367831,199.23528575070864
1.334668001334668,123.24301237103909,73.6699208725709,177.8791933328612,210.71636698108333,177.75859669926453,191.6164547060516,188.1673207986868,201.57544178440656
1.3680347013680347,129.62831997762834,77.34525924899818,174.06032433695927,211.7470271497904,178.53881249833387,190.81320959889285,186.58616770360192,203.9418869467979
1.4014014014014016,135.1235978319988,88.74481259435197,169.28854405744107,210.7660220723805,179.1952278510451,189.99337178558764,185.4311382383588,205.9639638398124
1.4347681014347682,139.14475524985266,99.50099954451171,163.30576717728218,207.9210922565157,179.61648902452202,189.03574655222883,184.8217059862695,207.1536808207899
1.4681348014681348,141.66570238655416,109.90675538291732,155.96193181908674,203.443932821838,179.87230377836636,187.9512117439768,184.7123677356177,208.083752649693
1.5015015015015016,142.50502274954033,128.53220161726628,147.2042531971562,196.7166971788265,179.88959246577204,186.5864510826439,185.43849658423,208.44739907948343
1.5348682015348682,142.43701044358878,139.93843606243638,139.1532641824056,189.12427745650749,179.5762703236099,185.13101245614587,186.6431881212716,208.94890413781349
1.5682349015682349,140.82829667472106,150.46608346760257,134.13234499795016,181.46694186291668,179.1003606783958,183.9173281057359,187.1576485490472,209.84335290613527
1.6016016016016017,136.7929174032331,160.15994494534374,129.03909358031547,172.11641978346483,178.6643822524585,182.91426754698244,188.0642930673606,210.2811508636628
1.6349683016349683,131.3079902876297,168.0128533572102,123.68464142180328,161.69523494390577,178.39375196619892,182.23709419397744,189.1625839175122,210.43912898316725
1.6683350016683351,121.79352913644487,173.9480723052321,118.24264833453122,147.12519639040747,178.88666214944467,181.8552061995421,189.08438542202435,210.546788584326
1.7017017017017018,111.68872363139832,177.96456935888313,113.20520651013398,132.27374245371357,179.41371651683522,181.53539791212748,188.98052124134787,210.58150775894435
1.7350684017350684,101.23161293659376,179.8069632508907,108.65550690720195,117.4203193527319,179.9669849389965,181.2712498613265,188.8548186499376,210.55760537623905
1.7684351017684352,90.66023621613508,179.40655164340816,104.67674048432688,102.84437330637203,180.5385372865559,181.0563425767338,188.71110492225017,210.48940030542843
1.8018018018018016,80.21263263412689,178.07176065234248,101.35209820010036,88.82535053354391,181.1204434301408,180.884256587944,188.5532073327421,210.3912114157309
1.8351685018351689,70.12684135467273,175.69427969190207,98.76477101311404,75.64269725315677,181.70477324037847,180.7485724245516,188.38495315587,210.2773575763649
1.8685352018685355,60.64090154187727,172.32503672479612,96.9979498819595,63.57585968412056,182.2835965878964,180.6428706161513,188.2101696660903,210.1621576565487
1.901901901901902,51.99285235984466,168.0149597137351,96.13482576522853,52.904284045344525,182.84898334332183,180.56073169233764,188.03268413785972,210.0599305255008
1.9352686019352687,44.420732972678735,162.81497662142948,96.25858962151268,43.90741655573825,183.39300337728224,180.4957361827053,187.85632384563485,209.9849950524395
1.968635301968636,38.162582544484025,156.77601541058968,97.45243240940358,36.8647034342117,183.9077265604049,180.44146461684875,187.68491606387207,209.9516701065833
2.002002002002002,33.4564402393643,149.9490040439263,99.79954508749292,32.05559089967409,184.38522276331724,180.39149752436268,187.52228806702823,209.9742745571505
2.035368702035369,30.540345221424342,142.38487048414953,103.38311861437238,29.7595251710352,184.81756185664665,180.33941543484167,187.37226712955967,210.0671272733596
2.0687354020687354,29.6523366547675,134.13454269396996,108.28634394863356,30.25595246720464,185.19681371102035,180.27879887788035,187.23868052592303,210.24454712442883
2.1021021021021022,31.03045370349877,125.24894863609806,114.59241204886804,33.824319007091994,185.51504819706585,180.20322838307328,187.1253555305749,210.5208529795768
2.135468802135469,34.912735531721694,115.7790162732444,122.3845138736676,40.74407100960664,185.7643351854105,180.10628448001506,187.0361194179717,210.91036370802163
2.1688355021688355,41.53722130354063,105.77567356811912,131.74584038162382,51.2946546936584,185.93674454668152,179.9815476983003,186.97479946257027,211.42739817898195
2.2022022022022023,51.14195018306002,95.2898484834328,142.75958253132828,65.75551627815709,186.02434615150645,179.82259856752358,186.94522293882696,212.0862752616761
