Time,Left Shoulder Angle,Right Shoulder Angle,Left Elbow Angle,Right Elbow Angle,Left Hip Angle,Right Hip Angle,Left Knee Angle,Right Knee Angle
0.0,17.22331697540999,29.749798739121808,165.89965884388056,166.45815698821852,152.57471407946284,151.04877845526696,199.5207740312863,196.50944626995343
0.0333667000333667,17.151617097637907,29.937303247041765,165.00694525226052,166.59907980827228,152.28364650865203,150.87378121228946,199.64053194643444,196.5317235899507
0.0667334000667334,17.13519475440349,30.0993532894154,164.18910584888968,166.7063490676326,152.03628347608253,150.7127659172395,199.72630301137465,196.5456493140565
0.1001001001001001,17.171421960192024,30.237489813399204,163.44529305422415,166.7824984225669,151.82995002645592,150.5652312793411,199.77997098318352,196.5522144808321
0.1334668001334668,17.25767072948879,30.353253766149702,162.77465928872,166.83006152934252,151.6619712044739,150.43067600781845,199.8034196189376,196.5524101288389
0.1668335001668335,17.391313076779067,30.44818609482341,162.17635697283322,166.85157204422686,151.52967205483816,150.3085988118956,199.79853267571363,196.54722729663808
0.2002002002002002,17.569721016548133,30.523827746576824,161.64953852701993,166.84956362348728,151.43037762225035,150.19849840079664,199.7671939105881,196.53765702279097
0.2335669002335669,17.79026656328127,30.581719668566468,161.19335637173617,166.8265699233912,151.36141295141218,150.09987348374568,199.71128708063767,196.52469034585883
0.2669336002669336,18.050321731463765,30.62340280794885,160.806962927438,166.78512460020596,151.32010308702533,150.01222276996683,199.6326959429389,196.509318304403
0.3003003003003003,18.347258535580888,30.65041811188048,160.48951061458152,166.72776131019896,151.30377307379146,149.93504496868417,199.5333042545685,196.4925319369848
0.333667000333667,18.67844899011793,30.664306527517866,160.2401518536227,166.6570137096376,151.30974795641222,149.8678387891218,199.4149957726031,196.47532228216537
0.3670337003670337,19.04126510956016,30.666609002017523,160.05803906501774,166.5754154547892,151.33535277958936,149.81010294050384,199.2796542541192,196.45868037850613
0.4004004004004004,19.433078908392872,30.65886648253596,159.9423246692226,166.48550020192124,151.3779125880245,149.76133613205437,199.12916345619348,196.44359726456835
0.4337671004337671,19.851262401101337,30.64261991622969,159.8921610866933,166.38980160730102,151.43475242641932,149.7210370729975,198.96540713590247,196.4310639789133
0.4671338004671338,20.293187602170843,30.61941025025523,159.90670073788607,166.29085332719595,151.50319733947552,149.6887044725573,198.79026905032296,196.4220715601023
0.5005005005005005,20.756226526086664,30.59077843176908,159.98509604325682,166.1911890178734,151.5805723718948,149.6638370399579,198.60563295653145,196.4176110466966
0.5338672005338673,21.237751187334084,30.55826540792776,160.12649942326166,166.09334233560077,151.66420256837876,149.6459334844234,198.41338261160448,196.4186734772575
0.5672339005672339,21.735133600398523,30.52341212588803,160.330063298358,165.9998469366467,151.7514129736305,149.63449251517915,198.2154017726204,196.42624989034795
0.6006006006006006,21.731697508496115,30.47504835825816,160.8229600575324,165.95769116333074,151.8618106212045,149.6948246826513,197.9813808987048,196.4266870432853
0.6339673006339673,22.341333322580137,30.48405461274058,161.13038765368648,165.99561727261943,151.92895591479277,149.73132109435986,197.75753449970168,196.44697356880536
0.6673340006673341,23.046232172721044,30.48591387818309,161.49508652957553,166.00732948702972,151.99061059368526,149.75690856153523,197.52492375779184,196.4829014948473
0.7007007007007008,23.742154764610497,30.493120894603084,161.94072606694218,166.03536132749534,152.05338967524017,149.78999203011338,197.2986968005536,196.5336653466624
0.7340674007340674,24.3763527053358,30.51584166800553,162.37328010830575,166.0918581863038,152.12190055399225,149.8107977437258,197.06814408919865,196.6077600826265
0.7674341007674341,25.04104949704138,30.53237914742192,162.86949207096532,166.13356736779537,152.18980747713337,149.80794126931482,196.8528673543608,196.7063167180717
0.8008008008008008,25.668783383950867,30.535858370832635,163.32792224621602,166.15636618245242,152.22361948858608,149.79766658323103,196.67817161146647,196.82289350960576
0.8341675008341676,26.30505026710674,30.540711661757484,163.82715925680722,166.1799241651796,152.22240213310218,149.7778985130393,196.54508328561067,196.96163940024616
0.8675342008675342,26.66696794730452,30.54649265604385,164.8738195961811,166.19845567691874,152.19289454871554,149.75716155536557,196.4501856431736,197.10812961141616
0.9009009009009008,26.92371214137254,30.588572635327345,165.93662550321272,166.2563900129579,152.11622228590605,149.7067226602226,196.4134576898549,197.29020823280223
0.9342676009342676,27.29608142974816,30.637891270665065,166.5875762262148,166.30599989580452,151.9947766714123,149.64241186658126,196.4095634375934,197.4911038293102
0.9676343009676344,27.67742247197696,30.682383836838305,167.18061327382333,166.31902491707106,151.86024764485606,149.56796455719714,196.41503596624293,197.68928780347264
1.001001001001001,28.15640567612917,30.728284823991235,167.9635514294245,166.32605732209788,151.7051120327374,149.49824345900768,196.4333780146285,197.88534715070847
1.0343677010343677,28.57854981319021,30.742470791277483,168.68226021367096,166.31536807113224,151.54653459318553,149.4411019976071,196.46370345126869,198.0690436302411
1.0677344010677343,28.9475383507718,30.72582142302418,169.4280446839336,166.25394445990165,151.37213688953116,149.40082985271394,196.5193941843833,198.2299976903236
1.1011011011011012,29.24729327522852,30.69863746689004,170.1556052075641,166.1258211404996,151.18954372033477,149.3746408606451,196.5951459832016,198.3758811029387
1.1344678011344678,29.541086524524065,30.645022468563408,170.7836696450575,165.9293876368926,150.9932497552647,149.36416444366589,196.6925024782509,198.4985078451138
1.1678345011678346,29.80744264558852,30.530210153993625,171.2674373819736,165.6246595796343,150.77824823617394,149.34299805028067,196.8055298514107,198.5828507588947
1.2012012012012012,30.03479656574572,30.38672092363156,171.65695135144293,165.26279632850725,150.57546838402942,149.319650583659,196.9166154163424,198.64388643577408
1.234567901234568,30.208659419189058,30.245176471162093,171.94541988310897,164.89299379783208,150.37913526442478,149.3010807302407,197.0270823424348,198.69116479952703
1.267934601267935,30.368324868495385,30.08969549626467,172.20085485971558,164.47457983166476,150.18644352731184,149.30622954164593,197.1437135341524,198.71029048416852
1.3013013013013013,30.51568622907284,29.885529473616263,172.41757595480468,163.97750284293397,150.00072562301347,149.32701926050606,197.2819998143148,198.69434210111456
1.334668001334668,30.680375280290107,29.65645312241565,172.6587416614155,163.42139139297288,149.8221083941258,149.3793243052727,197.42740020246185,198.64426143535377
1.3680347013680347,30.83370317753437,29.421951265093483,172.89096798714422,162.84980379936772,149.65229493312015,149.45618057514295,197.57054076900548,198.56566068679152
1.4014014014014016,31.04599819040864,29.179848894495592,173.23594336377226,162.23857135030784,149.49601324834006,149.56780906234735,197.6816785238386,198.4677649575468
1.4347681014347682,31.301900173467697,28.926025029430264,173.62916641006257,161.6129664095457,149.33094275919808,149.6896394095569,197.7922400348137,198.3581476326375
1.4681348014681348,31.57212192054332,28.6688065070166,174.0450881287312,161.01595948794505,149.18072874989852,149.83001789241712,197.8851692286217,198.2331425247816
1.5015015015015016,31.865613443259274,28.424333603702017,174.51849750982078,160.458179301774,148.99754868802222,149.95956859832754,197.990397595766,198.10324611590457
1.5348682015348682,32.14211404492756,28.208943906725747,174.97101304140767,159.92049317591113,148.83772980670415,150.11276144188588,198.06728549186693,197.96966178100496
1.5682349015682349,32.365764034523814,27.99339858263245,175.29845064121668,159.3825810850388,148.73864884919018,150.27269306560473,198.08829859984456,197.8437373019485
1.6016016016016017,32.56097135486701,27.7721397548189,175.5336956181336,158.82467701117793,148.68636019144506,150.45287239771346,198.05302977129,197.7219894984825
1.6349683016349683,32.69487242066021,27.60766812653232,175.5605819492459,158.2766328377058,148.72668230642512,150.65166234664483,197.9092809074913,197.5899715625642
1.6683350016683351,32.788441892159106,27.515338749876896,175.54769538678048,157.81875733188812,148.82109970584148,150.89458497521633,197.70281663345403,197.4523005196148
1.7017017017017018,32.82801539549455,27.39961062520323,175.3987267981849,157.43433235250117,148.97161284200956,151.14112413119665,197.44725072479812,197.29917160486684
1.7350684017350684,32.839257183275144,27.28026037431889,175.30250052095104,157.08279002899698,149.15607876726168,151.40583760405391,197.1619827879344,197.13829692477512
1.7684351017684352,32.84693629026034,27.28999446607073,175.00415239556725,156.93364627630285,149.36315803884972,151.6930150552043,196.85975492462825,196.9681833971908
1.8018018018018016,32.818717665376106,27.269605019809745,174.82950552597734,156.68829784613354,149.5859537534323,151.97875121762246,196.5606067267191,196.81288790437503
1.8351685018351689,32.79375163496018,27.24887448659328,172.23099523407822,156.61593650050864,149.82023953283115,152.2679897927962,196.27877195911825,196.68032823495412
1.8685352018685355,32.75297602408785,27.17261470335892,170.44862118048744,156.4822355195033,150.0531518124936,152.53580816919785,196.0122497099445,196.57784903696023
1.901901901901902,32.62899560763219,27.16733437676769,169.30911603614442,156.44967420151193,150.27578183553862,152.7823387655153,195.779243165534,196.5047607615184
1.9352686019352687,32.47649972351774,27.16096979720109,176.20761185649397,156.30828911057463,150.4755588639331,153.01886177300094,195.57930579665748,196.46232780036763
1.968635301968636,32.313335303497595,27.10023426547041,182.38001022504147,156.15189328353267,150.6676776836837,153.24224335928074,195.4169927229837,196.45323164264897
2.002002002002002,32.12384901148653,26.98104381536604,187.23381455337804,155.84103118829256,150.84890456357417,153.45064481048064,195.28265497168456,196.4701504955486
2.035368702035369,31.8823589535364,26.859658897862342,190.44061038131463,155.4098150414182,151.00283160003207,153.6538645359516,195.17404933071657,196.51754074631748
2.0687354020687354,31.62568763497571,26.682170045859493,192.280499327537,154.80589445410416,151.16232477763583,153.87375457740092,195.06113392669772,196.55477821842047
2.1021021021021022,31.39626341441923,26.734757566703024,192.7999678187641,154.44412985061263,151.2925505798913,154.05761516178185,194.9597674581113,196.60394390001
2.135468802135469,31.1398610910043,26.693679988659348,192.1932525152808,153.94681702715937,151.40130187912035,154.23331372100168,194.87894232732305,196.66123536941492
2.1688355021688355,30.8701960480928,26.54211443186764,191.0068557634356,153.4399380513672,151.48716775107292,154.39980020140644,194.82461674374363,196.7123032503141
2.2022022022022023,30.568773414313704,26.249846671737227,188.8641425590377,152.68420421976873,151.54634260780068,154.54847314208334,194.80862312836496,196.7565235753464
2.235568902235569,30.20053518420453,25.726136670901173,185.93812158354265,151.73321839931052,151.5784278156276,154.6708285426199,194.82732084649223,196.7895483208356
2.2689356022689355,29.78793453786602,25.017923777919407,182.3055712872047,150.51761823028983,151.59056884773537,154.78196808129567,194.8691789848843,196.8003432895212
2.3023023023023024,29.407569427171016,24.22128610782495,177.93417303975755,149.18370971088518,151.60353956003027,154.8715801159166,194.93185179164368,196.79285311598892
2.335669002335669,29.034322110678364,23.374953605119625,173.12740512028324,147.67022532877613,151.61646484198656,154.98186831873352,195.0203353568196,196.783632742688
2.369035702369036,28.66369032447236,22.416396465756502,167.54329430645527,146.04864408275844,151.62884222882462,155.09350673885834,195.1326890509292,196.7653025642045
2.4024024024024024,28.288045520935924,21.369998610041257,161.41116427577822,144.20327824461577,151.64320562239038,155.22013873749347,195.26169534782025,196.7299254875989
2.4357691024357693,27.918353606960483,20.3556319111428,154.8609668318816,142.34313432128613,151.6399204442852,155.35329530516017,195.4182944145935,196.6894762321212
2.469135802469136,27.49801948253189,19.35744885335902,147.92839181290444,140.36676509548343,151.6222236252146,155.49908579248967,195.57765347986503,196.65852648362693
2.5025025025025025,27.002950951644845,18.47087819054176,143.00142103104236,138.47314997648536,151.5283712688607,155.62110839379912,195.78429951376145,196.6441230116538
2.5358692025358693,26.5103758062828,17.586125818646057,137.5297592654339,136.39451940590075,151.42786465656638,155.74547637520476,196.01148608071568,196.6220193277176
2.569235902569236,26.01422048428815,16.621912925552973,130.8081787737347,134.08925719381452,151.34964079809222,155.8735118591644,196.2178861549108,196.5908802079485
2.6026026026026026,25.55779062596354,15.627909175459203,122.87651060239116,131.59593731281592,151.33832542777705,156.01916165677466,196.3826712313969,196.5608083933448
2.6359693026359694,25.08744679973667,14.665730042499463,115.09306013170008,129.0762386345048,151.35844414217743,156.165185628988,196.50863508819933,196.5417253637941
2.669336002669336,24.53707042979587,13.714077468661175,106.9613522705454,126.45131096384914,151.47822593521397,156.35347846071048,196.5518570257069,196.5239990555184
2.702702702702702,23.92095108789625,12.766655232798277,98.50724394380148,123.80070137787072,151.6758055600495,156.55381880773524,196.5639439896998,196.5038267240388
2.736069402736069,23.19194318155053,11.850956178528287,89.20149609878544,121.0024068649007,151.95403046567142,156.78830750529596,196.51290966574527,196.4633663273615
2.7694361027694363,22.491251425684656,10.966351373119188,77.8104144483533,118.34638274637094,152.31636742682568,157.05060791016538,196.3876598874824,196.4082275550832
2.802802802802803,21.848355361067533,10.090220319427695,67.39885194904251,115.75511945172464,152.7208158929137,157.33005260402712,196.24977586124544,196.3414863413961
2.836169502836169,21.30918623574164,9.227004371334589,57.863778493338216,113.4713896240378,153.17338575007437,157.61620533180127,196.09944035814848,196.26490794027697
2.8695362028695364,20.87867537694441,8.481062316815473,49.48956103618596,111.28290436149229,153.66554891384544,157.94027477056915,195.94018601650043,196.19115392169945
2.902902902902903,20.604262533011347,8.000331602431334,42.23993111792241,109.2783607188168,154.1963203889139,158.29082218693046,195.76085920996888,196.12186859598748
2.9362696029362696,20.366509766141736,7.521182600232567,36.616509524740806,107.1491279158622,154.74695314462338,158.66312214519584,195.56482224792816,196.0621297333969
2.9696363029696364,20.092643656590703,7.064491118155517,32.488945430095306,104.8506610700897,155.29383037184834,159.0537989679921,195.35392745506667,196.01558664696867
3.003003003003004,19.72769121287008,6.636882621681779,33.23718075213968,102.48749067270148,155.8299809627004,159.45143077913406,195.13095411850733,195.97813756132044
3.0363697030363697,19.2918550773717,6.195668694311634,36.62420886903197,101.13172553759732,156.3401460524734,159.8494803505691,194.91565917909944,195.9531204009581
3.0697364030697365,18.85924347982252,5.701235697483058,42.97979939277906,99.77394001667368,156.82605074259206,160.24403631864993,194.70419877049608,195.94204779914065
3.103103103103104,18.5597840814869,5.12257054562648,42.64665971099359,98.12277017167897,157.3130328804788,160.64256485008278,194.4981406691483,195.944969856078
3.1364698031364697,18.248811582385,4.639311735255078,41.8709211548904,96.38596549737,157.76154303113162,161.02997577055223,194.29251547451423,195.9607376241765
3.169836503169837,17.96682769100645,4.2147559214603545,41.27061503558004,94.56301752912312,158.1513890405079,161.39733559099415,194.09502260955145,195.99363568193385
3.2032032032032034,17.762842625595418,4.2147559214603545,41.080536943273785,92.66808566241929,158.49876427738965,161.71343105600997,193.9072279456992,196.04380949333583
3.2365699032365702,17.692142725088402,4.2147559214603545,41.337558149415216,90.89115253887016,158.7887374873394,161.97608555928977,193.7412637356049,196.10632635841293
3.2699366032699366,17.588772432658562,4.2147559214603545,42.20381290972889,88.66418221822656,159.03902224961325,162.2238609573674,193.5851600031993,196.1575582499817
3.3033033033033035,17.55115635699463,4.2147559214603545,43.43851822862687,86.72756920376222,159.29226517854514,162.45888402945016,193.4348528764565,196.1960532584061
3.3366700033366703,17.233570488915372,4.2147559214603545,44.71158443181038,84.42487227387515,159.5111016018655,162.6649244467948,193.2869355119866,196.2194860388602
3.3700367033700367,16.690731851418654,4.2147559214603545,46.44915064061819,81.98508643187725,159.67812049780633,162.84860668163736,193.1368565099717,196.2303681428664
3.4034034034034035,16.1002243213734,4.2147559214603545,48.54403636695513,79.23250211535708,159.7991243184752,163.01427002159852,192.9878744433083,196.2322150645978
3.4367701034367704,15.14203449757251,4.2147559214603545,50.80867382534797,76.45617816209871,159.8995219568983,163.15863874436735,192.84784712949275,196.22044087485904
3.4701368034701368,14.145896713533288,4.2147559214603545,53.51513792575827,73.13825448195537,159.92901045032,163.2815240577883,192.72184563588823,196.20742486879004
3.503503503503504,13.128625074635266,4.2147559214603545,56.43827592769003,69.48292505709803,159.88124954864875,163.3601296769449,192.61184733596085,196.1951041276272
3.5368702035368704,12.279452268470418,4.2147559214603545,60.09511585509554,65.58916573518364,159.75581192648164,163.4151230213733,192.51758873145883,196.1799359530647
3.5702369035702373,11.418835186498097,4.2147559214603545,64.27681290754774,61.51975132915975,159.54928114560522,163.4331103860839,192.44979587605312,196.17033229487697
3.603603603603604,10.696726873414717,4.2147559214603545,69.02698090445818,57.27926750586556,159.28005696941906,163.40758245686928,192.40271743513767,196.1579375620766
3.6369703036369705,9.924191146538124,4.2147559214603545,74.06963898374214,52.90619374967678,158.96096737917298,163.34361938638952,192.37838704815832,196.13223009500413
3.670337003670337,9.55469511429708,4.2147559214603545,76.76973971741886,48.36138005738597,158.67985267783456,163.27584054362336,192.3215548881077,196.0773931408399
3.703703703703704,9.64890103865354,4.2147559214603545,79.0828003513219,43.5497942262119,158.4081723287461,163.1885212231163,192.23319323188176,196.0255296281296
3.737070403737071,10.187556563801367,4.2147559214603545,81.61515654662556,38.99209138018697,158.12259514326706,163.079865139616,192.1476848552772,195.9797228383356
3.770437103770437,11.014893037834623,4.2147559214603545,84.63400501839983,34.66789169772141,157.81664855255022,162.94559049454048,192.07160563104225,195.93410624895577
3.803803803803804,12.17531952490328,4.2147559214603545,86.81083101266466,30.70396799979335,157.52474348741393,162.80447516470525,192.00813707998665,195.8788660260572
3.8371705038371706,13.676765036831862,4.2147559214603545,88.35625578906799,27.267643911217768,157.26900260095786,162.65132411881115,191.95652240399863,195.81052318476128
3.8705372038705375,15.515480861424994,4.2147559214603545,89.18946522954096,24.33692124597474,157.0544659644292,162.4980738109415,191.8754030177191,195.73223603083105
3.903903903903904,17.796028553676187,4.2147559214603545,90.16916146598152,22.03621283411063,156.86067309608677,162.34230293258543,191.7932021652843,195.64690153147663
3.937270603937271,20.374216754559583,4.2147559214603545,93.39656383046768,20.22613704895235,156.68990866174582,162.18822384696938,191.7137545256685,195.55953269259751
