Time,Left Shoulder Angle,Right Shoulder Angle,Left Elbow Angle,Right Elbow Angle,Left Hip Angle,Right Hip Angle,Left Knee Angle,Right Knee Angle
0.0,30.832921660145093,45.54427725710708,149.73188626492043,168.93960006173634,129.9224558530891,136.05047148418743,207.7875413529925,199.9320316462294
0.0333667000333667,29.92955125981073,44.557479768094986,146.49382814201766,168.89445286034152,130.33189274592792,137.75304549829056,204.83482592085903,199.49241680589185
0.0667334000667334,29.36879012300699,43.7029594556893,144.13458681252817,168.76613438260554,130.74575073169245,139.15304280040067,202.3728786081264,199.13580147957703
0.1001001001001001,29.125607958046963,42.972709925481695,142.59355170485537,168.5605329963613,131.161205150383,140.2681979066241,200.37575585278407,198.857112805866
0.1334668001334668,29.17497447324376,42.35872478306383,141.81011224740277,168.28353706944168,131.5754313419999,141.11624533306716,198.8175140928218,198.65127792334
0.1668335001668335,29.49185937691045,41.852997634027375,141.7236578685738,167.9410349696796,131.98560464654332,141.71491959583625,197.67220976622923,198.51322397057984
0.2002002002002002,30.05123237736016,41.447522083964,142.27357799677196,167.53891506490788,132.38890040401367,142.08195521103767,196.913899310996,198.4378780861668
0.2335669002335669,30.82806318290597,41.13429173846535,143.39926206040064,167.0830657229595,132.78249395441117,142.23508669477778,196.51663916511168,198.420167408682
0.2669336002669336,31.797321501860985,40.90530020312312,145.04009948786336,166.57937531166726,133.16356063773614,142.19204856316293,196.454485766566,198.4550190767064
0.3003003003003003,32.933977042538295,40.75254108352895,147.13547970756352,166.0337321988641,133.52927579398883,141.9705753322994,196.70149555334848,198.5373602288212
0.333667000333667,34.212999513251,40.66800798527452,149.6247921479046,165.4520247523829,133.8768147631696,141.5884015182936,197.23172496344884,198.66211800360736
0.3670337003670337,35.6093586223122,40.643694513951495,152.4474262372901,164.84014134005656,134.20335288527866,141.06326163725183,198.01923043485672,198.82421953964607
0.4004004004004004,37.09802407803498,40.671594275151534,155.5427714041234,164.20397032971792,134.50606550031634,140.41289020528043,199.0380684055617,199.0185919755184
0.4337671004337671,38.65396558873245,40.7437008744663,158.85021707680806,163.5494000891999,134.78212794828292,139.65502173848577,200.26229531355355,199.24016244980547
0.4671338004671338,40.25215286271771,40.85200791748747,162.30915268374744,162.88231898633543,135.0287155691787,138.80739075297416,201.66596759682176,199.48385810108832
0.5005005005005005,41.86755560830384,40.98850900980671,165.85896765334508,162.20861538895733,135.24300370300395,137.88773176485196,203.223141693356,199.744606067948
0.5338672005338673,43.47514353380394,41.14519775701567,169.43905141400433,161.53417766489852,135.42216768975896,136.9137792902255,204.907874041146,200.0173334889657
0.5672339005672339,45.04988634753139,41.31406776470635,172.98879339413008,160.86489418199324,135.5633828694452,135.90326784520215,206.694221078183,200.29696750272404
0.6006006006006006,46.30774793484912,41.62856683540712,175.8430433503838,160.27145533375509,135.62267133494345,134.73603266647703,208.02025118960904,200.63136122357696
0.6339673006339673,47.58305449422657,41.897322526529095,178.43024261681776,159.71923037464734,135.63183942451485,133.61416441348533,209.38712721171075,201.1211417962604
0.6673340006673341,48.69205916419735,42.0627900503128,180.43928103961923,159.14941947423793,135.4689980771404,132.7342564566723,211.02902277509523,201.36907286362649
0.7007007007007008,49.59901379888255,42.17092885639632,182.22781818459228,158.6770246381619,135.16419218527676,132.01227731205054,212.9586006308789,201.4578627844731
0.7340674007340674,50.362374999798746,42.23365664101532,183.79359851953933,158.18879657094027,134.98458417712442,131.34042074153172,214.6984187939218,201.58190153473808
0.7674341007674341,51.07134321704228,42.333559310732426,185.1619483747536,157.7159224017355,134.79894862298264,130.68381176370303,216.42558810865623,201.71650904196545
0.8008008008008008,51.69575890778047,42.45009098427192,186.31387771770483,157.40234185126428,134.6167396522058,130.09169029332685,218.26266178581747,201.7697660969656
0.8341675008341676,52.11038904006371,42.59052783314964,187.1129052913908,157.17435576724662,134.4512697505692,129.44329177452386,220.3155682129332,202.0141173314632
0.8675342008675342,52.331299068386905,42.78383240276877,187.89617462917,157.20690315576644,134.28222089250724,128.9432255092565,222.3848539341287,202.1296178957684
0.9009009009009008,52.26408930743958,42.74748500867697,188.4025324773178,157.21989040818926,134.10969447331388,128.6957369563803,224.1849517010929,202.0492203839899
0.9342676009342676,51.9607226399779,42.43921846446824,188.46286667881,157.27744897045005,133.9367786523247,128.67145216024306,226.442301912904,201.82113537050395
0.9676343009676344,51.35190532839094,41.97460571144345,188.0993700618213,156.96452344303586,133.90175578520592,128.8191012044945,228.18656528363903,201.5043042461153
1.001001001001001,50.45530228111254,41.18023839888274,188.06414736585555,156.97116053861956,133.8961568360537,129.18678512430435,229.33146765305503,201.02078198123127
1.0343677010343677,49.39312079178539,40.08113814270774,187.9330511359184,156.89800093272953,133.67194862515868,129.74582237329065,230.5829523623692,200.41116928219736
1.0677344010677343,48.19246040001731,38.84397966049089,187.80367618879228,156.7044262785098,133.78010467987744,130.39035743054575,231.1691680753179,199.77206932304816
1.1011011011011012,46.88585693521728,37.22623745199118,187.7725636837848,155.8717382839123,133.9547773333531,131.22321957562855,231.2255097148624,198.8684030935561
1.1344678011344678,45.0181478210032,35.03527826797006,188.4939884908024,155.23334207637242,134.0051863919659,132.21438260230914,230.77588883129812,197.78763652812293
1.1678345011678346,42.85065303739548,32.73088536166496,189.76670144032963,154.7761333735374,134.04326534391635,133.22676816855662,229.63693227646428,196.64801781808583
1.2012012012012012,40.37960913537832,30.240400372278355,191.30555856189807,154.3168598400317,134.0656346611712,134.32844055148854,228.04727059675093,195.4387333063032
1.234567901234568,37.942725563262414,27.82728193445803,192.64063402779635,153.35718514303292,134.08223362677234,135.57130990351044,225.9106472950461,194.120742904494
1.267934601267935,35.49114518484944,25.539377829754702,196.1149469227176,152.0601998106158,134.14678996970903,136.87385391980544,223.2291468138548,192.8509357799508
1.3013013013013013,32.95568858959188,23.41454019455813,199.1277787324803,150.3586846642451,134.25931145275098,138.1727217007343,221.8588480220422,191.5193944801383
1.334668001334668,30.790839513221066,21.33641485812176,201.8528561950728,148.70215056810315,134.65139521929527,139.43032694929587,220.29828072163804,190.39140254494976
1.3680347013680347,28.46772470124734,19.288713970820066,203.8804775853372,145.95070485491078,134.87227121158787,140.72934692079076,219.19300845641672,189.2557434922521
1.4014014014014016,26.31314917408515,17.453992201772717,205.2938631564168,143.2896903823341,134.86323158751048,141.9018815602452,218.5398092827328,188.2056470094977
1.4347681014347682,24.3314073861304,15.875002806480047,206.0421096990656,143.02807246391262,134.88033193665788,143.0811577172799,218.02320010013983,187.17913576539456
1.4681348014681348,13.199935417982305,14.68425974743836,205.95083229004004,144.39813452440418,134.92311458698163,144.27934083298885,217.06117987374844,186.11136113606045
1.5015015015015016,5.888774725541395,13.837142051719557,205.0003672786155,145.75331152447873,134.80005836218925,145.51971437816633,215.17267622867567,184.91248191053103
1.5348682015348682,1.7061902074843012,12.9106765438388,203.7334138446479,146.5109591211709,134.55549354942312,146.57573162701678,213.95030664737607,183.9316893121898
1.5682349015682349,1.7061902074843012,12.437939264171348,201.7263523369132,146.97915036531893,134.18098310491197,147.3296671452719,213.14423634583372,183.4269966331832
1.6016016016016017,1.7061902074843012,4.290080134447564,199.351042692114,146.94493462192912,133.7234296992968,148.06132039249644,212.40283482330915,182.7802496702725
1.6349683016349683,1.7061902074843012,4.290080134447564,196.6096158868923,146.5784811002187,133.17804147027283,148.71120140011513,211.6477483062413,182.1390344748156
1.6683350016683351,1.7061902074843012,4.290080134447564,193.7124227977765,146.4010787045904,132.69361270853912,149.275640307307,210.85862203965576,181.6583229797412
1.7017017017017018,1.7061902074843012,4.290080134447564,190.79204516262004,145.76548632206055,132.15770028298817,149.75261564462068,210.09327512335616,181.2382372969772
1.7350684017350684,1.7061902074843012,4.290080134447564,187.75739214387508,144.72160603342485,131.57721774562992,150.06831047579547,209.514644452857,181.072508019034
1.7684351017684352,1.7061902074843012,4.290080134447564,184.93086891064763,143.58904187723715,130.87828617680086,150.25836467987008,209.35460282747945,181.0409334336441
1.8018018018018016,1.7061902074843012,4.290080134447564,182.1416624289983,142.07204008907917,130.16535974415132,150.46926295857693,209.47413674965708,180.8997833043132
1.8351685018351689,1.7061902074843012,4.290080134447564,179.40629587202474,140.29897338407224,129.4653347790038,150.53702219681728,209.83848103566007,180.97128409788183
1.8685352018685355,1.7061902074843012,4.290080134447564,176.72579064587302,138.42434197716935,128.9054563225972,150.50550384371527,210.2369297785833,181.1880222357728
1.901901901901902,1.7061902074843012,4.290080134447564,174.1692419718731,136.58980544374754,128.2203159554469,150.4189796212083,211.11093712187,181.48831692320525
1.9352686019352687,1.7061902074843012,4.290080134447564,171.74702155483808,134.73899798356703,127.50508513203296,150.29510477089062,212.3317239678865,181.8284917673174
1.968635301968636,1.7061902074843012,4.290080134447564,169.43869096189502,132.87293761584036,126.75203343402664,150.07283273715822,213.76817337505503,182.3330521721276
2.002002002002002,0.7435713912993522,4.290080134447564,167.2089068071727,130.79221637886135,126.01723466464291,149.9649248427484,215.24753588189893,182.67189170742955
2.035368702035369,2.3476773837135143,4.290080134447564,165.0726814546486,128.3316687544714,125.24521459495016,149.84306149080768,216.78304770597163,183.10263800206445
2.0687354020687354,2.3476773837135143,4.290080134447564,163.0452322796323,125.67479724907074,124.4726138542934,149.61970430044457,218.55409946023087,183.6874083645565
2.1021021021021022,2.3476773837135143,4.290080134447564,161.47301828794022,122.82490668142724,123.73117412202645,149.39044833776848,219.62289215635343,184.3580257859628
2.135468802135469,2.3476773837135143,4.290080134447564,160.6116626501658,120.1770337641648,122.88948540648676,149.1654797211344,220.76480551378955,185.06505797553285
2.1688355021688355,2.3476773837135143,4.290080134447564,159.76124159909352,116.91876477762128,122.09759640211122,148.87434480450432,222.06827026951865,185.89134809620592
2.2022022022022023,2.3476773837135143,4.290080134447564,159.35523644568897,113.500653564976,121.6703538649131,148.53982763900697,222.67760564051505,186.739056226254
2.235568902235569,2.3476773837135143,4.290080134447564,160.0334703202543,109.72755453446324,121.10669105895671,148.22229002493702,223.233071494692,187.54247664092503
2.2689356022689355,2.3476773837135143,4.290080134447564,160.91249209073928,106.27082163313467,120.45942317097946,147.98205964760348,223.7111001739393,188.34771179685657
2.3023023023023024,2.3476773837135143,4.290080134447564,161.6190262378678,102.41815803850692,119.8778309853449,147.7801235984588,224.1221360232084,189.16811525222235
2.335669002335669,2.3476773837135143,4.290080134447564,162.5680752585801,98.11153070935262,119.40183389340235,147.64888466454627,224.59356725051984,189.94719332957456
2.369035702369036,2.3476773837135143,4.290080134447564,163.53513083242285,93.26448423520158,119.17748420129163,147.61722998666878,224.85911573721967,190.67012300658425
2.4024024024024024,2.3476773837135143,4.290080134447564,165.18809864563286,88.58198544774673,119.1221570224563,147.66646339917307,225.18880089503864,191.27984572190903
2.4357691024357693,2.3476773837135143,4.290080134447564,164.4483206870403,84.16734498479155,119.07862201715986,147.72975337331374,225.9072030955894,191.81586079507787
2.469135802469136,2.3476773837135143,4.290080134447564,163.52297833735534,80.4605051811938,119.1742013469797,147.92394357398732,226.4610771971437,192.25416739817632
2.5025025025025025,2.3476773837135143,4.290080134447564,162.04938953536802,77.27350182380263,119.05605624057787,148.16553287882516,227.33027600857872,192.6120252173576
2.5358692025358693,2.3476773837135143,4.290080134447564,160.2181519621705,76.19299332931996,119.1621850310256,148.4420693511024,227.83620351857104,192.91525589894383
2.569235902569236,6.344200929989071,4.290080134447564,158.0639584458191,76.6511130168519,119.55288143485708,148.7983923573099,228.101564308914,193.13068788013044
2.6026026026026026,12.486380931879118,4.290080134447564,155.52758650353232,75.69284347486752,119.99483208334784,149.28003232316792,228.1323245555305,193.1617080822561
2.6359693026359694,20.516408108711698,4.290080134447564,153.21215675087333,73.45686794459318,120.56253455684777,149.82554956126097,227.97596986304643,193.07324324587265
2.669336002669336,30.284803286357256,4.290080134447564,151.11084164630094,71.02880061307218,121.31982196841992,150.507143862945,227.6269700388572,192.7510933565424
2.702702702702702,41.52632050023204,4.290080134447564,148.90996737099633,68.8336025617875,122.10771798459513,151.2481724592355,226.0145724680384,192.267960894132
2.736069402736069,54.18145194305268,4.290080134447564,147.13094422321117,66.59529365028848,122.97500145879376,151.76135942920956,225.27786596527903,191.9785157439921
2.7694361027694363,67.97317756323501,4.290080134447564,145.48061851260806,64.51827354586045,123.79557419156146,152.27555897298004,223.9720662025241,191.7698642915316
2.802802802802803,82.7904610304445,4.290080134447564,144.13688336206928,62.45193313884833,124.70546143726014,152.73853522010853,222.7611484859152,191.59935283094
2.836169502836169,98.35120596945995,-0.8099493188835094,142.95235333545614,60.42314358892695,125.6059482964919,153.07348619774936,221.92031599678447,191.585257786574
2.8695362028695364,114.3636250084493,-3.1013071516289363,142.16528565502904,58.6533542971472,126.3458838660892,153.35748762100448,221.50813427328623,191.6569610390411
2.902902902902903,130.64808196463235,-2.361725439226187,141.67381599410743,57.13814136666265,127.06696132179486,153.3538946869336,221.4596056314944,192.11806786818445
2.9362696029362696,147.0844339801146,1.0782637260776964,141.4287811695879,55.93433323446808,127.68709641259744,153.11882024529055,221.80771487504708,192.77117004578704
2.9696363029696364,163.4094265338217,6.788566494816176,141.44841933048298,54.98857148130848,128.2335006219025,152.89117452358377,222.5228018730269,193.31350325570705
3.003003003003004,179.5642736230918,14.826712124054794,142.35430096317933,54.25234363818355,129.01615607374,152.60289903321095,224.1749816416883,193.8565739425066
3.0363697030363697,195.24087845836104,24.939212601650848,143.42924903640082,53.61992366509842,129.5797667554609,151.9947156344549,225.4225201400924,194.7239681982754
3.0697364030697365,210.1837770337962,36.72420427026261,144.99068144832268,52.20335182459078,129.9234463019461,151.11936103352062,226.76384810476367,195.83196435401905
3.103103103103104,224.1419804373524,49.883619491172894,146.20315985908815,49.9230253223097,129.97414140712718,150.00782417632644,228.35195762627973,197.1536157236314
3.1364698031364697,236.93462471294043,64.21874588007596,145.46189608290732,47.56666834254121,129.89800166136305,148.81270731299657,229.82856926597927,198.6403889378715
3.169836503169837,248.47422480970897,79.34287154222902,144.31223604240097,44.88110856345776,129.73280668846752,147.27912388890235,231.26645258180707,200.371887293144
3.2032032032032034,258.16708833371257,95.08449467823868,136.11356296031124,42.35594070166373,129.53957334414292,145.54038265518008,233.8717615655769,202.24583990272123
3.2365699032365702,266.5556337100298,111.05749737512753,129.77394367292192,39.98784648672602,129.41225187610402,143.73484214002102,236.08350131906093,204.23989694504075
3.2699366032699366,273.5568588569013,127.13104033010508,126.14851223110423,37.75249633310559,129.4372743557377,141.85113170887135,238.0313534919053,206.23664072206645
3.3033033033033035,279.04323482077695,143.15604287470717,123.55774463385698,35.86311982750181,129.37424429675949,139.87421802445226,239.66161285783707,208.3622306382428
3.3366700033366703,282.6493758924753,158.89942166825168,124.44887043333394,34.42065122467515,129.0832874354398,137.92812135600118,241.0445281615876,210.5263055687336
3.3700367033700367,284.3047636561973,174.3858912894542,125.34773137343524,33.48983848624062,128.77624183884748,136.03894882034135,242.1114667914036,212.81065785609792
3.4034034034034035,284.0193685205001,189.32873512872723,126.78911171490483,32.99209712612519,128.33927883068597,134.05751788253136,243.0426487256175,215.20050007022328
3.4367701034367704,281.2975725893751,203.53828270077,128.5409241138729,32.854400526270126,127.76950766675472,132.0274121018234,243.8004495144237,217.5555540428459
3.4701368034701368,276.36625356117315,217.03478610413936,130.56182760341866,32.91193786687104,127.14939229769809,130.10048950011492,244.4992928628428,219.8265769513124
3.503503503503504,268.99909245103845,229.93966931553027,134.26800490945527,33.70329213288433,126.55429431797631,128.20789920524933,244.9493944677725,222.06285531806685
3.5368702035368704,259.13590209543764,242.01442452598428,138.44920679435708,35.071039543183616,126.0157956145216,126.41468762856115,245.2558001291,224.15498605018124
3.5702369035702373,259.1771459990197,253.1575779810961,143.09692627120268,37.25415750441675,125.49538860983938,124.66427145488272,245.4439554194456,226.21474812622992
3.603603603603604,259.0088515048369,262.9360750994905,146.9786770712988,40.13035725164939,124.95921963741628,123.29540921547084,245.4241069471105,227.9088661337732
3.6369703036369705,258.8975823630886,271.1912174501712,150.28201670440367,43.471758944970176,124.50085794638552,122.1919553367326,245.01050682424287,229.3054245602997
3.670337003670337,258.62113015731114,277.67302784435407,153.4787455670099,47.6587276038284,124.1150308634663,121.26435484978988,244.1688535079504,230.63589497258144
3.703703703703704,258.3864706679303,282.334365557206,156.0927361022587,52.77780386779484,123.86242560469468,120.6766085813537,242.9452830531125,231.7597851140875
3.737070403737071,258.10713169328693,285.27493497218506,158.55107222124246,58.795099196792535,123.65009802357186,120.4281212105194,241.27320480509152,232.5846778355307
3.770437103770437,257.7655359213639,286.2640967895651,161.01445363918612,66.66928486997874,123.63576842543516,120.54538804383948,239.3159380634508,233.0705710529403
3.803803803803804,257.33016778789454,285.32085304995894,162.90500881617635,77.37727824888269,123.78665918810285,121.06033955388445,236.8189915557664,233.23378378238
3.8371705038371706,256.9124376523572,282.0678236366965,164.4429562456987,85.146202149312,123.9746531551924,121.60327612063026,233.7738366660174,233.295212255678
3.8705372038705375,256.5022528945023,276.4568352458409,165.37356561624597,93.6313881796938,124.36196706124034,122.19566758152187,231.95849556945944,233.373698941968
3.903903903903904,256.0509953022464,268.95407917481384,167.26566316072646,102.24874075497608,124.78156477356715,123.01571305688364,229.39868711684372,233.2773072450479
3.937270603937271,266.03638042134304,259.1425825276472,168.49760337609192,109.2935902865324,125.38231827753808,123.73189427576136,227.51086314106567,233.3643514222934
