Time,Left Shoulder Angle,Right Shoulder Angle,Left Elbow Angle,Right Elbow Angle,Left Hip Angle,Right Hip Angle,Left Knee Angle,Right Knee Angle
0.0,69.42925380274488,48.18102094472174,145.1736934349416,143.13725647474365,145.49935318466697,154.48033867794143,204.4492077494357,192.76711687970496
0.0333667000333667,48.5100806358477,44.92308221120321,152.11509914299975,158.7521237328665,147.47816987038811,154.81431177027977,202.52283876434493,193.82819728100685
0.0667334000667334,31.09684864277165,41.99135204107154,158.0411092154278,171.50947840218814,149.15989275571238,155.27587980783048,200.8222450706292,194.6132524356691
0.1001001001001001,16.982500622655962,39.370459818098624,163.01237337616078,181.58100316248868,150.5600525095673,155.85064910840768,199.3375198206909,195.1438810296736
0.1334668001334668,5.959979374639865,37.045034926056346,167.0895413491336,189.13838069354807,151.6941798008805,156.52422598982545,198.05875616693257,195.441681749002
0.1668335001668335,-2.177772302137427,34.99970674871659,170.33326285828136,194.3532936751464,152.5778052985795,157.282216769898,196.97604726175643,195.52825327963623
0.2002002002002002,-7.637811608536666,33.21910466985124,172.80418762753902,197.39742478706364,153.22645967159187,158.11022776643932,196.07948625756487,195.42519430755803
0.2335669002335669,-10.627195745418632,31.6878580732322,174.56296538084158,198.44245670907983,153.65567358884516,158.99386529726365,195.35916630676047,195.15410351874925
0.2669336002669336,-11.3529819136441,30.39059634263134,175.67024584212402,197.66007212097497,153.88097771926695,159.91873568018505,194.8051805617454,194.73657959919169
0.3003003003003003,-10.022227314073843,29.31194886182056,176.18667873532138,195.2219537025292,153.91790273178475,160.87044523301765,194.40762217492207,194.19422123486711
0.333667000333667,-6.841989147568626,28.43654501457173,176.17291378436863,191.29978413352228,153.78197929532618,161.83460027357555,194.15658429869308,193.54862711175736
0.3670337003670337,-2.0193246149892445,27.74901418465676,175.6896007132008,186.0652460937345,153.48873807881876,162.79680711967293,194.04216008546052,192.82139591584425
0.4004004004004004,4.238709082803567,27.233985755847527,174.79738924575287,179.6900222629457,153.05370975119007,163.74267208912386,194.05444268762704,192.03412633310955
0.4337671004337671,11.725054744949064,26.87608911191592,173.55692910595985,172.34579532093602,152.49242498136763,164.65780149974245,194.18352525759485,191.20841704953503
0.4671338004671338,20.23265517058639,26.659953636633823,172.02887001775676,164.2042479474854,151.82041443827904,165.52780166934284,194.4195009477664,190.3658667511026
0.5005005005005005,29.55445315885477,26.57020871377313,170.27386170507856,155.43706282237383,151.05320879085187,166.33827891573915,194.75246291054407,189.528074123794
0.5338672005338673,39.48339150889353,26.591483727105725,168.35255389186028,146.2159226253815,150.20633870801365,167.0748395567455,195.17250429833024,188.71663785359092
0.5672339005672339,49.812413019842026,26.708408060403737,166.3255963020382,136.71251003628953,149.29533485869317,167.72308991017738,195.6697182635289,187.95315662647693
0.6006006006006006,59.15186217610963,26.79891426720152,165.49814917093096,127.87816049721135,148.01088184544705,168.12778565357294,196.50697463683025,187.3955346651023
0.6339673006339673,68.4467585219118,26.29211339178166,166.05599982691638,118.97292077307344,146.8910363307809,168.32087754854817,197.42290728525995,187.1331445034243
0.6673340006673341,76.60335981060146,25.827702412451284,166.05070643263886,113.36451140069984,145.86295335035953,168.15730195853365,198.18524998139995,187.30063392893723
0.7007007007007008,83.71565117149618,24.57364454507906,167.06010400111606,109.70392787298276,144.83352914739854,167.9475673292827,198.74239154917143,187.85658318605303
0.7340674007340674,88.45133591818146,21.039247555947576,167.02900266431485,97.03285642461849,143.81296257833793,167.61597589563615,199.59373198929725,188.3867384667079
0.7674341007674341,85.46114529086321,15.026801356800236,165.44749582839873,89.5601693670242,143.01529445869886,167.08835241055746,200.4427640275642,189.04209905484112
0.8008008008008008,83.76444731462907,11.296342455907006,163.540107651002,83.27455649042672,142.32569346113303,166.38060061323966,201.317861831043,189.797867708149
0.8341675008341676,83.07680454081529,9.378382110334773,162.2555411287436,79.30068593049941,141.8448792471197,165.63163694129554,201.9658833631943,190.455563105414
0.8675342008675342,83.91073002957586,9.61640550342376,160.61908758969275,77.19771689465111,141.56463734674855,164.6822187398137,202.40543390596287,191.14588427644208
0.9009009009009008,86.12594892087498,11.786952853498756,158.85888421433444,76.59687928959553,141.449759445887,163.66814836391478,202.58354233920605,191.86337714902248
0.9342676009342676,89.57299833647542,16.095234265066296,157.13914453147157,77.09357764371349,141.59783463831505,162.67942476792695,202.4596984321317,192.51377997509945
0.9676343009676344,94.17887711206662,22.490314234533297,155.74768015554235,78.60821680802316,141.91290540639977,161.6819328199754,202.05351272087125,193.0260057007068
1.001001001001001,107.96845501684405,30.29003506460013,154.49255460795743,81.56994819798703,142.33897567821745,160.69848856815207,201.3757474752552,193.3186101026093
1.0343677010343677,120.58967347375138,39.63035840327523,153.30852803345883,86.34979457878049,142.930159980554,159.76050528725608,200.39325702551548,193.4057530380682
1.0677344010677343,131.59069262625175,50.02088715397471,151.86420920574994,91.7024386423158,143.73994800633682,159.0135249788719,199.2324417728384,193.2867978658388
1.1011011011011012,135.92230421064878,59.402486335645726,151.156670608053,100.43423467449443,145.120633343227,158.31049474306715,197.45110217589664,193.42379541386268
1.1344678011344678,139.89398424275666,69.71422482834002,150.0420106835633,109.48645468780435,146.61633479943697,157.69395164371218,195.51680733958528,193.41604017469183
1.1678345011678346,143.50612374937225,80.95548557787522,148.42410645247674,118.62683760302406,148.20372042901565,157.17712660033376,193.455572081016,193.24456358064083
1.2012012012012012,146.7591137572929,93.12565153006868,146.20683493499072,127.62312234093272,149.85945828601317,156.77325053246005,191.2934112173021,192.89039706402573
1.234567901234568,149.65334529331594,106.22410563073768,143.29407315130274,136.24304782230985,151.56021642447965,156.4955543596191,189.0563395655572,192.3345720571626
1.267934601267935,152.18920938423872,120.25023082569952,139.58969812161018,144.25435296793475,153.28266289846513,156.3572690013391,186.7703719428948,191.5581199923675
1.3013013013013013,154.36709705685865,135.20341006077166,134.9975868661105,151.42477669858704,155.00346576201977,156.37162537714812,184.4615231664281,190.54207230195644
1.334668001334668,156.187399337973,151.0830262817713,129.4216164050011,157.52205793504595,156.69929306919366,156.5518544065743,182.15580805327087,189.2674604182455
1.3680347013680347,157.65050725437925,167.88846243451587,122.76566375847943,162.31393559809123,158.34681287403689,156.9111870091458,179.87924142053637,187.7153157735508
1.4014014014014016,158.7568118328747,185.61910146482265,114.93360594674296,165.56814860850176,159.92269323059955,157.4628541043907,177.6578380853381,185.8666698001882
1.4347681014347682,159.50670410025668,204.27432631850888,105.8293199899891,167.0524358870574,161.40360219293174,158.2200866118371,175.5176128647895,183.70255393047395
1.4681348014681348,159.90057508332262,223.8535199413921,95.35668290841528,166.53453635453758,162.7662078150836,159.19611545101316,173.48458057600405,181.20399959672403
1.5015015015015016,159.93881580886983,244.3560652792895,83.4195717222189,163.7821889317213,163.98717815110518,160.404171541447,171.58475603609517,178.3520382312545
1.5348682015348682,159.6218173036957,265.7813452780184,69.92186345159745,158.56313253938856,165.0431812550466,161.8574858026667,169.84415406217636,175.12770126638142
1.5682349015682349,158.94997059459754,288.1287428833963,54.767435116748345,150.64510609831845,165.91088518095793,163.56928915420042,168.288789471361,171.51202013442082
1.6016016016016017,157.9236667083728,311.39764104124026,37.860163737869016,139.79584852929034,166.5669579828893,165.55281251557628,166.94467708076257,167.4860262676888
1.6349683016349683,156.54329667181872,335.58742269736786,19.1039263351569,125.783098753084,166.98806771489086,167.82128680632238,165.8378317074946,163.03075109850136
