Time,Left Shoulder Angle,Right Shoulder Angle,Left Elbow Angle,Right Elbow Angle,Left Hip Angle,Right Hip Angle,Left Knee Angle,Right Knee Angle
0.0,18.977931869748595,31.0407063562334,151.52632026159557,170.15331711284173,138.41998446998628,142.0209906799018,203.2794827185197,196.312879771304
0.0333778371161548,19.77586784897472,30.708744277494752,152.94766949915413,169.83121821317434,138.7257871919168,142.18812786083294,203.1420990436121,195.99688207258367
0.0667556742323097,20.412949808120743,30.408429524604685,154.08087226136536,169.51279809703388,138.9924104586093,142.3354932969948,203.0198608969543,195.71206270715217
0.1001335113484646,20.901459756971835,30.13875996460941,154.94822652626902,169.19955612139853,139.22146885993718,142.46374526014867,202.91177434017288,195.4572931825793
0.1335113484646194,21.253679705313168,29.898733464555136,155.5720302719049,168.89299164324646,139.41457698577378,142.57354202205573,202.81684543489465,195.2314450064348
0.1668891855807743,21.48189166292992,29.68734789148809,155.9745814763128,168.59460401955587,139.57334942599255,142.66554185447723,202.7340802427463,195.0333896862886
0.2002670226969292,21.598377639607257,29.503601112454493,156.17817811753247,168.3058926073049,139.6994007704668,142.74040302917447,202.6624848253546,194.8619987297105
0.2336448598130841,21.61541964513036,29.346490994500563,156.20511817360375,168.0283567634718,139.79434560906998,142.7987838179086,202.60106524434624,194.71614364427032
0.2670226969292389,21.545299689284388,29.21501540467252,156.07769962256637,167.7634958450347,139.85979853167544,142.8413424924409,202.5488275613479,194.5946959375379
0.3004005340453938,21.400299781854528,29.10817221001657,155.81822044246013,167.5128092089718,139.89737412815657,142.86873732453256,202.5047778379864,194.49652711708308
0.3337783711615487,21.192701932625948,29.024959277578944,155.44897861132483,167.27779621226125,139.90868698838676,142.88162658594487,202.4679221358884,194.42050869047569
0.3671562082777036,20.934788151383824,28.96437447440585,154.99227210720025,167.05995621188129,139.89535170223942,142.88066854843908,202.4372665166807,194.36551216528548
0.4005340453938584,20.638840447913324,28.92541566754353,154.4703989081262,166.86078856481004,139.8589828595879,142.86652148377635,202.41181704199,194.3304090490824
0.4339118825100133,20.317140831999623,28.907080724038178,153.9056569921424,166.68179262802573,139.80119505030564,142.83984366371797,202.3905797734429,194.31407084943612
0.4672897196261682,19.9819713134279,28.908367510936024,153.32034433728867,166.52446775850655,139.72360286426596,142.80129336002517,202.3725607726664,194.3153690739167
0.5006675567423231,19.64561390198332,28.928273895283283,152.73675892160483,166.39031331323062,139.62782089134225,142.75152884445916,202.3567661012869,194.3331752300938
0.5340453938584779,19.32035060745105,28.96579774412617,152.17719872313063,166.2808286491762,139.51546372140797,142.69120838878123,202.3422018209313,194.3663608255373
0.5674232309746329,19.018463439616426,29.01993692451117,151.66396171990706,166.19751312332278,139.3881459443376,142.62099026475374,202.327873993228,194.4137973678186
0.6008010680907877,19.01606108829223,29.16197587112504,151.6899300699749,166.2183395491975,139.2091031126433,142.50112841264985,202.28798220629943,194.484783821828
0.6341789052069425,19.087220133694306,29.303783458105965,151.81922567129564,166.28881284231696,138.9902243718785,142.37689138604514,202.2548095846041,194.5681372487923
0.6675567423230975,19.19998370542025,29.44960635899684,152.01973270936227,166.38626550641462,138.74989124489937,142.2322570785229,202.2357712219056,194.65910497670907
0.7009345794392523,19.351384902170107,29.598536919523387,152.31885256653788,166.5088152634424,138.54912518860465,142.08074701888012,202.1703663370365,194.7471764402121
0.7343124165554072,19.55832062881957,29.73446828473532,152.72096122990746,166.6193957499678,138.3576310644314,141.92325359946125,202.0883977487218,194.84123073439287
0.7676902536715621,19.81157311558307,29.86821995848112,153.19229210719843,166.75260806097074,138.1713089735951,141.78427906998016,202.01352532036412,194.9418957365576
0.8010680907877169,20.10357198418948,30.002974699700644,153.74753969983217,166.9325288566995,137.9912871128886,141.660580602009,201.9780858675305,195.04292934493623
0.8344459279038718,20.446760364812,30.151393136538783,154.42689503050116,167.17025740685432,137.85486729925344,141.55793314956426,201.9484935994537,195.1331732575154
0.8678237650200267,20.82810920439204,30.30862129197749,155.17987384553186,167.4307879500799,137.74056147355347,141.4745950074134,201.9235621395609,195.2347362226856
0.9012016021361816,21.2221008086108,30.42236515190873,155.98008696261812,167.63165155296656,137.65706857253528,141.39781705490356,201.8962353317583,195.34802533816577
0.9345794392523364,21.65255209238293,30.472629092780355,156.89287958264836,167.74435602354288,137.61113542277278,141.3475263524421,201.86764352138,195.47192483751724
0.9679572763684912,22.111263601041188,30.488052011185065,157.928939227441,167.84450892483906,137.65155584233813,141.34127694665116,201.78561917026005,195.58707762498645
1.0013351134846462,22.598422313717748,30.4683867572597,159.06837446539373,167.93309536468684,137.76187078135072,141.3705433234165,201.64184291747108,195.68902841953687
1.034712950600801,23.08701270112857,30.433937274845363,160.25470247739173,168.02309339940746,137.90858228791134,141.4257377675493,201.49064138632508,195.789195314199
1.068090787716956,23.57684864999536,30.367190836919622,161.48431313292502,168.09796282208197,138.0790564333117,141.51337164912084,201.3388388677025,195.88961166405565
1.1014686248331107,24.066854092134445,30.257812091358467,162.7273351425919,168.144018097274,138.24831105248867,141.61739688184684,201.2205251766865,196.00759585137573
1.1348464619492658,24.556652497783567,30.13713326073093,163.97633406909353,168.19498623637293,138.4256058958557,141.75775470414763,201.1347545285492,196.1389152242008
1.1682242990654206,24.99472647886858,29.94265803329556,165.13808074015134,168.1200644585504,138.61118685310177,141.91525565913776,201.08041023186192,196.283421771064
1.2016021361815754,25.380880431826046,29.73588890351765,166.21903819350268,168.06704221179317,138.7918047928801,142.0879407283185,201.04302713517552,196.4403990597173
1.2349799732977302,25.709266606435783,29.48982197302096,167.19966836801237,167.94088858809693,138.94594876610986,142.28473261351036,201.06456882665165,196.607573459226
1.268357810413885,25.982777638485963,29.25619205085088,168.0832333852085,167.82698827895817,139.1151667747589,142.5252244039805,201.08222100654643,196.77026476210065
1.30173564753004,26.210472860771368,29.03487041563953,168.8896505087094,167.69627590477918,139.29416810482627,142.79982003341811,201.1222256540621,196.93238839311653
1.335113484646195,26.370197044930222,28.810716303136186,169.49731954564348,167.45211638215932,139.4686690934861,143.11373146695536,201.1988555056761,197.0879774864788
1.3684913217623498,26.42797024232386,28.591094879727645,169.96502345927493,167.2111885324352,139.5395602828523,143.4214578710494,201.3522925218328,197.25894550574583
1.4018691588785046,26.37794768931053,28.34501535067943,170.18561694537715,166.98660076688972,139.56995221497596,143.72673477455444,201.5155010282625,197.4396121371878
1.4352469959946594,26.40043888993513,28.017955341506287,170.53631933743907,166.69022052509575,139.5770176526361,144.04121746425403,201.69366645410724,197.62077381742776
1.4686248331108145,26.273734228417528,27.69597996452827,170.71639801428358,166.51940177606352,139.53728032677316,144.3722770332645,201.92038502232865,197.79015268218447
1.502002670226969,26.10950031925333,27.38081613486728,170.901097726312,166.3935008453566,139.4474869816944,144.7157938296757,202.1774444041804,197.9397723125498
1.535380507343124,26.12430592213714,27.014274586454395,171.46245771577003,166.235251696911,139.31712362100723,145.00800662092863,202.43393006697963,198.0916051029102
1.568758344459279,26.142779722557417,26.650237921367463,171.90607301493915,166.1704885798901,139.14281387261582,145.27705360157174,202.67733674092096,198.24563566179577
1.6021361815754338,25.99455503465733,26.22763440008085,172.04453832065522,166.0689802865739,138.9628187829408,145.54817487301926,202.87187879190856,198.39761452872628
1.6355140186915886,25.84683247435662,25.76970175757745,171.777795772847,165.9617881256149,138.7454980617742,145.80911239330834,203.04564586204657,198.54772963218056
1.6688918558077437,25.69681868232436,25.354943304340093,171.61183852974145,165.88083137576925,138.47180070111125,146.0598962230578,203.23119117788937,198.69164791608355
1.7022696929238983,25.44567552119269,24.91685935870683,171.46769778703768,165.84537905378951,138.12278135762895,146.29225068286416,203.4383142083116,198.8267491409241
1.7356475300400531,25.201630096754503,24.548630268622524,171.54464616932916,165.80906492991215,137.71529873479432,146.50466717525123,203.6437975053448,198.9580114935773
1.7690253671562082,24.62325350221188,24.15839537687272,171.6259993792928,165.72629699652825,137.28319536401398,146.70892481345018,203.88953177007403,199.0679298547909
1.802403204272363,23.941585585163605,23.716689878977856,171.32851535167944,165.63695097055634,136.8606318157819,146.9201248742432,204.1385898368262,199.16002242900225
1.835781041388518,23.051905156830426,23.23962724693602,171.37355029281343,165.71018378042342,136.45685817489235,147.14890810804914,204.38243971529928,199.2272910404968
1.8691588785046729,21.84749343900837,22.797626224887534,171.46032782768776,166.1738482555303,135.9881642323709,147.39084799724867,204.6976161474504,199.2815273314232
1.902536715620828,20.695267836803414,22.160956445199083,171.05207453344087,166.62183364116137,135.52180276649688,147.63394215384298,205.04410964245645,199.3426931946932
1.9359145527369823,19.564827490231284,21.439292207036857,170.6513984785877,167.19769368819405,134.9429545171526,147.88200104285957,205.48009404223868,199.36374611615489
1.9692923898531367,18.477668926099987,20.72261653641601,169.99992418197192,166.6798320252163,134.40220277074633,148.12990045083538,205.9235518027384,199.36222343265263
2.0026702269692924,17.371809887651292,19.89465702975748,169.24203582232877,167.1834383238429,133.9272674008688,148.62653083263658,206.33290754032552,199.3631166021575
2.036048064085448,16.14950471980819,18.75301718459004,167.9149479335821,168.82336074238253,133.47471800819386,149.05111629655983,206.87419584657155,199.37520097725485
2.069425901201602,14.805581539192554,17.9805833652968,167.21435863384656,167.94358078657592,133.04854699597422,149.40171361088792,207.51356539038923,199.3585655163691
2.102803738317757,13.47138351281904,16.922652955010715,166.69149778845537,166.06295042179357,132.5885118288077,149.68147583702157,208.1380599270804,199.35272436051383
2.136181575433912,11.62509458355786,15.869227631902069,166.98216109546635,160.9358919477885,132.317945925862,149.86297292776982,208.8275618411361,199.40967403160923
2.1695594125500666,10.385423939942402,14.607179681021758,166.99331579874948,154.40830124864038,132.1106848553405,149.93976662801978,209.6358546121394,199.4844379883216
2.2029372496662214,8.89499688445832,12.72810462198553,167.66279235157995,151.66501793734136,131.9877188220731,149.84471008432993,210.33812346855663,199.7133331221664
2.236315086782376,7.643875142408762,10.958352336499049,168.2559814223413,148.17308261238625,131.89045812138613,149.65299743532327,211.02632050275787,200.01065248954552
2.2696929238985315,6.4187116493159735,9.90891388243195,168.91768943688217,143.30324520777023,131.83560779094194,149.49907422865937,211.71126866964343,200.1033723142548
2.3030707610146863,5.828018055198221,9.369240231024047,168.789506780082,136.25777903128116,131.8255510962984,149.32276057988597,212.39574632731532,200.2032031163889
2.336448598130841,4.411310794373078,9.249567606477928,169.9168523732408,131.30350250200402,131.84444792568027,149.1886695126687,213.0566351992161,200.13996883708748
2.369826435246996,4.347218366996262,9.13519807128871,169.70890905128493,125.62752219119858,131.94833927613507,149.00378266476082,213.72668798992305,200.23487732916664
2.403204272363151,4.347218366996262,9.447103957751148,168.5050224195232,120.84633522931064,132.13155886226025,148.86232714695666,214.3556898166997,200.33224350827132
2.4365821094793056,4.347218366996262,9.906155543079546,166.3819331525874,109.30529643758226,132.30146442158795,148.95497463057643,215.27737519466217,199.85013799236185
2.4699599465954605,4.347218366996262,10.673204146036989,165.1881980804259,101.1246378881401,132.86916256910652,149.44217621971032,223.5476527570764,206.2966242329028
2.503337783711616,4.347218366996262,10.161869783939276,163.07020158325875,94.1904564976622,133.26343020769545,149.47806106194096,221.74386756715776,203.41938924309864
2.53671562082777,4.347218366996262,9.714148700249652,160.789363902404,87.83083763863064,133.70734320509055,149.0525730223104,219.99148611402063,201.4419909276056
2.570093457943925,4.347218366996262,9.7766211814163,158.7826392861245,82.442411064711,134.23743973117593,148.52573486348606,218.16750495457944,199.7108361902059
2.60347129506008,4.347218366996262,10.313668293132393,153.919945550217,78.01310749561954,134.75349159844814,148.14358376023037,216.3892857466961,197.7355007465348
2.636849132176235,4.347218366996262,11.863203401597048,150.1146762032128,73.59026119862175,135.22845645691186,147.84204248350196,214.69108982659708,195.63213091401423
2.67022696929239,4.347218366996262,12.533272072950076,144.95685483474415,70.41727306165689,135.72159568699382,147.4807132042356,213.0129194579322,193.7012590607244
2.7036048064085447,4.347218366996262,13.259597207705951,140.02745247735825,67.68071583074249,136.2332919775193,147.1600241526855,211.38741044100223,191.90639964085616
2.7369826435247,4.347218366996262,13.710831200604003,136.47292161448212,65.16016457725561,136.77292599013398,146.78979045360353,209.74977114697865,190.3982140076501
2.7703604806408544,4.347218366996262,14.70858480180758,128.96867122618926,63.92343276702676,137.3684640542624,146.17437787995175,207.9034172956431,189.58643313487408
2.803738317757009,4.347218366996262,16.053569002937124,122.3970356270229,63.53128458887828,137.9477091750659,145.7784874895648,206.2129892310326,188.5381767828397
2.837116154873164,4.347218366996262,17.563855563940482,116.16048675128984,64.04926995849743,138.54279680761607,145.42157815604196,204.5911902998228,187.6330544343084
2.870493991989319,4.347218366996262,19.374704554293103,109.53281472623937,65.41820864020649,139.09201773717848,144.8331822206522,203.0991065104351,187.405965443277
2.9038718291054737,4.347218366996262,21.306953817024187,102.90064565565125,67.70191841437465,139.53962631797927,144.31361794141208,201.8430285823796,187.2886817861925
2.937249666221629,4.347218366996262,14.994328144474087,96.95148039071454,70.91344952221282,139.9149175055268,143.96396670029873,200.7162928358552,187.1085355213596
2.970627503337784,4.347218366996262,11.365030789490744,92.01769333388368,75.40027785226613,140.23775831667643,143.75196760045733,199.84218415097624,186.98152671136145
3.004005340453938,4.347218366996262,10.289361646734044,87.20341361280641,80.32173228345945,140.49938608796873,143.77907767973434,199.054063744604,186.82081558644143
3.037383177570093,4.347218366996262,12.02154379307534,82.61002370049005,84.96217817835313,140.650482977646,143.91965647480365,198.6129312791674,186.69577747859407
3.0707610146862483,4.347218366996262,16.08452325847388,78.58397268801258,90.32949401217206,140.75401493083962,143.9127260560141,198.49698413501568,186.5809710363665
3.104138851802403,4.347218366996262,21.99459129277369,74.76583097322337,95.14145443424572,141.05770206889107,144.02085884241492,198.5620835351257,186.5872289803125
3.137516688918558,4.347218366996262,29.41113953491352,72.515256193233,100.74637027201256,141.33479958671157,144.31483730488625,198.8722758766096,186.79014329388104
3.170894526034713,4.347218366996262,38.33943739142049,71.87561548425293,104.4306927560271,141.46710643979537,144.47398549553458,199.5559629904848,187.19440139739072
3.204272363150868,4.347218366996262,48.81553705085808,73.30980306266639,105.17095125153368,141.58768693276025,144.67811739165515,200.44383904556383,187.74195161996565
3.2376502002670224,4.347218366996262,60.00648801058767,75.49145002107353,106.34098280197816,141.73423463068798,144.9243904746523,201.46929328488508,188.4613391552416
3.2710280373831773,4.347218366996262,72.37358288219832,79.02748271941272,106.80204304533692,141.9699295052553,145.21973244452235,202.72857233208657,189.3205107728461
3.3044058744993325,4.347218366996262,85.50242450386868,82.91570273830959,109.60969999030492,142.035379050095,145.56734953629234,204.1870302572696,190.27684711848963
3.337783711615488,4.8280533055447,99.54985380269407,88.1731999368335,114.00634894791412,142.01419727321522,145.98146686707642,205.80251645119472,191.3637694992952
3.371161548731642,6.162772817634108,115.16183505421672,93.42502531464596,113.86453017762688,141.89721856649433,146.5639610350734,207.73253368868416,192.3988683968089
3.404539385847797,6.863734728901584,131.5324752910662,99.14476367738293,112.76718661230588,141.76972321604606,147.30242346360157,209.90620585556624,193.4017813330461
3.437917222963952,8.540332415796575,147.782914118077,104.92177114597176,111.65425683509832,141.63591411250678,148.10401944536443,212.31833258347945,194.6143910752461
3.4712950600801067,10.42475415733693,163.78072694108286,111.4420733626417,112.14919657420732,141.52034838443714,148.94091268932178,214.9658129739292,195.85410035790176
3.504672897196261,12.85883750455393,179.30693363103805,117.47304712719196,109.92813181715304,141.32524383810332,149.8317615581574,217.8731508445672,197.30145806907285
3.5380507343124163,15.284004821886532,194.32364049061013,125.32582189947918,106.53324254629914,141.009359477153,151.3610729729828,220.906648063763,198.5662452141792
3.571428571428571,18.1912669889704,208.6200459007345,133.16035230239004,100.50325103052305,140.80549761151406,152.71379335018187,224.11124412440603,199.76880608302528
3.604806408544726,21.188859790361533,221.86376912604783,140.24091184011067,101.62359514811509,140.78830205376747,153.83299332855975,227.1514251014832,201.539855306935
3.638184245660881,24.40751161715498,233.8947500039788,145.29148851897654,101.24443365505776,140.40050217764733,154.15733671886446,220.4357354265218,194.2337015558351
3.671562082777036,27.808712596981405,246.79914561702785,150.6053534191912,99.78106941591776,140.24165774232551,154.51799256716345,221.2582874971293,194.2252696319501
3.704939919893191,23.70348700692833,259.12686388180754,153.2355037397339,98.80425153745522,140.04868582581258,155.10787379306095,222.0718404103546,193.5124010154116
3.7383177570093458,21.79278311122096,269.5743486311591,154.60487637280238,98.49960320302186,139.64902765556695,155.66394178274948,223.08589434009207,192.5976535103825
3.7716955941255006,22.04943724108353,278.3455238739944,157.68418126211208,98.2767841667456,139.18722893864074,156.04747552284832,224.13687049713943,192.0109086888441
3.805073431241656,25.026616288217227,284.4225045991922,158.47053670516524,98.9769796968776,138.75290002016573,156.11560047750388,225.16470428639929,191.82264542502185
3.83845126835781,29.668804518811307,288.9839512613075,158.98998097505643,100.49780140095812,138.33481198854255,155.9253469474684,226.15232989095023,191.9377744298372
3.871829105473965,36.0559409342308,292.1383650006575,158.24303660761294,102.03901059243016,137.8847557909307,155.34659124094617,227.09668434269537,192.48339976877955
3.90520694259012,43.61171900606904,305.17911069731986,154.78501334552968,108.35564203786656,137.4230433992989,154.46650226497,227.95504791739967,193.271016163024
3.9385847797062734,52.60181070910656,307.992465703009,157.81995409156798,105.21959429105488,136.91297082874163,153.64686908013263,228.930005992232,193.7260614940679
