Time,Left Shoulder Angle,Right Shoulder Angle,Left Elbow Angle,Right Elbow Angle,Left Hip Angle,Right Hip Angle,Left Knee Angle,Right Knee Angle
0.0,27.532812394972307,19.686284329734093,163.1531267149928,156.96157106656972,131.90261338015284,135.98109170517097,208.18553126297408,204.24493594817787
0.0333667000333667,30.206572364459824,26.57199749252949,161.9214335269688,157.9624403182151,131.71251496411418,134.55911210932615,207.65840172266445,205.50010449969085
0.0667334000667334,32.29339270616667,32.01114073996357,161.18757971362757,159.07085673818366,131.5286422630389,133.4059529792601,207.20833085146344,206.53400861374152
0.1001001001001001,33.838973973695154,36.11594217866987,160.90361157009255,160.24960699009148,131.35276465685823,132.50635127735123,206.8303278350496,207.3588937264205
0.1334668001334668,34.88901672064759,38.99862991528194,161.0215753914872,161.46147773755462,131.18665152550324,131.84504396597805,206.5194018591012,207.98700527381817
0.1668335001668335,35.48922150062627,40.77143205643331,161.49351747293494,162.66925564418915,131.03207224890517,131.40676800751905,206.2705621092969,208.4305886920252
0.2002002002002002,35.68528886723352,41.54657670875754,162.27148410955922,163.8357273736111,130.8907962069951,131.17626036435266,206.07881777131504,208.7018894171321
0.2335669002335669,35.522919374071634,41.43629197888818,163.30752159648344,164.92367958943657,130.7645927797043,131.1382579988574,205.93917803083409,208.81315288522944
0.2669336002669336,35.047813574742925,40.55280597345876,164.55367622883105,165.89589895528164,130.6552313469638,131.27749787341173,205.84665207353257,208.77662453240768
0.3003003003003003,34.3056720228497,39.00834679910282,165.9619943017255,166.71517213476235,130.56448128870483,131.57871695039412,205.7962490850889,208.6045497947574
0.333667000333667,33.342195271994264,36.91514256245393,167.4845221102902,167.3442857914948,130.49411198485856,132.02665219218306,205.7829782511815,208.3091741083691
0.3670337003670337,32.20308387577892,34.38542137014561,169.0733059496486,167.746026589095,130.44589281535613,132.60604056115702,205.8018487574889,207.90274290933337
0.4004004004004004,30.93403838780599,31.53141132881141,170.68039211492416,167.88318119117906,130.42159316012868,133.30161901969444,205.84786978968955,207.39750163374072
0.4337671004337671,29.58075936167777,28.46534054508489,172.25782690124026,167.71853626136306,130.4229823991074,134.09812453017386,205.91605053346183,206.8056957176817
0.4671338004671338,28.188947350996568,25.29943712559959,173.7576566037204,167.214878463263,130.45182991222345,134.98029405497368,206.00140017448427,206.13957059724683
0.5005005005005005,26.80430290936469,22.14592917698902,175.13192751748792,166.33499446049504,130.50990507940796,135.93286455647245,206.0989278984353,205.41137170852667
0.5338672005338673,25.47252659038445,19.117044805886778,176.33268593766633,165.04167091667517,130.59897728059212,136.9405729970486,206.2036428909934,204.6333444876117
0.5672339005672339,24.239318947658305,16.32501211892643,177.31197815938074,163.29769449542107,130.72081589570814,137.98815633908166,206.3105543378386,203.81773437059425
0.6006006006006006,24.95843747045852,17.472051580956673,177.62439759565424,159.03094821941707,130.89336748456094,138.83771450391555,206.39832087660773,203.0766160385759
0.6339673006339673,16.22731374797963,18.82954622056838,175.54373005471297,154.5065787264053,131.10179111523817,139.70802224688578,206.41159046909257,202.32656893132807
0.6673340006673341,11.065435818429972,20.14817376962744,172.8172952991692,149.2933751201404,131.40720593999944,140.61760267073257,206.35430477794296,201.5564376739568
0.7007007007007008,8.341587327945565,21.631663162064854,170.39979884324077,143.64698924287185,131.78353031633156,141.56541664663234,206.26455612998865,200.7800402905885
0.7340674007340674,7.997563153811377,23.4463105098643,168.29774170972078,137.77013557122976,132.20313594818,142.5711336413641,206.15309214709296,200.01136734090744
0.7674341007674341,9.57913033781875,16.83292627309328,167.2364073590812,130.7734984432959,132.5922003301621,143.82745923432083,205.90874136661577,199.28764424233287
0.8008008008008008,13.409766330555614,13.096094167228411,165.37932314232697,124.09544926506264,133.18230044269072,144.91544971976654,205.67362306251124,198.61051133849185
0.8341675008341676,18.96572250455742,20.829335644237865,163.96983808873523,117.9386221328951,133.8103762880343,145.7479468374634,205.4044625133464,197.957171159172
0.8675342008675342,26.93977635353452,28.63909946469475,162.02250980679838,112.0874999124606,134.27463864583504,146.75748979633792,205.07224230177536,197.2118520559164
0.9009009009009008,35.961969910850634,37.388813462606514,161.76191916944956,108.77949463156294,134.6816874655552,147.84441968705306,204.750019175524,196.34541628730136
0.9342676009342676,54.36760081128759,41.36427809562981,162.1156165883043,95.29475504678916,135.3441811663206,148.5069457956447,204.51532514753663,195.30259825225824
0.9676343009676344,64.12596091588415,49.286046624564285,159.05503541930943,93.62070977090195,136.2607801503984,149.15470419317413,204.30351049147143,194.2305486455121
1.001001001001001,83.93741443011467,56.12438594249186,158.27626190489474,87.7795509894932,136.82143454656912,149.37708476772613,204.50855661604115,193.319694695244
1.0343677010343677,102.31322825902312,64.48907478875364,153.5263353336393,83.44608987633467,137.2958403071646,149.4303903125646,204.83751190805324,192.66103215489915
1.0677344010677343,118.44020051421624,71.94867507549857,150.06740473734246,79.9137996631805,137.5660556575788,149.07437049310428,205.6115024335048,192.47431485975028
1.1011011011011012,133.11018442453732,78.41314556010587,147.04214559673045,76.68778986389913,137.3785983437201,148.0817432718902,206.9883421605909,193.09327368324983
1.1344678011344678,146.19152490138237,83.72808598249144,143.73926620584308,73.6975871337224,136.8097329817833,146.80165587449835,208.6756002957495,194.3007133693628
1.1678345011678346,157.49961872991028,88.2264378030146,140.91860672449445,72.43693339095518,136.1175582009426,145.54754221577974,210.5343257755949,195.6854022524244
1.2012012012012012,167.81517472316864,91.76704722451085,140.07818949092092,72.97312091958257,135.49397016944158,144.29928483208346,212.0542639270216,197.21272691560392
1.234567901234568,175.9523673568694,94.84576855541148,139.9507306385144,74.0594568919685,134.94685232593963,143.02023215817573,213.36007956986364,199.04299606044947
1.267934601267935,181.8237525996205,96.93781075604268,140.24168877237258,77.03198845012633,134.55800878194188,141.83896513247583,214.42430908738504,200.9039842258501
1.3013013013013013,185.0899605260732,97.94909045604577,139.94076262324953,81.44626690907042,134.30266568847856,140.90819189105224,215.2808941633334,202.6415011046458
1.334668001334668,186.27445718051783,98.20074532617402,140.60733418623474,84.94666715254115,134.11762137568635,140.20555464032333,215.95933345745365,204.23616444645924
1.3680347013680347,183.6154134186,97.31393414862492,142.57824447970026,88.98019658973342,133.95158347703932,139.50003079788354,216.482092416328,205.6914590388545
1.4014014014014016,180.12313355222707,95.2496305344393,144.89488177345214,92.18829668896764,133.9893662840609,138.81997744699527,216.72863877269452,206.9967161399742
1.4347681014347682,165.33414561433327,82.72400934110793,143.80831351753648,89.97624848118365,134.19955040706563,138.15873580813462,216.6933964570873,208.1946942651677
1.4681348014681348,152.4501565261201,71.74067730537868,143.3969123920409,89.93361458858563,134.49244648508252,137.54659575322327,216.3578721708588,209.2639284517337
1.5015015015015016,140.87164838177878,61.82738211901943,140.64949989846795,89.1004327326498,134.90297509339123,137.05780058618004,215.7169187655124,210.12913348496824
1.5348682015348682,130.10224300715203,53.97471802681084,137.37896392219267,87.37444754950471,135.47878001580827,136.66372135299665,214.68406783540345,210.8622600173477
1.5682349015682349,121.3103194055317,47.75870913046227,135.10357045805574,87.83560950396715,136.29931413064648,136.42490186188644,213.3120871725211,211.3694679217676
1.6016016016016017,112.31428536743336,42.11470647614711,133.3626981003127,89.44786329827673,137.34776761348033,136.4036297198767,211.6614721396459,211.556774867634
1.6349683016349683,103.29944410939709,37.93100728654632,129.5939561275168,90.88727991675016,138.54487745791783,136.541961260873,209.7392535831564,211.4796849771496
1.6683350016683351,94.4663476410505,55.82813216239968,125.51879106199438,92.62933020945768,139.7804754283487,136.89008088393825,207.62674759151932,211.00945749790824
1.7017017017017018,93.9358038817764,65.24878384153574,122.18672967954964,95.06422150610564,140.9840260567519,137.5105492054912,205.379025543076,210.2316504586844
1.7350684017350684,91.213762493496,72.99649910891809,118.41327043918456,98.14013761264604,142.22461175490386,138.42225246863512,202.81183353766968,209.109927505692
1.7684351017684352,85.18408648531673,79.25178745210768,113.02945334098231,100.2572214437089,143.6413181148206,139.55516109451133,199.99434248199844,207.70427778338453
1.8018018018018016,89.05606487554627,83.81761990157338,109.34721846172268,101.28536931628156,145.20909657964097,140.9517156611797,197.0574683146557,206.0094055927628
1.8351685018351689,92.59448375691952,86.85618192589025,106.18987658334692,101.80769109720995,146.8627395027416,142.50386435969102,193.8662900580132,204.04544380436587
1.8685352018685355,96.56698201328918,88.6525370430691,102.74666950392402,101.6794924144615,148.58014677811153,144.2229746070541,190.6093918567868,201.819535756324
1.901901901901902,111.5170290524768,103.16337133402206,98.6550027807872,102.88605363803327,150.50944143402253,146.17588993383623,187.24239337047013,198.45166895869983
1.9352686019352687,126.65734733518548,117.23539438094028,94.40213890774773,103.81919847782854,152.4183651449146,148.15057803162713,183.99842136013052,195.014201642708
1.968635301968636,141.4395290704132,130.38215550140396,89.98520155827003,104.41241216922394,154.2826324072379,150.11552302843293,180.93121616068183,191.57239771874256
2.002002002002002,155.3151664671609,142.11720401299496,85.4013144058198,104.59917994759716,156.07795771744384,152.0392090522608,178.09451810703968,188.19152109719943
2.035368702035369,167.73585173442856,151.95408923329498,80.64760112386267,104.31298704832578,157.78005557198367,153.8901202311179,175.54206753411964,184.9368356884744
2.0687354020687354,178.1531770812164,159.4063604798854,75.72118538586426,103.48731870678746,159.3646404673087,155.63674069301146,173.32760477683752,181.8736054029632
2.1021021021021022,186.0187347165247,163.98756707034804,70.61919086529022,102.05566015835988,160.80742689987034,157.2475545659487,171.5048701701089,179.06709415106187
2.135468802135469,190.7841168493541,165.21125832226477,65.3387412356062,99.9514966384206,162.08412936611984,158.6910459779367,170.1276040488495,176.58256584316604
2.1688355021688355,191.9009156887046,162.59098355321711,59.87696017027783,97.10831338234728,163.17046236250854,159.93569905698283,169.24954674797493,174.4852843896717
2.2022022022022023,188.82072344357604,155.64029208078713,54.23097134277073,93.45959562551757,164.04214038548776,160.94999793109417,168.9244386024009,172.84051370097458
2.235568902235569,180.99513232296988,143.87273322255598,48.3978984265506,88.9388286033091,164.67487793150886,161.7024267282779,169.2060199470431,171.71351768747064
2.2689356022689355,167.87573453588482,126.80185629610573,42.37486509508301,83.47949755109946,165.04438949702313,162.1614695765413,170.14803111681715,171.1695602595555
2.3023023023023024,148.9141222913228,103.94121061901802,36.15899502183365,77.01508770426638,165.1263895784819,162.2956106038915,171.80421244663867,171.27390532762522
2.335669002335669,123.56188779828324,74.8043455088742,29.747411880268142,69.47908429818739,164.89659267233648,162.07333393833574,174.2283042714234,172.09181680207547
2.369035702369036,91.27062326576652,38.90481028325635,23.13723934385212,60.80497256824022,164.33071327503825,161.46312370788112,177.47404692608703,173.6885585933022
2.4024024024024024,51.4919209027733,-4.243845740254045,16.32560108605125,50.92623774980245,163.40446588303843,160.43346404053494,181.5951807455452,176.12939461170117
2.4357691024357693,3.677372918302978,-55.128073244075296,9.30962078033116,39.77636507825167,162.0935649927885,158.95283906430438,186.64544606471347,179.47958876766822
