Time,Left Shoulder Angle,Right Shoulder Angle,Left Elbow Angle,Right Elbow Angle,Left Hip Angle,Right Hip Angle,Left Knee Angle,Right Knee Angle
0.0,29.415015537894256,36.24391574557751,166.05124042855817,168.68021104663936,130.32086693076002,124.86456110799809,212.1036712776461,222.3929394203616
0.0333667000333667,30.176550581283426,35.73194228730637,166.21245512888254,168.2076005766745,129.627215536644,124.85294224556242,212.51012017170447,222.15462173845407
0.0667334000667334,30.863268515729725,35.29117685554892,166.38442107219197,167.7739152420601,129.02385261530551,124.83699849792065,212.8560120354815,221.94468393215388
0.1001001001001001,31.47785584323848,34.91749536701324,166.56534178383436,167.376707823557,128.5050865896456,124.81783046323544,213.1457965040073,221.76147488355852
0.1334668001334668,32.02299906581498,34.60677373840741,166.7534207891576,167.0135311019261,128.0652258825654,124.7965387396695,213.3839232123119,221.60334347476584
0.1668335001668335,32.50138468546455,34.35488788643953,166.94686161350958,166.68193785792826,127.698578916966,124.7742239253855,213.5748417954254,221.4686385878733
0.2002002002002002,32.91569920419251,34.15771372781767,167.1438677822382,166.37948087232434,127.39945411574844,124.75198661854613,213.7230018883779,221.35570910497856
0.2335669002335669,33.26862912400414,34.01112717924992,167.34264282069134,166.1037129258752,127.16215990181392,124.73092741731402,213.83285312619927,221.26290390817928
0.2669336002669336,33.56286094690478,33.91100415744436,167.54139025421688,165.85218679934175,126.98100469806342,124.7121469198519,213.90884514391988,221.18857187957303
0.3003003003003003,33.80108117489972,33.85322057910908,167.7383136081627,165.62245527348483,126.85029692739808,124.69674572432244,213.9554275765696,221.1310619012576
0.333667000333667,33.98597630999428,33.83365236095216,167.93161640787676,165.41207112906534,126.764345012719,124.68582442888832,213.97705005917848,221.0887228553304
0.3670337003670337,34.12023285419377,33.848175419681674,168.11950217870688,165.2185871468441,126.71745737692729,124.68048363171218,213.9781622267767,221.0599036238892
0.4004004004004004,34.206537309503496,33.89266567200573,168.30017444600094,165.03955610758203,126.703942442924,124.68182393095674,213.96321371439427,221.0429530890316
0.4337671004337671,34.24757617792878,33.96299903463239,168.47183673510688,164.87253079203998,126.71810863361024,124.69094592478469,213.93665415706124,221.0362201328552
0.4671338004671338,34.24603596147491,34.05505142426974,168.6326925713726,164.7150639809788,126.7542643718871,124.70895021135864,213.90293318980773,221.0380536374576
0.5005005005005005,34.204603162147215,34.164698757625885,168.7809454801459,164.5647084551594,126.80671808065568,124.73693738884134,213.86650044766373,221.0468024849365
0.5338672005338673,34.125964281951,34.287816951408885,168.91479898677474,164.41901699534264,126.86977818281709,124.77600805539544,213.8318055656594,221.0608155573896
0.5672339005672339,34.01280582289185,34.420281922327135,169.0324566166083,164.27554238229075,126.9377531012735,124.82726280918456,213.80329817882645,221.07844173691623
0.6006006006006006,33.82121264782472,34.51994087562708,169.14738331227147,164.115633098257,127.0075949799047,124.91241180845998,213.81000449823765,221.11232576275432
0.6339673006339673,33.61152224476681,34.60263585498803,169.12951159658573,163.886549187417,127.05512051055356,125.02260799062324,213.8463792713856,221.1208656071113
0.6673340006673341,33.401184083443155,34.68730829494276,169.06246084608782,163.5931408547217,127.08381211741874,125.12547845619852,213.92858227525812,221.1325678578016
0.7007007007007008,33.225499491434455,34.76406463189716,168.9755577433958,163.32182930659485,127.00451290261545,125.25025929073502,214.0682568908843,221.12893211445103
0.7340674007340674,33.06735887305128,34.84148736850441,168.85783455904897,162.93530247773137,126.86061204505042,125.35662312817836,214.2589922860573,221.1741287202952
0.7674341007674341,32.884105465706384,34.93368808848967,168.74983231877056,162.60855232145886,126.69319527646068,125.46818245838968,214.46570478059692,221.2260565320644
0.8008008008008008,32.715779475093655,35.022390476343865,168.7154328272164,162.35648678172464,126.47992872362936,125.5946882559954,214.7116768608628,221.2723388211232
0.8341675008341676,32.55077717364158,35.09753314892669,168.77413540595313,162.16875941693195,126.24319331508286,125.7509191462245,214.96953184377844,221.295403584512
0.8675342008675342,32.33616655784231,35.19099111930208,168.81870532780613,162.02872810091583,126.0402419051968,125.94651033953144,215.201039262961,221.2788726224295
0.9009009009009008,32.04480417201835,35.26536695476307,168.81933428960716,161.95739114187265,125.84504062444458,126.17826877724812,215.4417506413497,221.22942161501007
0.9342676009342676,31.73134464201416,35.302605828564275,168.70376157285102,161.92781119408903,125.64468310038738,126.42829662151053,215.6943588617396,221.1448326445936
0.9676343009676344,31.373032691637302,35.33144392370656,168.5429142052047,161.9748772641521,125.43760152902964,126.71251162132764,215.9403753450545,220.9951195072495
1.001001001001001,30.994661480192228,35.53386423461638,168.93243135273883,162.26295718635035,125.21645186555426,127.00259216769864,216.21078590337385,220.8013062016648
1.0343677010343677,30.58568736297044,35.60092864714688,169.26897030813404,162.452604337815,124.99264606832968,127.3328087826528,216.49688702721747,220.56403714566005
1.0677344010677343,30.221082518510222,35.65173962338967,169.29974405806195,162.6821067716237,124.80349985593912,127.70463040756184,216.77258711323464,220.28918809277087
1.1011011011011012,29.836958661495785,35.57450506194339,169.19225167831954,162.85336620113182,124.64325413060568,128.11248809412575,217.04345728921024,219.97524515069284
1.1344678011344678,29.49218659186409,35.47007528567195,169.07023529513287,163.00784315084425,124.52012460965328,128.53619986559437,217.311359253029,219.6344980139283
1.1678345011678346,29.073681177806336,35.28305016571029,168.98253307750903,163.11463498034044,124.40433742020866,128.96493253036732,217.5703628103676,219.2836016807451
1.2012012012012012,28.729511559366337,35.155377758173806,169.14075799844522,163.31714009593088,124.34796403467162,129.41601970643134,217.7798926841872,218.91312473185044
1.234567901234568,28.35081041662293,34.91109574833054,169.44018593506564,163.51547127393593,124.35657708192753,129.92642954257985,217.91939655883616,218.52530850705696
1.267934601267935,27.794985479305865,34.50723977402328,169.66738508981425,163.67041978879124,124.3587602374401,130.47037183368622,218.03408642300008,218.1173205758401
1.3013013013013013,27.13198794582172,33.92685842077648,169.8926596028954,163.7019761703632,124.38870953980135,131.050944231849,218.09438462293892,217.68896342756443
1.334668001334668,25.97348204604135,33.34116802686001,169.96850307533788,163.6781418901562,124.44909899026356,131.66017231439818,218.1195917969933,217.24659896853785
1.3680347013680347,24.712212395945063,32.64319949043885,169.94010500303946,163.62062248867585,124.59958547090422,132.309033940388,218.09522836305692,216.78260618465933
1.4014014014014016,23.324392887890728,31.97841058778345,169.9572606023873,163.6222554086201,124.7917853970928,132.99377879528342,218.046587469692,216.3163722451652
1.4347681014347682,22.009698900763684,31.15708054087358,169.61166623812176,163.4743052921443,125.0062591785465,133.6887225031496,217.9877495157208,215.85625730482195
1.4681348014681348,20.66262598667104,30.148247925415927,167.37476582174472,163.4896421433167,125.1749911207173,134.34473355657408,217.9667552456333,215.4313621413576
1.5015015015015016,19.277240614170065,28.933464022311217,165.70647265189135,163.37520135678335,125.3518682211742,134.9892229031723,217.92201513172927,215.0245708135928
1.5348682015348682,17.937938017521596,27.559491783766,164.16534019103048,163.15806252054884,125.5126711232862,135.60150571304374,217.8384838365244,214.6385841416798
1.5682349015682349,16.555368557721756,26.03245226280592,166.24786249963364,162.6921249243128,125.61109033228648,136.2106775463014,217.82554191722832,214.28193375542563
1.6016016016016017,15.05160542269148,23.871287091469288,167.60006726587147,161.18500584991887,125.58796238096376,136.77573844687265,217.84948203638413,213.9822060038857
1.6349683016349683,13.652539272455144,21.824001369294702,165.83170452400796,159.59488838615306,125.56874574407576,137.31849754414375,217.89268590977,213.70673874921812
1.6683350016683351,12.480729647512131,20.15118749244697,167.27821825314675,156.97097565027337,125.5636065828894,137.81080731927673,217.9396721490233,213.47029768904883
1.7017017017017018,11.579050098008652,18.684223193833105,168.47085716918653,154.88631230981767,125.60106399211412,138.25679649118152,217.99874219192412,213.2560303515328
1.7350684017350684,10.809272714660375,17.30735892417806,169.5918312469986,156.25822957443114,125.5874407947281,138.64440281089773,218.0840659113153,213.07808651637745
1.7684351017684352,10.284510969703136,15.616775336741831,170.3972906522237,157.1119545288456,125.55976878681678,138.9844132085084,218.23145825079527,212.931688833838
1.8018018018018016,9.83240611248457,13.524708306680806,170.86184031023953,157.66410530411054,125.5626380127399,139.28228828676694,218.4491223906332,212.81052789001544
1.8351685018351689,9.536920588680864,11.555783934734578,170.8039878255058,157.68987379001817,125.59289790138403,139.55980769963494,218.70932741236572,212.70027221167183
1.8685352018685355,9.473117982042703,9.738383604742555,170.343748770732,157.6759526510606,125.60095864476038,139.78976359755154,219.04120860301904,212.61851172617725
1.901901901901902,9.676915301070473,8.36409105223344,169.64810985816908,156.50784033618206,125.6324367196561,140.02573008581712,219.3525904565836,212.48693101070444
1.9352686019352687,9.691949486912058,7.161115766590679,168.2898248770733,154.27521539969882,125.68119718559174,140.2332355334754,219.642061051222,212.3282505933696
1.968635301968636,9.952082726149616,6.211800369362027,166.682074101972,151.25117552384972,125.78560993968688,140.42136412072085,219.89455291852863,212.1484970457168
2.002002002002002,1.9157896161744348,5.049402385530199,165.3273508151842,145.92338350095213,125.95646744884824,140.53048954801042,220.15351079387804,211.99838998667127
2.035368702035369,1.9157896161744348,4.32176443092217,164.01821451897726,140.04162223233047,126.15514067353972,140.58836327835928,220.4173021090232,211.87347532821457
2.0687354020687354,1.9157896161744348,3.848368706034528,162.28497522610917,133.7455404104249,126.37890830783851,140.61614134840232,220.65267907348232,211.74138610400345
2.1021021021021022,1.9157896161744348,3.848368706034528,160.66892153141134,127.34403839219796,126.64028331512662,140.63637061499148,220.8531062586702,211.60557322885185
2.135468802135469,1.9157896161744348,3.848368706034528,159.35394285526684,120.91796165403748,126.92675927438071,140.6626415721159,221.02558269982225,211.4460856281524
2.1688355021688355,-2.8794763541269086,3.848368706034528,157.569220727035,114.51358901324072,127.26572398196213,140.7359582534115,221.14313237837283,211.25754794025025
2.2022022022022023,-4.071386352775006,3.848368706034528,155.582987998025,108.66523571612608,127.67771182613023,140.8380280035837,221.1959765621529,211.03760790014763
2.235568902235569,-2.587863591222389,3.848368706034528,153.99645837751848,103.1422414582538,128.1260719835247,140.9682905436986,221.20370983015763,210.7839528994025
2.2689356022689355,1.3482887304184112,3.848368706034528,152.83942426148806,98.01168112996886,128.59430723060015,141.11615111906514,221.1775791682436,210.50694068858155
2.3023023023023024,1.3482887304184112,3.848368706034528,152.01148768423138,93.21486291553325,129.07453541676625,141.3176136497984,221.118663536388,210.1959510897831
2.335669002335669,1.3482887304184112,3.848368706034528,151.48635685508782,88.84951899107942,129.58238307676672,141.56067551793555,221.0024696390024,209.85414515971144
2.369035702369036,1.3482887304184112,3.848368706034528,150.90529069634684,84.69936675181937,130.05910427661874,141.8366816221035,220.87735324467576,209.49142751412984
2.4024024024024024,1.3482887304184112,3.848368706034528,150.24615966392534,80.60482141887144,130.498585689546,142.1412028888225,220.7268936770856,209.11223840328253
2.4357691024357693,1.3482887304184112,3.848368706034528,149.69823411854676,76.90518412355644,130.95156059705153,142.47266525355866,220.53756574462787,208.7274690944956
2.469135802469136,1.3482887304184112,3.848368706034528,149.09738767293024,73.74445773736998,131.3888022070415,142.82646719615278,220.34509142091537,208.3429881164192
2.5025025025025025,1.3482887304184112,3.848368706034528,148.6737115362271,71.09875932793402,131.7884844198685,143.18825382366194,220.1602049400317,207.9706888216677
2.5358692025358693,1.3482887304184112,3.848368706034528,148.34420194020038,69.09104742920597,132.149193202753,143.55503127897097,219.9730138214855,207.62040368843347
2.569235902569236,1.3482887304184112,3.848368706034528,147.93250005492817,67.52594751199409,132.47713793256992,143.9014644526428,219.7884905896728,207.2940795734702
2.6026026026026026,1.3482887304184112,3.848368706034528,147.83323740689468,66.30475124536731,132.74487133975384,144.2236973716583,219.618706841014,206.9934158925276
2.6359693026359694,1.3482887304184112,3.848368706034528,150.33151848612877,65.2391561179859,132.99638194028338,144.53791029151105,219.439564455535,206.7006015562953
2.669336002669336,1.3482887304184112,3.848368706034528,153.4959344726383,64.60925651921221,133.1781991873144,144.84751916603068,219.2691204499424,206.42206305671127
2.702702702702702,1.3482887304184112,3.848368706034528,157.9620625281574,64.38154186469657,133.3113070561025,145.14569963178613,219.13943698868275,206.1659751236992
2.736069402736069,1.3482887304184112,3.848368706034528,159.18884991065025,64.64155635038595,133.37734938274193,145.42147369783993,219.0532629021411,205.9444892860648
2.7694361027694363,1.3482887304184112,3.848368706034528,160.62761125390676,66.4961551127598,133.49143250180862,145.6897273179712,219.01393770933544,205.7310969402856
2.802802802802803,1.3482887304184112,3.848368706034528,165.73928483076375,69.34551854468155,133.60084202075447,145.94906250382286,219.01150164052092,205.5424676058143
2.836169502836169,1.3482887304184112,3.848368706034528,168.16646703335,74.48262685650201,133.70168218111374,146.1985190745895,219.06833568621784,205.3652253290637
2.8695362028695364,1.3482887304184112,3.848368706034528,170.45361795142304,80.68796794113247,133.74919108141592,146.42534506832234,219.1807299538773,205.2134329730668
2.902902902902903,1.3482887304184112,3.848368706034528,172.28624817566873,83.8391780532434,133.85868192224592,146.64291821653683,219.3390226502637,205.06758228520235
2.9362696029362696,1.3482887304184112,3.848368706034528,173.83145325769448,86.8460660901654,133.9953856857211,146.85746372819156,219.5049386446371,204.9235931014801
2.9696363029696364,1.3482887304184112,3.848368706034528,175.04095492490097,89.1887248365999,134.11405113056443,147.04564402917546,219.6709334798157,204.79201250291663
3.003003003003004,1.3482887304184112,3.848368706034528,176.07495219373564,90.917212231979,134.15797079054596,147.2090475169077,219.87570583065263,204.6682546446418
3.0363697030363697,1.3482887304184112,3.848368706034528,176.90815346534248,91.05355968486371,134.19837938284135,147.35642682739785,220.04919396913863,204.540480214528
3.0697364030697365,1.3482887304184112,3.848368706034528,177.52420702927418,90.6788502027708,134.2414717050615,147.47137688965475,220.2654362058388,204.43634886386545
3.103103103103104,7.427459847998223,3.848368706034528,178.45453659224506,89.69652358372205,134.28551309769475,147.54292314698597,220.5237732963893,204.3893557747668
3.1364698031364697,15.660962474106652,3.848368706034528,179.3511661907073,87.82434436973458,134.33966276441222,147.57094164114088,220.7910220170812,204.3979853234339
3.169836503169837,25.543560860727844,3.848368706034528,179.75047827935262,87.10191093351924,134.40469040272563,147.61284529143887,221.01452938311027,204.4104049500793
3.2032032032032034,36.99137605207487,3.848368706034528,179.8005417061504,86.47328431346885,134.45414671624906,147.62454684879697,221.2148967749428,204.44342865786635
3.2365699032365702,49.5907099180609,3.848368706034528,180.14846759981745,86.05781047841307,134.4930224106431,147.62591581972242,221.4140305164364,204.4966162343308
3.2699366032699366,63.18926517984153,3.848368706034528,180.56165925650367,85.81344207794001,134.5305489968304,147.63386441636356,221.6304289404712,204.54960428793163
3.3033033033033035,77.37257924832066,3.848368706034528,180.84210791403083,85.80653630275076,134.55086244573934,147.63474238751172,221.8782537922196,204.64369352361
3.3366700033366703,92.09465796167166,3.848368706034528,180.95937802987496,85.99213481152346,134.5753140853744,147.64036778622068,222.1319085561369,204.7320476397488
3.3700367033700367,107.1947331735305,3.848368706034528,181.26063651997168,85.93724933070033,134.5786588028777,147.6433385341411,222.3980752735264,204.857903231273
3.4034034034034035,122.51442756073374,3.848368706034528,181.6547336702897,85.64154003392503,134.58067375837012,147.66312369340915,222.66414201257368,205.00714141524213
3.4367701034367704,138.26143768685986,3.848368706034528,181.95230975501028,85.15622534355091,134.5913674302247,147.69645131085312,222.90739136244045,205.1780825330922
3.4701368034701368,153.9526397788969,3.848368706034528,182.2207716380406,84.58833622318093,134.6044606319769,147.68008658351846,223.13839095312892,205.39119399716003
3.503503503503504,169.48827118376843,3.848368706034528,182.2890801677255,83.75023126363186,134.6059448774024,147.65084429005825,223.3641146028613,205.63964093635343
3.5368702035368704,184.4310672087799,3.848368706034528,182.53124598580973,83.06841341192774,134.64473501741688,147.6596719215771,223.58152605737547,205.8550766230935
3.5702369035702373,198.75880490324172,3.848368706034528,182.48795590273508,82.51847511692513,134.67489079424718,147.67917392110104,223.7928038627902,206.07501825194703
3.603603603603604,212.42187677569828,3.848368706034528,182.2355566376841,82.2795379981446,134.66636411334548,147.654322828334,223.9929660961548,206.33028092838288
3.6369703036369705,225.13337308414887,3.848368706034528,181.87172249172664,81.92130131790323,134.62112997565762,147.6109946557322,224.1784369448368,206.61973612660444
3.670337003670337,236.8250648085916,3.848368706034528,186.9584499664972,81.57533397579549,134.17993687209915,147.63117275106995,224.27789676216383,206.8874554601447
3.703703703703704,247.5197552172112,3.848368706034528,179.43696941058772,79.48211405381336,133.85344659448967,147.63937623420313,224.337128042268,207.17728321295755
3.737070403737071,256.91881280540827,3.848368706034528,184.5033348720038,80.57391436431374,133.75221727313902,147.67650013846128,224.40709810216435,207.4780528935165
3.770437103770437,264.7957191077069,3.848368706034528,187.67735420294736,80.05536105529855,133.7071329982258,147.69942098692843,224.4888513301984,207.81173666786532
3.803803803803804,270.9876528490043,3.848368706034528,187.08005560459253,78.15136373551888,133.7221141521648,147.60335633342606,224.7834098444619,208.1790859380181
3.8371705038371706,275.4838743588275,3.848368706034528,183.981480629082,76.11576562023248,133.68766483635895,147.4587474234895,225.1055052763088,208.6009060051672
3.8705372038705375,278.0110274290261,3.848368706034528,180.5740085682476,73.60892433719383,133.6904133975286,147.3424268140312,225.46738625598687,208.98574526021812
3.903903903903904,278.6645523612891,3.848368706034528,169.98150930080553,71.58039735554802,133.70946425554502,147.21103118436184,225.74541994738232,209.42022445647507
3.937270603937271,277.3254428604805,3.848368706034528,168.50032852920765,69.85810883670644,133.56760387503542,147.02217243034758,226.08901908512573,209.896260746198
