Time,Left Shoulder Angle,Right Shoulder Angle,Left Elbow Angle,Right Elbow Angle,Left Hip Angle,Right Hip Angle,Left Knee Angle,Right Knee Angle
0.0,73.32240214093268,56.04022940287869,163.9456723896088,161.04957222613191,139.07139090771489,133.27417789974447,200.63724442726223,199.44889456675972
0.0333667000333667,47.602278872906126,49.23906910148983,164.1153826368615,166.2344787220699,140.5727923888711,132.81549045456975,199.0690228558581,200.38128985274176
0.0667334000667334,27.12436302934595,43.324573825970845,164.43343660277205,169.78149311929704,141.610332349739,132.57110625934004,197.92565557319352,201.0972810448909
0.1001001001001001,11.524293825610073,38.244970326633705,164.88192315287463,171.8070989614988,142.21985484346308,132.52316838035074,197.175518863364,201.6133564980262
0.1334668001334668,0.4377104770563846,33.948485353790325,165.4429311527035,172.4277797923606,142.4372039231879,132.65381988389726,196.7869890104648,201.94600456696668
0.1668335001668335,0.4377104770563846,30.38334565775267,166.09854946779285,171.76001915556793,142.298223642058,132.94520383627503,196.7284422985915,202.1117136065313
0.2002002002002002,0.4377104770563846,27.49777798883267,166.83086696367693,169.9203005948062,141.83875805321787,133.37946330377946,196.96825501183932,202.12697197153923
0.2335669002335669,0.4377104770563846,25.24000909734228,167.62197250588994,167.02510765376084,141.09465120981213,133.938741352706,197.474803434304,202.00826801680927
0.2669336002669336,0.4377104770563846,23.558265733593416,168.45395495996613,163.19092387611735,140.10174716498526,134.60518104935005,198.2164638500805,201.7720900971607
0.3003003003003003,-6.499747800957181,22.40077464789806,169.3089031914397,158.53423280556112,138.89588997188184,135.360925460007,199.16161254326457,201.4349265674124
0.333667000333667,-9.652441793072724,21.71576259056812,170.1689060658449,153.17151798577763,137.51292368364636,136.18811765097232,200.2786257979515,201.0132657823833
0.3670337003670337,-9.384732283932337,21.451456311915564,171.01605244871595,147.2192629604523,135.98869235342343,137.06890068854142,201.53587989823671,200.52359609689245
0.4004004004004004,-6.060980058178117,21.556082562252328,171.83243120558708,140.79395127327058,134.35904003435755,137.98541763900968,202.9017511282156,199.98240586575892
0.4337671004337671,-0.0455459004521259,21.97786809189033,172.6001312019925,134.01206646791795,132.65981077959322,138.91981156867254,204.3446157719836,199.40618344380184
0.4671338004671338,8.297209404603521,22.665039651141534,173.30124130346644,126.99009208807983,130.92684864227505,139.85422554382544,205.83285011363608,198.81141718584004
0.5005005005005005,18.60292507234675,23.56582399031789,173.9178503755431,119.84451167744164,129.19599767554757,140.7708026307638,207.3348304372685,198.2145954466926
0.5338672005338673,30.507240318135445,24.628447859731352,174.43204728375676,112.69180877968884,127.50310193255524,141.651685895783,208.81893302697625,197.63220658117856
0.5672339005672339,43.64579435732756,25.801138009694142,174.82592089364297,105.64846693850797,125.8840054664437,142.47901840517963,210.2535341668564,197.08073894411848
0.6006006006006006,57.65422640528106,26.5146801578248,174.95966032740293,103.65315508300236,125.0562120104532,143.09281585808654,210.88940843346992,197.04698256029408
0.6339673006339673,72.1681756773537,26.7763472311719,178.08518424098662,99.91141636987844,124.30105604733548,143.4772649615825,211.6985285453296,197.1362958620732
0.6673340006673341,86.82328138890345,27.26971485125617,181.42716463304893,96.20486232561682,123.47149242077812,143.57938653621966,212.6609788417909,197.389368841798
0.7007007007007008,101.25518275528934,18.28434434988564,181.1841273097931,86.67055185836165,122.81521661594708,143.50619259559642,213.5308443286665,197.6269735770838
0.7340674007340674,108.92392275425364,12.112843325121322,178.81730932587158,78.81342088072034,122.41390288378015,143.22905341658245,214.09789249921485,197.89241893032408
0.7674341007674341,114.61820895218086,8.363513028784846,175.55734306583702,73.19034807896313,122.18031974776416,142.87465048161633,214.338086321948,198.13707324701548
0.8008008008008008,118.77322975434588,7.185091502574912,171.54147352793893,69.23513060808001,122.1354250077895,142.4412088617048,214.3371656190872,198.2885903589076
0.8341675008341676,113.08205905579932,8.076393219727247,167.103230086916,66.94595183824808,122.45617593767189,141.8503240017607,214.048041929554,198.57183548674564
0.8675342008675342,109.4412346379986,11.274655166388674,162.49243823924817,66.31466253311358,123.08411945049754,141.19806447353324,213.5115000542082,198.81427609603165
0.9009009009009008,107.49045791308092,16.392801680351123,157.83096746919705,67.18495933607504,123.96502324780452,140.57732608118934,212.72756490469223,198.9079840941972
0.9342676009342676,107.04642351760394,23.25538506639301,152.96004051415082,69.2656131319176,125.0928347075644,139.87588716040258,211.71826868519327,198.8893822849376
0.9676343009676344,107.59691564045924,31.60173186299981,148.150154318685,71.99610117303111,126.37081213585346,139.2704535145508,210.49368333490352,198.88237156634128
1.001001001001001,109.04211941899044,41.35609889994381,143.44510668639825,76.1717980197324,128.07328386758093,138.83869410979565,208.9172844108684,198.7459519842597
1.0343677010343677,111.1784418237378,59.25620205518183,139.3697858366747,81.08595692221307,129.7028466952208,138.65933093543626,207.40429296376195,198.53022125221952
1.0677344010677343,121.19733705105696,75.94673172225535,135.2409340931341,86.85159581466912,132.06902519962165,138.63016527118478,204.76403432148965,197.84092595627848
1.1011011011011012,129.60422098960024,91.68942008911011,132.2802365937439,93.92130101247352,134.33997772976292,138.886092668858,202.35181735908432,196.99011918342967
1.1344678011344678,136.82421146208097,107.77223017246274,127.5138321776968,101.3289484678449,136.5055307006781,139.15157776069665,200.02588435802176,195.9633070480953
1.1678345011678346,143.05324844267776,123.64163982431457,122.70948326272944,108.72551939875196,138.73435550761528,139.59224875112935,197.67567668419025,194.804768315368
1.2012012012012012,148.04803143638358,138.99746277237023,117.89555477167002,115.9403774786106,141.00895723528902,140.221972985917,195.33049235544303,193.51928302089544
1.234567901234568,150.0597367465165,153.5395127443348,113.1004116273484,122.80288638083807,143.31184096841486,141.0546178108216,193.0196293896351,192.11163120032737
1.267934601267935,151.68239313192294,166.96760346791345,108.3524187525943,129.1424097788517,145.62551179170825,142.1040505716052,190.77238580462145,190.5865928893132
1.3013013013013013,152.79024704793804,178.98154867081126,103.67994107023752,134.78831134606838,147.9324747898847,143.38413861402975,188.61805961825692,188.94894812350253
1.334668001334668,153.33594353448444,189.28116208073328,99.1113435031079,139.5699547559056,150.21523504765975,144.90874928385725,186.58594884839667,187.20347693854484
1.3680347013680347,153.272127631486,197.56625742538472,94.67499097403515,143.31670368178038,152.45629764974882,146.6917499268497,184.70535151289545,185.3549593700897
1.4014014014014016,152.55144437886656,203.5366484324706,90.39924840584912,145.85792179710995,154.63816768086744,148.74700788876913,183.0055656296083,183.4081754537866
1.4347681014347682,151.12653881654992,206.89214882969588,86.31248072137953,147.0229727753115,156.74335022573115,151.0883905153775,181.51588921639012,181.3679052252851
1.4681348014681348,148.95005598445996,207.332572344766,82.44305284345619,146.64122028980222,158.75435036905537,153.72976515243687,180.26562029109607,179.23892872023472
1.5015015015015016,145.9746409225205,204.5577327053857,78.81932969490887,144.54202801399936,160.65367319555563,156.6849991457092,179.28405687158084,177.026025974285
1.5348682015348682,142.15293867065537,198.2674436392603,75.46967619856738,140.55475962131993,162.42382378994748,159.9679598409565,178.60049697569957,174.7339770230855
1.5682349015682349,137.43759426878842,188.16151887409512,72.4224572772615,134.5087787851813,164.04730723694635,163.59251458394078,178.24423862130715,172.36756190228564
1.6016016016016017,131.78125275684346,173.9397721375948,69.706037853821,126.23344917900064,165.50662862126774,167.57253072042403,178.24457982625847,169.9315606475351
1.6349683016349683,125.13655917474432,155.30201715746475,67.34878285107567,115.55813447619506,166.7842930276272,171.92187559616823,178.63081860840862,167.43075329448328
1.6683350016683351,117.45615856241488,131.9480676614101,65.3790571918553,102.31219835018176,167.86280554074017,176.65441655693542,179.43225298561248,164.86991987877977
