Time,Left Shoulder Angle,Right Shoulder Angle,Left Elbow Angle,Right Elbow Angle,Left Hip Angle,Right Hip Angle,Left Knee Angle,Right Knee Angle
0.0,6.041095198636228,20.06277625149646,141.23576750136814,138.3356347210626,126.60432167970032,136.70718636022906,214.0358036196077,204.76037697959737
0.0333667000333667,8.656141826418269,20.52487851972693,147.59786895748834,143.9084487116437,128.69377814271934,135.26620594665468,211.7403007191478,206.7203160194776
0.0667334000667334,10.657015081054196,20.79517885316364,153.12309434110898,148.7027234035614,130.40224069848327,134.1224100343242,209.84910752644976,208.3395007828788
0.1001001001001001,12.115073538000695,20.894702150969465,157.85120556266088,152.7385463499781,131.75364594183802,133.2565320104914,208.3385712494764,209.6389503113864
0.1334668001334668,13.101675772714447,20.844473312307272,161.8219645325749,156.03600510405622,132.77193046762957,132.6493052624102,207.18503909619048,210.639683646586
0.1668335001668335,13.688180360652137,20.665517236339927,165.07513316128183,158.61518721895808,133.48103087070393,132.28146317733436,206.3648582745548,211.36271983006324
0.2002002002002002,13.945945877270448,20.378858822230296,167.6504733592125,160.4961802478461,133.90488374590706,132.13373914251775,205.854375992532,211.82907790340363
0.2335669002335669,13.946330898026066,20.005522969141243,169.58774703679774,161.69907174388268,134.0674256880849,132.18686654521423,205.62993945808483,212.0597769081928
0.2669336002669336,13.760693998375668,19.56653457623564,170.92671610446837,162.24394926023018,133.99259329208343,132.4215787726776,205.66789587917617,212.07583588601608
0.3003003003003003,13.460393753775945,19.08291854267635,171.70714247265522,162.150900350051,133.70432315274866,132.81860921216176,205.9445924637687,211.89827387845924
0.333667000333667,13.116788739683576,18.575699767626244,171.9687880517891,161.4400125665075,133.22655186492648,133.3586912509205,206.4363764198252,211.5481099271078
0.3670337003670337,12.801237531555245,18.065903150248182,171.75141475230086,160.13137346276207,132.58321602346294,134.02255827620763,207.1195949553084,211.04636307354727
0.4004004004004004,12.585098704847631,17.574553589705033,171.09478448462127,158.2450705919771,131.79825222320397,134.79094367527705,207.9705952781811,210.41405235936327
0.4337671004337671,12.539730835017432,17.122675985159674,170.0386591591812,155.80119150731502,130.89559705899552,135.64458083538258,208.96572459640592,209.6721968261413
0.4671338004671338,12.736492497521311,16.731295235774954,168.6228006864115,152.81982376193812,129.8991871256836,136.56420314377806,210.08133011794573,208.8418155154669
0.5005005005005005,13.24674226781598,16.421436240713753,166.8869709767429,149.32105490900886,128.83295901811417,137.53054398771732,211.29375905076327,207.9439274689257
0.5338672005338673,14.141838721358091,16.214123899138933,164.8709319406063,145.3249725016896,127.72084933113318,138.52433675445425,212.5793586028213,206.99955172810328
0.5672339005672339,15.49314043360414,16.130383110213437,162.6144454884339,140.85166409314417,126.58679465958764,139.52631483124358,213.91447598208427,206.0297073345868
0.6006006006006006,23.90775974659457,18.287018323932607,161.09265065343337,134.16900713808093,125.6212149146964,140.41493395456035,215.45279087951184,204.93397343938747
0.6339673006339673,31.46256026404816,19.27150728577168,155.09438851439623,124.99845855097396,124.67749569811274,141.33870396587275,217.07284431182148,203.74453098764823
0.6673340006673341,37.89336638975461,20.654493932346888,152.04129572282787,116.84982076579831,123.8312303136314,142.23193523424212,218.5596206407878,202.93311150655208
0.7007007007007008,43.89061683902023,21.677417726599906,149.3904302079532,109.30144257091764,122.86461329735424,142.87006577052793,219.8847551303604,202.52674006310852
0.7340674007340674,50.80275958523261,22.433501499302007,148.90560016076654,101.45511725693466,121.87646618647548,143.1313403864704,221.22421030132224,202.70373179653367
0.7674341007674341,56.31855349297409,23.58020203473991,147.29525067105928,95.46371406147394,121.30830905404363,143.4186113666265,222.1118344411206,202.7772304083163
0.8008008008008008,61.17930664481266,23.98562312039036,145.8350176415226,91.95953475603676,120.83794219062844,143.63505261413172,222.6484861066455,202.8338145188576
0.8341675008341676,65.83518770083398,24.645373646454,143.23616505587867,87.9723115211343,120.46853967262908,143.72704355458933,223.0088877668514,202.98719510410493
0.8675342008675342,70.0895234017075,25.899237129487588,142.16745961546084,78.98176861026317,120.5643098282167,143.76197886159156,223.0689135782254,203.25493469204824
0.9009009009009008,72.98672156662924,25.59042454094743,140.8944589856401,79.63100593323952,120.77908048429158,143.70505719744355,222.97637877912985,203.4421190002489
0.9342676009342676,75.74494800169329,25.24240835255168,140.64484735472797,78.87479167570972,121.16288709334307,143.65673560313505,222.5664855340327,203.5398566445457
0.9676343009676344,77.17898564696918,24.85256915762435,140.54812135209409,74.85607028093365,121.67040907487426,143.12427375618282,221.97225832017628,203.9872729964644
1.001001001001001,76.10201589866138,25.672983852486617,144.97629477227116,74.2588074821353,122.4418819627537,142.26620738445206,221.01214269643748,204.54235593082424
1.0343677010343677,74.18198615820249,27.580461111680144,143.44021455234787,73.73303578664459,123.02322556495156,140.8942350301451,220.20250126359664,205.0974872328886
1.0677344010677343,71.94391801124671,28.841570216060934,141.31622559781164,72.1768877234879,123.82801828902184,139.59604678573984,218.9331561403999,205.620549344014
1.1011011011011012,63.208216881073405,29.984764875564704,141.43797445069657,70.6607389234731,124.83884796552589,138.56592088842584,217.4977140494182,205.8300924197264
1.1344678011344678,63.528466866397935,31.11060895302171,141.97635408993915,69.41093193906721,125.8611197361204,137.60317601724702,216.0276656329695,205.891903736466
1.1678345011678346,64.10025590962096,32.40455858746081,142.42351309028646,69.15140424991924,126.87425808880413,136.8762151971585,214.4962008638738,205.8469033227326
1.2012012012012012,64.80448175767336,33.87107528446743,142.6398857820872,69.84414890206638,127.89355934388183,136.3082803430101,212.965641911767,205.59510890861995
1.234567901234568,65.32056869509742,35.72564233125024,142.63193763677612,71.60344691191848,129.0855112602058,136.09609241791574,211.08940736465496,205.15015119401588
1.267934601267935,65.71594289469628,37.702304437401295,143.16779159571848,74.39545466343432,130.28763314353355,136.0776275525049,209.04325070401083,204.5835265077569
1.3013013013013013,65.84026384226107,39.203832526193416,143.98917953543253,77.82675632868401,131.5200063645789,136.29451291604528,206.8138768779077,203.90218828865105
1.334668001334668,65.56242231495557,40.917659215490765,146.3805558353755,81.08787304745672,132.8393574056272,136.62645176383998,204.4927242821156,203.16579843574792
1.3680347013680347,64.53051454348216,42.447592113171375,148.95488656225297,83.70195497604465,134.21199754996334,137.139081426375,202.0854634106983,202.3443018902133
1.4014014014014016,64.6533738901809,44.4779998303292,155.02480103465547,87.68207140178386,135.57869106355986,137.74904225738385,198.84649179900475,202.0900853904092
1.4347681014347682,63.581849602769125,46.14830491123288,154.96294206595806,89.22494538028913,137.2451078249669,138.77455726440792,196.02791147590688,201.0714303612453
1.4681348014681348,60.33839763556064,46.968884259899895,153.97827701458527,91.73668663040846,138.84023183487886,139.75063387037457,193.9282781197816,199.72494866832133
1.5015015015015016,58.73493799810565,48.450154971762224,154.38337271994413,92.00356799838757,140.63131461778903,140.88331862814954,191.7135997327404,198.1789198784105
1.5348682015348682,54.38738037573701,50.40054001085157,152.20417317087876,92.61724107370766,142.25695321288777,142.3321055913313,189.82769658463192,196.42987592176164
1.5682349015682349,62.775422150140486,53.59136816588583,151.61483001861137,90.975690108826,143.93221697036685,144.2613108792349,187.8938375132876,194.45797194532128
1.6016016016016017,71.48972039572581,56.71127339284154,151.04743333673386,89.19813269720035,145.58163481845654,146.24943488917313,186.0495890662765,192.5036791581697
1.6349683016349683,80.24461038417815,59.69252309041909,150.5332560598214,87.36004984218539,147.19188931756386,148.26443210365895,184.30370452626207,190.6027131355929
1.6683350016683351,88.75442738718328,62.46738465731946,150.10357112245038,85.53692254713648,148.74966302809696,150.27425700520627,182.6649371759096,188.7907894528783
1.7017017017017018,96.73350667642694,64.96812549224363,149.7896514591971,83.804231815409,150.24163851046404,152.2468640763292,181.142040297884,187.1036236853136
1.7350684017350684,103.89618352359508,67.12701299389249,149.6227700046379,82.23745865035825,151.65449832507318,154.15020779954162,179.74376717485043,185.57693140818623
1.7684351017684352,109.95679320037335,68.87631456096699,149.63419969334913,80.91208405533962,152.97492503233264,155.9522426573576,178.47887108947407,184.24642819678385
1.8018018018018016,114.62967097844782,70.14829759216812,149.85521345990716,79.90358903370836,154.18960119265046,157.62092313229115,177.35610532442004,183.14782962639404
1.8351685018351689,117.62915212950443,70.87522948619676,150.3170842388883,79.28745458881988,155.28520936643488,159.1242037068562,176.38422316235346,182.3168512723043
1.8685352018685355,118.66957192522852,70.98937764175396,151.05108496486886,79.13916172402955,156.24843211409402,160.4300388635668,175.57197788593942,181.78920870980224
1.901901901901902,117.46526563730626,70.42300945754053,152.0884885724253,79.53419144269266,157.06595199603606,161.50638308493689,174.9281227778431,181.60061751417533
1.9352686019352687,113.73056853742372,69.1083923322575,153.46056799613382,80.54802474816454,157.72445157266912,162.32119085348052,174.46141112072957,181.78679326071136
1.968635301968636,107.17981589726632,66.97779366460584,155.19859617057085,82.25614264380047,158.2106134044014,162.84241665171163,174.180596197264,182.3834515246977
2.002002002002002,97.52734298852008,63.9634808532864,157.33384603031274,84.73402613295598,158.51112005164103,163.0380149621443,174.09443129011152,183.426307881422
2.035368702035369,84.48748508287062,59.99772129700017,159.89759050993575,88.05715621898626,158.61265407479615,162.8759402672924,174.21166968193722,184.9510779061717
2.0687354020687354,67.77457745200402,55.01278239444811,162.9211025440163,92.30101390524668,158.50189803427494,162.32414704967005,174.54106465540622,186.99347717423447
2.1021021021021022,47.102955367606114,48.94093154433115,166.4356550671307,97.54108019509265,158.16553449048558,161.35058979179115,175.09136949318366,189.589221260898
