Time,Left Shoulder Angle,Right Shoulder Angle,Left Elbow Angle,Right Elbow Angle,Left Hip Angle,Right Hip Angle,Left Knee Angle,Right Knee Angle
0.0,-4.038602641404206,23.9951171827369,163.5710213633207,160.293009053244,133.65100937264083,136.42008285878862,207.02394507531488,204.3524511401002
0.0333667000333667,10.983506242152483,26.88447249717351,159.04268023103057,157.9020059400449,134.55322322915458,136.84801035040658,206.9440364288272,203.3510841332428
0.0667334000667334,23.21387052532168,29.28725427771512,155.50616948416277,156.176468453273,135.29336950410791,137.196145818191,206.8693318350736,202.5833409065238
0.1001001001001001,32.86215920135019,31.23622302817856,152.8869633053042,155.04617915600068,135.88314564330562,137.47313155978193,206.79936722947227,202.0300660009389
0.1334668001334668,40.1380412634848,32.764139252380645,151.11053587704177,154.44092061130036,136.33424909255243,137.68760987281934,206.73367854744123,201.67210395748367
0.1668335001668335,45.25118570497231,33.903763454138186,150.1023613819624,154.2904753822444,136.6583772976531,137.84822305494322,206.67180172439865,201.49029931715384
0.2002002002002002,48.41126151905952,34.68785613726803,149.78791400265305,154.52462603190526,136.8672277044124,137.96361340379357,206.61327269576253,201.465496620945
0.2335669002335669,49.82793769899322,35.14917780558697,150.09266792170052,155.07315512335526,136.97249775863514,138.04242321701045,206.55762739695103,201.5785404098528
0.2669336002669336,49.71088323802021,35.320488962911845,150.94209732169185,155.86584521966682,136.98588490612602,138.0932947922338,206.5044017633823,201.81027522487287
0.3003003003003003,48.26976712938728,35.23455011305947,152.26167638521392,156.83247888391236,136.91908659268984,138.12487042710364,206.4531317304744,202.1415456070009
0.333667000333667,45.71425836634125,34.92412175984667,153.97687929485363,157.90283867916426,136.78380026413132,138.14579241925998,206.40335323364536,202.55319609723244
0.3670337003670337,42.254025942128855,34.42196440709025,156.0131802331979,159.0067071684949,136.59172336625528,138.16470306634284,206.35460220831337,203.02607123656324
0.4004004004004004,38.09873884999696,33.76083855860705,158.2960533828336,160.0738669149767,136.35455334486645,138.19024466599217,206.3064145898965,203.54101556598889
0.4337671004337671,33.45806608319236,32.973504718213874,160.7509729263477,161.03410048168206,136.08398764576958,138.23105951584802,206.2583263138129,204.078873626505
0.4671338004671338,28.541676634961792,32.09272338972755,163.30341304632714,161.81719043168334,135.79172371476946,138.29578991355035,206.2098733154805,204.6204899591073
0.5005005005005005,23.55923949855208,31.1512550769649,165.8788479253588,162.35291932805296,135.48945899767082,138.39307815673922,206.16059153031765,205.1467091047913
0.5338672005338673,18.72042366721006,30.181860283742747,168.4027517460296,162.57106973386334,135.18889094027847,138.53156654305457,206.11001689374228,205.6383756045528
0.5672339005672339,14.234898134182172,29.21729951387809,170.80059869092787,162.40142421218837,134.90171698839822,138.71989737013757,206.05768534117428,206.07633399938905
0.6006006006006006,10.539427348607898,27.99803668379233,170.66361661497996,159.28539746846167,135.04590522457335,139.01908448683213,205.8632015062228,206.19074371167844
0.6339673006339673,9.398953951789204,27.172335367550275,170.32813517935028,155.67178820288447,135.22110928993575,139.51653232931724,205.6692505006212,206.1268157679103
0.6673340006673341,10.538370972980404,26.800475629295423,169.96735583781785,151.7867022550134,135.40166681610287,140.14737613742994,205.5033971095805,205.8975857136328
0.7007007007007008,13.901326413067451,26.66718905659242,169.24472409273014,147.321936423798,135.55468674493738,140.94149288363184,205.41305925615185,205.4878505193668
0.7340674007340674,19.069859475251825,27.045084448369835,168.4204373803116,142.64852416139777,135.68395302432646,141.88544765002752,205.36611089923755,204.8436660388596
0.7674341007674341,25.62416916654855,27.853977360963675,167.92307072648157,137.5092287109184,135.83492340395551,143.18736631280106,205.2232228336219,203.750008997401
0.8008008008008008,33.14024093074688,29.45266748804473,167.42768774653982,131.0211954872575,135.93066921734518,144.62362780961735,205.09697544701527,202.4498475762303
0.8341675008341676,51.56687105049332,29.01694807424322,168.64198997136475,128.52855373839108,135.95531376385793,145.917185189853,205.00472749814267,201.26360600569168
0.8675342008675342,69.71713387233875,32.34507594445557,168.8864058656099,123.10727384190768,135.90845119290768,147.06083846915547,205.0152037181404,199.9163265409283
0.9009009009009008,86.40364377683258,35.60288480127128,167.8276079978418,114.02579262903588,135.94487766567056,148.06409526482116,205.11958086192595,198.56320004260365
0.9342676009342676,101.51757487636364,38.20491609021817,166.36473320203558,105.84251549535428,135.88475278222757,148.76148057325747,205.547182979958,197.70219146173915
0.9676343009676344,114.16462125404888,40.17388679122513,165.0186246119519,97.77142789909884,135.9995093185691,149.3101320474348,205.90564862585725,197.3405998085433
1.001001001001001,125.3494545093296,41.99650013621357,162.82408653174426,91.57406526462894,136.0474757495578,149.75826948415667,206.4093945815821,197.3530366033253
1.0343677010343677,135.31312410599188,43.04743459607493,161.81079785336698,85.8787494245516,135.9639624735449,149.976613584661,207.20696253825912,197.77221211936464
1.0677344010677343,143.66318592511894,42.52065027295872,163.45109258333298,87.22409433653952,135.9108876993672,149.91852656772164,208.02251917579736,198.345849220475
1.1011011011011012,149.74531355282005,43.6940392389047,165.26605731848898,86.12556412371164,135.87430175410984,149.7711678924952,208.78703381819253,199.040387851746
1.1344678011344678,146.46248677606135,44.13621522307388,166.41956262802185,84.62917929982181,135.94301508319575,149.6725682241057,209.4044417706644,199.6623003834408
1.1678345011678346,144.043829799141,37.2815789445713,162.57404086532824,79.72392171235063,136.06606216494927,149.51999496852298,209.85721339356616,200.2285056245736
1.2012012012012012,142.08405276279572,32.00984673261624,157.23204832124858,77.276562990469,136.18392613103092,149.27123536159252,210.22473759353028,200.66445674527367
1.234567901234568,141.20811953481694,28.918449239485973,151.70208792357755,76.31891930219084,136.23891557264847,148.81827875828654,210.3430792835478,201.09640346824872
1.267934601267935,141.1340940619872,27.5340953573842,146.48394644444647,77.05640144387698,136.33876057246084,148.35441663353484,210.2785866142017,201.40543916264505
1.3013013013013013,141.45471690858355,28.61101721426735,142.00163487885618,78.41814508208321,136.700586208962,147.96091868891477,209.8284581100166,201.51059965833963
1.334668001334668,142.22031092261767,31.57987546006525,137.8113540608318,80.84277767753298,137.08306381803558,147.7806087852845,209.130355806682,201.42286310422867
1.3680347013680347,142.98815443609183,36.0612725337206,134.27506480618467,84.95112161555984,137.50964083610432,147.78783764451626,208.2588507134268,201.0881187891831
1.4014014014014016,143.80933482292923,42.39301803953704,131.73202994104545,89.81510264639316,138.14937335254925,147.89580830425896,207.06349393152948,200.60388276010667
1.4347681014347682,144.3800916230307,49.53604165411383,130.38675279733383,95.24964251960394,138.98912075161027,148.111396515507,205.5801402498357,199.9649511049165
1.4681348014681348,152.5300376129018,66.1072637413462,131.07978750766603,105.37876858177808,139.9279400396425,148.51065291356431,204.06723428099795,199.2031156079318
1.5015015015015016,157.55254050784714,80.18288469923398,131.92891895181268,113.96727094202215,140.90813552680893,149.12415991826933,202.45363342009844,198.32430334878072
1.5348682015348682,159.16652114952325,92.38623849531707,133.59623910273964,120.71574830493653,141.9617473283757,149.82324104890563,200.7452260446563,197.3282668986305
1.5682349015682349,157.0131645982029,102.5462717502177,127.3167492656218,125.96329913843668,143.15020008080478,150.6096124205257,198.9656341960356,196.2454574687022
1.6016016016016017,144.9027963596103,110.93649044147494,121.90315071455692,131.1405339289825,144.45320393160648,151.52044768498226,197.1939538373169,195.05005557789443
1.6349683016349683,132.4540271064845,117.97549040807378,114.52474956071266,132.02803775327976,146.0313165649176,152.3584137653095,195.3347959528356,193.4656461120869
1.6683350016683351,136.29181562195177,131.9638235253123,108.56203968869376,134.63359627976757,148.0158382237874,154.20059772425188,192.7288949389484,190.57260597362543
1.7017017017017018,140.68245451700724,144.99662407110438,102.5041908262462,136.56570589744769,149.99523632206984,156.1196350847505,190.1502472450572,187.60126602656905
1.7350684017350684,145.48590243746878,156.68182941446344,96.4177763673805,137.75890776250264,151.93425701638253,158.08333532457888,187.6449074772325,184.6075436662176
1.7684351017684352,150.56211802915584,166.627376924404,90.36936970610812,138.14774303111602,153.79764646334422,160.05950792151162,185.25893024154652,181.6473562878727
1.8018018018018016,155.77105993788794,174.4412039699409,84.42554423644074,137.66675285947144,155.55015081957362,162.01596235332332,183.0383701440716,178.7766212868357
1.8351685018351689,160.97268680948463,179.73124792008835,78.65287335238978,136.25047840375254,157.15651624168947,163.92050809778868,181.02928179087985,176.0512560584081
1.8685352018685355,166.02695728976542,182.10544614386097,73.11793044796686,133.83346082014285,158.58148888631047,165.7409546326823,179.2777197880435,173.52717799789136
1.901901901901902,170.79383002454972,181.1717360102736,67.88728891718347,130.35024126482602,159.78981491005536,167.4451114357789,177.82973874163474,171.260304500587
1.9352686019352687,175.13326365965716,176.53805488834047,63.027522154051184,125.73536089398564,160.74624046954284,169.000787984853,176.73139325772587,169.3065529617965
1.968635301968636,178.9052168409071,167.81234014707633,58.60520355258152,119.92336086380526,161.41551172139168,170.3757937576793,176.028737942389,167.72184077682132
2.002002002002002,181.9696482141191,154.60252915549546,54.6869065067861,112.84878233046858,161.7623748222206,171.53793823203242,175.76782740169645,166.56208534096285
2.035368702035369,184.1865164251128,136.51655928261266,51.33920441067632,104.44616645015913,161.7515759286483,172.45503088568702,175.99471624172037,165.8832040495227
2.0687354020687354,185.4157801197074,113.1623678974425,48.62867065826384,94.6500543790605,161.3478611972935,173.09488119641773,176.755459068533,165.7411142978022
2.1021021021021022,185.51739794372264,84.14789236899938,46.62187864356021,83.39498727335636,160.51597678477498,173.42529864199918,178.09611048820662,166.191733481103
2.135468802135469,184.3513285429779,49.08107006629777,45.38540176057691,70.61550628923028,159.22066884771135,173.41409270020603,180.06272510681333,167.2909789947264
2.1688355021688355,181.7775305632928,7.569838358352314,44.98581340332551,56.24615258286586,157.42668354272146,173.02907284881286,182.70135753042547,169.09476823397395
2.2022022022022023,177.65596265048663,-40.777865385821855,45.48968696581758,40.2214673104467,155.098767026424,172.2380485655944,186.05806236511512,171.6590185941472
