Time,Left Shoulder Angle,Right Shoulder Angle,Left Elbow Angle,Right Elbow Angle,Left Hip Angle,Right Hip Angle,Left Knee Angle,Right Knee Angle
0.0,35.489587869510736,29.26849332819749,175.7914048855882,154.05729531000006,129.10883010265792,127.46193434148846,201.8677769047597,201.98767785766336
0.0333667000333667,35.113558052570454,31.71577445395688,175.365333056695,158.021689526866,129.64265161953412,127.89523976766652,200.9850275765945,201.8037389499699
0.0667334000667334,34.80927027374297,33.89704523711244,175.00129183717405,161.5595871418666,130.0730393478979,128.23467203962298,200.2176427267852,201.6909695540465
0.1001001001001001,34.57136407673374,35.82560345059869,174.6963495701604,164.69147596066676,130.4063394855197,128.48652007632887,199.56124297243423,201.6441478680272
0.1334668001334668,34.39447900524822,37.5147468673502,174.4475745987891,167.43784378893125,130.6488982301701,128.6570727967552,199.01144893064424,201.6580520900459
0.1668335001668335,34.27325460299188,38.97777326030149,174.25203526619515,169.8191784323249,130.80706177961954,128.75261911987295,198.5638812185178,201.7274604182367
0.2002002002002002,34.202330413670175,40.22798040238713,174.10679991551365,171.85596769651255,130.88717633163853,128.77944796465312,198.21416045315755,201.84715105073352
0.2335669002335669,34.176345980988565,41.278666066541646,174.0089368898796,173.56869938715903,130.89558808399758,128.74384825006678,197.95790725166603,202.01190218567035
0.2669336002669336,34.18994084865251,42.1431280256996,173.95551453242803,174.97786130992915,130.83864323446718,128.6521088950849,197.79074223114583,202.2164920211812
0.3003003003003003,34.237754560367485,42.83466405279551,173.94360118629407,176.10394127048778,130.72268798081785,128.51051881867843,197.7082860086996,202.45569875540005
0.333667000333667,34.31442665983894,43.366571920763946,173.9702651946127,176.96742707449974,130.55406852082004,128.32536693981845,197.70615920142984,202.72430058646088
0.3670337003670337,34.41459669077232,43.75214940253944,174.03257490051885,177.58880652762983,130.3391310522443,128.10294217747597,197.7799824264392,203.0170757124977
0.4004004004004004,34.53290419687312,44.004694271056536,174.12759864714775,177.9885674355429,130.08422177286113,127.84953345062196,197.9253763008303,203.3288023316445
0.4337671004337671,34.66398872184677,44.13750429924978,174.25240477763433,178.18719760390377,129.795686880441,127.57142967822745,198.13796144170564,203.65425864203524
0.4671338004671338,34.80248980939875,44.16387726005373,174.40406163511366,178.20518483837728,129.4798725727544,127.27491977926344,198.41335846616784,203.98822284180395
0.5005005005005005,34.94304700323451,44.0971109264029,174.57963756272076,178.06301694462826,129.14312504757186,126.96629267270092,198.74718799131955,204.32547312908457
0.5338672005338673,35.080299847059514,43.95050307123186,174.7762009035907,177.7811817283215,128.79179050266387,126.65183727751094,199.1350706342633,204.6607877020112
0.5672339005672339,35.208887884579504,43.73735146747546,174.99082000086,177.38016699512332,128.43221513580187,126.33784251266545,199.57262701210345,204.9889447587192
0.6006006006006006,35.22017341258754,43.1450375524816,175.05679033208526,176.45669006742958,128.13578997779587,126.15628151501816,200.0975383622412,205.27734266670964
0.6339673006339673,35.18394905572248,42.49765747444778,175.1028572851792,175.2210769082295,127.69740812349217,126.00215190828484,200.9782595182679,205.51914299720005
0.6673340006673341,35.12105098444277,42.200025344142006,175.19203751861608,174.5925924210482,127.22985001697262,125.86358863404398,201.98483090676748,205.71018969541265
0.7007007007007008,35.02611302013091,41.99688109612105,175.33722387564856,174.0283721333965,126.810044427016,125.7023611072776,203.02306995065572,205.8636945768424
0.7340674007340674,34.89745057887501,41.95705167214764,175.53997916994413,173.65880048550014,126.58218528127676,125.54211407477727,203.75041077194007,205.99643984306627
0.7674341007674341,34.71809657564352,42.014638118316384,175.7388823735829,173.36979015281256,126.89952737660076,125.34520943327207,203.60105927426923,206.17226524264788
0.8008008008008008,34.522599573549094,42.19390116714977,175.9915149408291,173.33397343930042,127.28349289050476,125.15333915616856,203.3605258708812,206.32409009870048
0.8341675008341676,34.32887546095666,42.43057597026638,176.2840894560361,173.3828255825248,127.55517070981269,124.98185853686503,203.3514108790206,206.4155314471676
0.8675342008675342,34.15878583538285,42.66101967417409,176.65919429597577,173.58129215056127,127.66648778275253,124.86881429628146,203.57782191949715,206.4451853314204
0.9009009009009008,34.00750953632535,42.96026870382244,177.10230416504797,173.80731313187482,127.67609422306931,124.76846503391562,203.9641788028389,206.40161187849947
0.9342676009342676,33.869573800275305,43.147163346444266,177.59648621792638,173.9451094382884,127.5902000955013,124.72315508107314,204.4431492876536,206.29218046373012
0.9676343009676344,33.80507854154825,43.31731991090331,178.1753790412365,174.19595701091706,127.36569865774612,124.68037597927822,205.04893656325464,206.11616428412896
1.001001001001001,33.76071608365076,43.44762907027482,178.8115063253359,174.56336370141733,127.05197189171552,124.70970720333808,205.7180365006011,205.8630898828002
1.0343677010343677,33.7456607632794,43.59167403067094,179.56195033737637,175.00211351750926,126.84633602281345,124.8206683063069,206.21207853215623,205.54498100012648
1.0677344010677343,33.73293055341453,43.6349265244977,180.31954708395028,175.39962441426707,126.6025454799044,125.01955521357384,206.6294001779732,205.19174533791687
1.1011011011011012,33.73288031305185,43.58959631377285,181.0081413497169,175.8104986417481,126.3099666130025,125.28109060966828,207.0665919778,204.8052845864425
1.1344678011344678,33.716074437345625,43.40513420628173,181.6898736619024,176.11979964739098,125.89865006480215,125.60817081818848,207.56680348806373,204.4194395857687
1.1678345011678346,33.767394257328576,43.19227309809185,182.2637169327517,176.41588389042224,125.29805931162744,126.03406917039408,208.10462228620696,204.01214749670663
1.2012012012012012,33.80044790286669,42.831194098812055,182.8276041778644,176.61795864027056,124.53753256032816,126.5326319223113,208.7373700137246,203.613644846836
1.234567901234568,33.75491800370925,42.4492890868767,183.00170620950087,176.95685434203335,123.81604039024693,127.04145332957688,209.24247858398047,203.2659703382085
1.267934601267935,33.670184387509565,41.79684636483735,183.21363431699484,177.02643442455485,122.92854464474672,127.5703485491087,209.98613583287525,202.9822698359642
1.3013013013013013,33.6511195644588,41.06599392893319,183.8364034605273,176.88674207108505,121.91671146519114,128.08592270714584,210.9138513305684,202.7807249482912
1.334668001334668,33.60332407372118,40.14123544431649,184.6006153480993,176.54432241236628,120.94117598465311,128.5556645044853,211.651755168192,202.70749075263572
1.3680347013680347,33.64057575217417,39.19861066261487,185.38659563100904,176.15130959057612,119.9978090906816,128.93356671934558,212.19250916368927,202.79687917931344
1.4014014014014016,33.61610934712234,38.06340260543001,186.20754174078505,175.5982119603623,118.94240596415445,129.3134473747413,212.83417791333827,202.9108993657612
1.4347681014347682,33.63461192459466,36.50468316454791,186.99313925525536,174.87364587440783,117.807674685124,129.7216310105922,213.4708388602276,202.99607248585284
1.4681348014681348,33.53290973644787,34.72826224667319,187.7390125923237,173.9069380492857,116.7007011478972,130.22038964864444,214.049249864464,203.00455505408203
1.5015015015015016,33.3396141133404,32.686508771898,188.13521426242272,172.9126644413995,115.5853585229594,130.78991316421596,214.5890691793817,202.9714462306732
1.5348682015348682,32.96222110601919,30.60110619969682,188.5363668473421,171.63877766917895,114.4351525978717,131.41477113553952,215.3114090959812,202.91172089929464
1.5682349015682349,32.54766912645537,28.38641998456968,188.9592231742585,170.07412895196325,113.25952111330928,132.08826101149253,216.1535774074488,202.8396605101141
1.6016016016016017,31.9039676430102,26.125303461748825,189.3827517032261,168.12099365062792,112.093743924775,132.84820156969863,217.13444371733385,202.7667280068036
1.6349683016349683,30.97570478667935,23.65804953941253,189.51099984572863,165.7347296441792,110.9880623599726,133.69095793696408,218.20147340229727,202.66033967778003
1.6683350016683351,29.784552176449026,21.257427299406967,189.61508946590183,163.32176567577983,109.97887482080156,134.57413830929275,219.31675293356503,202.5148451635144
1.7017017017017018,28.21305371901416,18.87667218286421,189.5137009444092,160.93488850706402,109.08734464968067,135.45990925638506,220.4330080411521,202.3596590822248
1.7350684017350684,26.50247261045648,16.68633653602961,189.5579002397185,158.47258469505476,108.31836336775044,136.3197178304121,221.5346062660579,202.17878200262825
1.7684351017684352,24.429258446652,14.622235604694072,189.73198056337463,156.3914685550988,107.62457705569985,137.11952498471592,222.6672022624206,201.99320054352805
1.8018018018018016,22.364638987139585,12.945458337842163,190.1584186822353,154.44510114800588,107.20311655524227,137.8494168106667,223.45251691863567,201.82132392434252
1.8351685018351689,20.315685120027776,11.708865528625203,192.997914780338,153.77037386027118,107.09091887754626,138.56666011351703,223.93097771548727,201.62194979925252
1.8685352018685355,18.401752306533385,10.855420672970345,195.1601323088452,152.9520189052811,107.19051804829306,139.27030992182827,224.1799696733121,201.41426810189475
1.901901901901902,16.516363722023254,10.38182993662175,196.68523313193552,152.94941226459375,107.47869823164294,139.89838943487675,224.1851486596319,201.24890867616668
1.9352686019352687,14.870431021585972,10.29500948983979,197.66411725690244,152.33964595070225,107.40838814790456,140.50052809402638,224.8455910119214,201.0323554743569
1.968635301968636,13.24106819214664,11.01472947027221,198.0615379171303,150.63869178516697,107.26251926724969,141.0333550087199,225.66179944409407,200.80597686312515
2.002002002002002,11.809571796163567,11.9373996371688,197.7679154113413,148.29205459978604,107.10614257963694,141.49219211689973,226.5102360442156,200.5903840770306
2.035368702035369,10.498341996499535,12.436433499879664,197.0552953784204,146.48826205392322,107.02423192760295,141.86865079219106,227.2831171630397,200.3561625985582
2.0687354020687354,9.652632686490488,12.587557477099663,196.06933487564376,142.8006645702637,106.99522283027326,142.22688492032884,227.9827018707376,200.12043968929115
2.1021021021021022,9.00825992661732,12.861517892967312,194.76793758905487,138.3157097018319,107.0256899032485,142.58765732813038,228.64147399866104,199.88895187290865
2.135468802135469,8.784586617249458,13.520348588143277,193.1542629395464,133.91819220704895,107.15147432709212,142.9787896069395,229.1959955801168,199.6758124119781
2.1688355021688355,8.983214484272771,14.364956235199145,191.36672971126424,130.40418081640854,107.37312887508163,143.35040111428756,229.66115727962588,199.49097546520332
2.2022022022022023,9.586636644782113,15.383538642792264,189.14107697405345,126.7293505204712,107.55491455119272,143.67192030791986,230.0908100123496,199.35096663977907
2.235568902235569,1.4341944709301893,16.69038899928761,186.1730157064376,125.59696071234498,107.75053358891904,143.92555963706914,230.4389049161686,199.2499041727104
2.2689356022689355,1.4341944709301893,18.21434049799557,183.04297592249893,123.11952852089104,107.82957565553872,144.11317544031257,230.84439857645387,199.21114554671672
2.3023023023023024,1.4341944709301893,19.690306031227504,179.7483672108225,117.48434707815838,107.8745194417493,144.2127161236488,231.2128346346487,199.2292222878175
2.335669002335669,1.4341944709301893,21.288098507451924,176.47708102660573,111.56017414156057,108.06396625419478,144.1880023620377,231.3799136429252,199.33785679539127
2.369035702369036,1.4341944709301893,14.67077351045477,173.06847817245233,106.28133049796,108.2299536447315,144.02388668658708,231.48037766564448,199.5530459507937
2.4024024024024024,1.4341944709301893,10.878691953925102,170.1903186863332,101.46123133414947,108.25708798947716,143.77932482616598,231.70355969143048,199.8295999560824
2.4357691024357693,1.4341944709301893,9.891002075564868,167.7723784287078,95.4358190093692,108.23990889389032,143.41114453863634,231.9591747758752,200.20401258908305
2.469135802469136,1.4341944709301893,11.181355095786676,165.30535660130644,89.77734366442469,108.19887483572376,142.98968737368094,232.19363825208725,200.61954257484345
2.5025025025025025,1.4341944709301893,14.483378669620524,162.94303652949105,85.2370062570009,108.16304042576668,142.5493487287196,232.3379498780337,201.0181096814882
2.5358692025358693,1.4341944709301893,19.45004434251093,160.6472435476694,81.26247575459757,108.1141200125217,142.2199852196872,232.4844919911241,201.2507240703668
2.569235902569236,1.4341944709301893,26.085868152274944,158.3039126900992,77.89678308082063,108.06254268561824,141.95464821122923,232.59566346304564,201.37488115167844
2.6026026026026026,1.4341944709301893,34.48438416106094,156.10000562224184,75.08537969405344,108.056244026993,141.75744411081718,232.6972724374925,201.4228098359122
2.6359693026359694,1.4341944709301893,44.37596757847777,154.07525511587244,72.8910549969764,108.04490574861568,141.58108896833474,232.7806890466865,201.4489372821594
2.669336002669336,1.4341944709301893,55.69038057329533,152.60482759902817,71.0106464846217,108.07697851619368,141.42269276402274,232.84752589641727,201.4407454899533
2.702702702702702,1.4341944709301893,76.3680363776391,151.44818971911772,69.60779108594069,108.156405587152,141.2837160206387,232.8844886908705,201.39510396827475
2.736069402736069,1.4341944709301893,95.56316310311963,150.52664236752736,68.76161125340694,108.30021558926852,141.13629980358638,232.8834431134877,201.3335458162016
2.7694361027694363,1.4341944709301893,104.92713088972792,149.95274037149014,68.34283463720375,108.52580721201994,140.98288246121473,232.8549698882993,201.28321467554096
2.802802802802803,1.4341944709301893,115.48071725110876,150.03852508132798,68.60656048369486,108.84555260904064,140.83706406954434,232.7759261213375,201.21691465344787
2.836169502836169,1.4341944709301893,126.8369944251351,150.63078544738806,69.6670747541612,109.2832820622793,140.68845134406337,232.6467909899101,201.15096391818173
2.8695362028695364,1.4341944709301893,138.94104248385787,152.0134663986582,71.36118266360107,109.77384706947328,140.57149873040868,232.4883139744283,201.04939085314209
2.902902902902903,1.4341944709301893,151.53588609978956,153.9303754871872,73.74732044492931,110.33549088450664,140.47097626912432,232.3011912184872,200.9331757765553
2.9362696029362696,1.4341944709301893,164.6284358763866,156.4498170083152,76.42815959470323,110.97479800359989,140.46729436858348,232.0114608352391,200.7348307133332
2.9696363029696364,1.4341944709301893,177.9015939951884,159.67653686113638,79.657501438801,111.69840879706928,140.538466504584,231.610174427166,200.4873415013276
3.003003003003004,1.4341944709301893,191.14009646561337,160.5199436962514,81.89901734024768,112.37349201260078,140.61146415164828,231.19790086849773,200.2368222494216
3.0363697030363697,1.4341944709301893,212.387415378708,161.25319350016292,84.13038304246905,112.9794337023958,140.74474878579898,230.7711235131892,199.9067435901985
3.0697364030697365,1.4341944709301893,230.6716125341948,161.81499653707704,84.96440289323135,113.52962768285671,140.94505358249808,230.38166920877924,199.4985253167067
3.103103103103104,1.4341944709301893,246.009652754054,162.33404762231436,85.57311893722877,114.05618989936222,141.18613677400683,230.038092771647,199.04465392026668
3.1364698031364697,1.4341944709301893,257.65928829471164,162.72075452893463,86.50126862173525,114.57295598470532,141.47390369209475,229.7242317782033,198.5500146156716
3.169836503169837,1.4341944709301893,265.93955439534864,163.14473854626925,87.51734932284896,115.07326183921867,141.7820069414369,229.47175807700995,198.0542299943777
3.2032032032032034,-3.426099671562694,271.5731289225521,163.4951660053583,87.2005750335272,115.50038747038064,142.11266123392866,229.26132324864656,197.5733784408476
3.2365699032365702,-4.951839187586829,274.6567206399052,163.7303123130262,88.05747264087162,115.75794967595225,142.3898674446425,229.19859866891807,197.1619990342897
3.2699366032699366,-3.789265694574035,274.8630137056221,163.85900068347482,89.64855052054934,115.9225805410058,142.63074316552243,229.16996359763576,196.75923563081028
3.3033033033033035,0.1214438508574975,271.98725347573554,163.76030686571715,91.40851087433718,115.98730922981218,142.93977998364642,229.1515792760879,196.2321292870901
3.3366700033366703,6.336409161327225,266.09646017451644,163.36898974036333,92.17286436957411,115.94537363016188,143.24398000431486,229.1423304737348,195.70137504329367
3.3700367033700367,14.489063539078115,257.1815496087905,162.70234345655203,92.71611680744282,115.8641043606431,143.58015903365083,229.09481645165192,195.1896077574916
3.4034034034034035,24.390181335161586,245.14314802499365,162.38867238732382,89.47692106712715,115.7006423871938,143.9178407965585,229.0560731533353,194.7006319171748
3.4367701034367704,36.1677638689781,230.00553477906692,162.42035321037108,85.4692612277533,115.47021184710822,144.30443159495,229.01191438550464,194.1595213140472
3.4701368034701368,49.26996273726038,212.1730567840458,162.4949128131942,83.24631327779255,115.14734624880607,144.6478386377146,229.01026639322885,193.7238001449326
3.503503503503504,63.7904812311149,191.5832225710556,162.73492959114054,79.20803456874147,114.7259124484602,144.91267676173712,229.05372790380693,193.3834018652157
3.5368702035368704,79.09715584904029,179.3772946380639,163.01072549931936,73.96459286340428,114.36201567344509,145.08204632584636,229.0561810316601,193.17035663205948
3.5702369035702373,95.07547832691851,167.57603241278105,163.0878964755195,74.43719462230399,114.0635681100802,145.17234079895877,229.078030936038,192.9997825061834
3.603603603603604,111.4667619859732,155.47012876440576,163.04721225174342,76.04602827036986,113.7357291372826,145.1886074130181,229.1168495021282,192.9802741682432
3.6369703036369705,128.14251380361253,143.7531978887909,161.14829293224287,77.04029203339051,113.30558561541622,145.17732468415727,229.29534366026024,193.05162151952564
3.670337003670337,144.75100877174515,132.15810378010897,159.44060020048985,76.76096272108961,112.8459990065524,145.09787884637203,229.48346375128148,193.25456579435323
3.703703703703704,161.19695679528144,120.80169614109096,158.91392967531024,76.099243903856,112.158555633052,144.8497804987406,229.7651352301528,193.66631552046536
3.737070403737071,177.26543997807048,109.84453240532731,158.57583848977566,76.1231188692083,111.50905375313587,144.53559648993917,229.94309876908792,194.2001551507764
3.770437103770437,192.7297104604599,99.56018976447596,158.17104497360907,75.50343830377628,111.12190981039625,144.35893182678956,230.0835835482576,194.5561192881456
3.803803803803804,207.67446823683983,90.2075233594193,157.8732946146944,75.29303673149062,110.92104022672927,144.13050282447614,230.108252189554,195.03084096111192
3.8371705038371706,221.7941727461832,81.8947094899743,158.08956070340432,75.5256539768166,110.94974019306852,143.76430671454722,229.80461804272824,195.75100169695105
3.8705372038705375,235.2651152702377,63.95492622374242,158.39140585067128,76.20253723037082,111.05984106516772,143.27170240006618,229.37196991395297,196.66604129356125
3.903903903903904,247.6378814021168,44.56428554319142,158.8878282360253,77.0260696947324,111.60339944244392,142.60616337059795,228.29916556268105,197.78007491014137
3.937270603937271,258.8345112711408,34.82607560905124,159.5249170559539,78.47359295531109,112.14510835006443,141.89189405807804,227.2304481433225,198.9766322013984
