Time,Left Shoulder Angle,Right Shoulder Angle,Left Elbow Angle,Right Elbow Angle,Left Hip Angle,Right Hip Angle,Left Knee Angle,Right Knee Angle
0.0,22.85368521920854,29.675575363507782,143.96503962638567,151.3327022039357,129.15273492657963,131.0329425872129,203.1992970039795,212.80324489434983
0.0333667000333667,19.50355601262614,30.33833355581267,142.6058424372358,153.25746695226263,129.30498845565734,131.84204326100027,203.3388963312729,211.77430291577485
0.0667334000667334,16.699731305853877,30.84143208149544,141.59964506675288,154.86418547322748,129.45839244610954,132.50762385165785,203.4499798318189,210.914072635681
0.1001001001001001,14.409840246996543,31.192760338638227,140.92779916645327,156.1712688735908,129.61120561075944,133.0413212166444,203.53647077905217,210.21057949110195
0.1334668001334668,12.601511984158934,31.40020772532316,140.57165638785332,157.19712826011315,129.76168666243026,133.45477221341886,203.60229244640732,209.65184891907137
0.1668335001668335,11.242375665445836,31.471663639632364,140.51256838246937,157.9601747395552,129.90809431394516,133.75961369944,203.6513681073192,209.2259063566229
0.2002002002002002,10.300060438962046,31.415017479647982,140.73188680181775,158.4788194186774,130.04868727812735,133.96748253216668,203.68762103522232,208.92077724079016
0.2335669002335669,9.742195452812354,31.23815864345213,141.2109632974148,158.7714734042404,130.18172426780004,134.09001556905778,203.7149745035514,208.7244870086068
0.2669336002669336,9.53640985510155,30.948976529126966,141.9311495207768,158.85654780300476,130.30546399578637,134.13884966757217,203.7373517857412,208.62506109710648
0.3003003003003003,9.650332793934432,30.555360534754595,142.87379712342016,158.75245372173106,130.41816517490955,134.1256216851686,203.7586761552262,208.61052494332284
0.333667000333667,10.051593417415784,30.06520005841716,144.0202577568612,158.47760226717986,130.51808651799283,134.061968479306,203.78287088544124,208.6689039842896
0.3670337003670337,10.707820873650403,29.486384498196784,145.35188307261623,158.05040454611174,130.60348673785936,133.9595269074432,203.8138592498209,208.78822365704016
0.4004004004004004,11.586644310743088,28.82680325217561,146.85002472220162,157.48927166528728,130.6726245473323,133.82993382703904,203.85556452180003,208.9565093986084
0.4337671004337671,12.65569287679862,28.094345718435765,148.49603435713368,156.81261473146705,130.7237586592349,133.68482609555235,203.9119099748131,209.1617866460279
0.4671338004671338,13.882595719921795,27.29690129505937,150.27126362892875,156.03884485141162,130.75514778639032,133.53584057044202,203.9868188822949,209.3920808363323
0.5005005005005005,15.234981988217411,26.44235938012857,152.15706418910315,155.1863731318816,130.76505064162177,133.3946141091669,204.08421451768007,209.63541740655523
0.5338672005338673,16.680480829790252,25.5386093717255,154.1347876891733,154.27361067963756,130.75172593775244,133.27278356918578,204.20802015440327,209.8798217937304
0.5672339005672339,18.18672139274523,24.59354066793251,156.18578578065657,153.3189686014412,130.7134323876066,133.18198580795865,204.36215906590087,210.113319434893
0.6006006006006006,19.687635197442702,23.600388498876224,158.54163903411623,152.5887022488163,130.58423598764915,133.23128912902698,204.623416952175,210.2615360547408
0.6339673006339673,21.47135639977972,22.58012519325052,161.10364100229728,151.66972471437893,130.53021284257923,133.27295443331533,204.86057861976624,210.43924718966363
0.6673340006673341,22.99414484565687,21.48880099744072,163.80153763802767,150.6059276407894,130.4326920484071,133.40655894819884,205.114169927034,210.52278317608915
0.7007007007007008,23.96963065998587,20.334364000185698,166.14959925747104,149.7627806444907,130.3627827400816,133.6736893029969,205.33792192334025,210.48659810745653
0.7340674007340674,24.72517700618081,19.21815421912701,168.13083606390487,149.14401892992512,130.22434494621612,134.0833208913677,205.68487676926867,210.3609595658194
0.7674341007674341,25.742212225329087,18.21387793211672,168.86119113402793,149.0353781773846,129.92561499627809,134.59607993421938,206.19765547598092,210.1471641399328
0.8008008008008008,26.03829332074816,17.266484935244556,169.7762713953537,148.97900040165783,129.56336788505095,135.21613055277402,206.7964191578654,209.83757490696632
0.8341675008341676,25.7051503433445,14.790069552767612,170.6449308990592,149.51562287572966,129.3012001180954,135.98146667614444,207.33532333117387,209.4277405588773
0.8675342008675342,25.33770115526405,12.602692215976138,171.57820207934208,149.66783950457395,128.89555664696212,137.11873910974882,208.009389308154,208.55002388395
0.9009009009009008,25.446181087013205,11.808143768478622,174.74661746797872,149.9831446514758,128.44002829427842,138.350567691055,208.7594739766984,207.57788744101111
0.9342676009342676,25.002549606599903,11.65441555225116,177.07804514553897,150.14216158612834,127.94174309102743,139.54628735079993,209.5736295743477,206.6268101602664
0.9676343009676344,24.09595069266563,11.541202955093793,176.51514273978822,150.0589462111551,127.3437983740882,140.71821865968408,210.4353566716479,205.6718554881797
1.001001001001001,22.922115432355323,11.594308733177874,175.78820525366226,149.43428948814605,126.69702489063928,141.90977533761586,211.33094994545985,204.69867999718136
1.0343677010343677,22.04647768559345,11.258228055188598,179.0434488566124,148.82762065992102,126.03728498099863,143.12870240128726,212.2537248342461,203.6994236171817
1.0677344010677343,20.738058667172847,10.57614422941863,182.60482379164108,146.4645704920099,125.31691926701836,144.30691543819884,213.22859884802256,202.74094999839423
1.1011011011011012,19.338262865472817,9.808424282764411,184.54631918453472,143.37065882125282,124.57476654693964,145.46387583067147,214.2195836836895,201.820662866212
1.1344678011344678,18.03272048550427,9.735504676593504,185.47382694710555,140.45951737622528,123.82413123401476,146.60397121822055,215.2778830064288,200.92547628155128
1.1678345011678346,16.422749403664774,10.256066728932677,183.2738150944167,137.6791822086461,123.12629342352146,147.70983744927992,216.3441712126195,200.07686485865983
1.2012012012012012,14.755338547758134,11.182537324816389,179.00526783198055,131.78629564251025,122.51692745863426,148.76141556338223,217.36762581822,199.26577373128367
1.234567901234568,13.32829034329582,12.16189580978135,174.3997397573531,125.14676703004254,121.97804384150582,149.75978230989247,218.3685321247599,198.46105317914
1.267934601267935,11.729709349706026,12.900446068900724,168.84855888807124,117.53065111899096,121.49274260640824,150.70212741655428,219.34197267774297,197.7025296816745
1.3013013013013013,1.0915254745088765,13.734521700157815,161.50345425700516,110.05724463358814,121.0354605403714,151.5472222773504,220.28329434964536,197.021190087648
1.334668001334668,1.0915254745088765,14.909999374960403,155.12478290838934,102.9412890109273,120.72888147752694,152.33477487336893,221.06452136831035,196.3100621844357
1.3680347013680347,1.0915254745088765,9.051857016438287,149.2457107292122,95.0582492244247,120.56995955526314,153.05298205360302,221.6899009775076,195.6043626559548
1.4014014014014016,1.0915254745088765,5.788639763703495,144.24020359776432,88.69186925345913,120.25187196627076,153.7182134083213,222.5613637303145,194.9601339169845
1.4347681014347682,1.0915254745088765,6.193933393410092,139.76717681189936,83.1505406969277,119.92206200073797,154.27145095555602,223.4732335522449,194.4052495353025
1.4681348014681348,-5.942372178556459,8.730012675022394,135.49743703247194,78.55736039418727,119.54325276637476,154.66513018839618,224.34401952349845,193.9740085301272
1.5015015015015016,-9.858140021690255,13.106724639250114,131.8239422421152,75.38934772097168,119.15789722891851,154.85443138571617,225.1710177164772,193.67260081676213
1.5348682015348682,-10.757905848055207,18.71833361407571,128.68946199099875,73.03181793868688,118.86553488183488,155.0190221886132,225.8723939032922,193.4693651470247
1.5682349015682349,-8.89836163003887,25.57166819202495,125.92389720349684,72.25479893130847,118.60775145643458,155.04476801277255,226.4350190191734,193.41397945949493
1.6016016016016017,-4.606634462247225,42.1933604689808,124.11928184076636,72.22876158597826,118.39548080417146,155.03279749305594,226.96722587448892,193.4480047955836
1.6349683016349683,2.1178061616893142,58.22428203599181,123.25097416499511,73.30687376811896,118.25483593966096,154.99203932634967,227.4668210830305,193.5443573204067
1.6683350016683351,10.81792085590698,72.81344179641715,122.89584554893209,74.19362767082883,118.17737005060934,154.9991266182199,227.96964906610967,193.5720592446442
1.7017017017017018,21.64254077645172,86.14788104384671,123.1422453526096,75.05243952693145,118.20396806808292,154.9601777934494,228.4144510333595,193.644839498956
1.7350684017350684,34.212638165829176,98.25763236910026,123.42594359135,76.04989599125996,118.31072385250964,155.0424020870874,228.77767410599452,193.5596673551415
1.7684351017684352,48.226440211199545,109.3106307498577,123.92856852795371,79.05551775644052,118.37460956368732,155.05244291268332,229.0960090138689,193.54456729574488
1.8018018018018016,63.360807921328856,119.17459662785868,124.90633893485727,82.40546553585844,118.51753106841628,155.1766886905323,229.36667558613303,193.42926262473776
1.8351685018351689,79.52429409597177,120.08152772692128,126.2290577668705,81.82031159043255,118.75499268764618,155.48206211190973,229.6248355173701,193.13435276044305
1.8685352018685355,95.74840786717132,122.11500517504544,127.89936736790216,81.22171349624819,118.96972604597256,155.81632122544974,229.9691171143393,192.8577877132744
1.901901901901902,112.45815530389184,125.0822380968926,130.0218639727016,83.2486350122866,119.2076023970736,156.17521326170964,230.30170055418412,192.54044031255023
1.9352686019352687,129.1068910284217,128.8266641885809,133.77367918063953,86.12360752998075,119.5761412909398,156.5479635869273,230.54052841942985,192.2571154409598
1.968635301968636,145.81209980078964,133.01795294978828,138.2503733780188,89.3896485858345,119.96890738590965,156.9878764958521,230.73664889848425,191.96093951948163
2.002002002002002,162.64653762419775,139.51161259246854,143.5936194484573,92.55826122105223,120.21147853439548,157.38527548649745,231.0379077636436,191.7459193610909
2.035368702035369,178.94173084284822,147.04065056790594,149.7797799993036,96.5020821411849,120.23361827323522,157.7366802265494,231.5003221932513,191.55200931275104
2.0687354020687354,194.1797454306285,153.93574044415345,153.76156566017656,99.98143257101356,120.1646580596002,158.0503126888084,232.00533600882392,191.46371102657
2.1021021021021022,209.04386884946385,169.40300870762556,157.8811021532322,105.43487478708964,120.0578650220526,158.51804817024473,232.2815729486992,191.3366959096309
2.135468802135469,223.59436356193905,182.11778772802447,164.75606468406323,109.65172853907562,120.11332780165152,158.91320851316033,232.46024232823348,191.3597656064173
2.1688355021688355,236.95779712944977,192.3078009007395,169.15989309733888,112.79220695484356,120.32672996681654,159.18645166705343,232.59453793160768,191.4541163273389
2.2022022022022023,257.5986682244348,200.1305389083402,171.0100838938113,114.390728722166,120.56137527352648,159.29934853722764,232.70529860068007,191.7493550218877
2.235568902235569,275.26831107392854,205.56302458078503,172.18017765899006,113.9505807715782,120.69361996645416,159.26045620478928,232.79723493752172,192.2666107547479
2.2689356022689355,289.19602633010726,208.2686440407947,172.1573162380709,112.30400150597664,120.93493563884168,159.01443045827946,232.8584516668137,192.9774996454808
2.3023023023023024,300.16157716892184,208.05289837693172,170.45180584110648,109.01365550497214,121.16097392418646,158.6920268425612,233.0582152873012,193.85564940067823
2.335669002335669,306.6675701229881,205.1050923633628,169.1726495905994,103.9746589089793,121.43242518426833,158.23914023523668,233.1592568438068,194.8695151239189
2.369035702369036,308.5396382732585,198.93134361967583,168.0162686517924,100.80085395725813,121.70608328796952,157.67709499838514,233.1426853578074,196.0316484989449
2.4024024024024024,306.34720960068955,190.58120227735049,165.76757077309347,98.42589298050775,122.01231938186751,157.03228209610452,233.0075879149396,197.34563369829604
2.4357691024357693,299.94838352129926,180.05441515174948,163.83617739838957,96.24992526416072,122.33133534243775,156.2771223760402,232.7535772819725,198.8901463891263
2.469135802469136,289.5940362519922,167.13098693883708,163.0956352736205,94.10306762249262,122.80541812660135,155.49606603965225,232.36788863270647,200.5001024590777
2.5025025025025025,275.2821792528112,152.10435017254486,162.8733623532229,94.07393586182648,123.35340817201347,154.675557227097,231.936872789211,202.1113172390687
2.5358692025358693,256.90144462042474,144.56545373324758,161.8027431703243,95.81837766696052,124.00035559218398,153.8068472289075,231.4073797958289,203.72311931442235
2.569235902569236,234.85340565581063,137.9984520879852,160.66292660348682,96.518189900169,124.9766984562976,152.87026870263992,230.6767672811985,205.4950954205397
2.6026026026026026,220.9158267313531,130.59857458291955,159.20053090902468,97.7674518856398,126.03266382138068,151.92911327704732,229.80894382652377,207.22742420380925
2.6359693026359694,206.26107617787787,123.35914130906798,157.68407608780848,98.92513448127588,126.9880237673542,150.88409637883285,228.9554977150605,209.0104826150276
2.669336002669336,190.75294821558373,117.13021295260944,156.0802689296623,100.37294943065336,127.94395444055816,149.8970673362622,228.06075027817084,210.66474099807093
2.702702702702702,174.8204448807418,112.29248470287568,153.8165802774024,101.6407483452398,128.94126804307854,148.93471306915208,227.2537179677676,212.21134948188464
2.736069402736069,158.47152555263455,109.51999851901265,151.59685856768988,102.39719114090212,129.9536965772173,148.07859793512546,226.47323646751707,213.5449766880905
2.7694361027694363,141.88646102426043,97.43636004970774,149.370306237087,103.00662054064264,130.96975618152666,147.5359536225653,225.65538382948208,214.7694015456671
2.802802802802803,125.1737695215066,84.299480105086,147.00806337843096,103.4798900656815,132.00070002637483,147.04481794051316,224.73322435503889,215.78245974053905
2.836169502836169,108.56709424494048,70.42685151378886,144.78047126100785,103.34008464945964,132.9733874311947,146.65505334190786,223.77681902436944,216.5154732923903
2.8695362028695364,91.9586967089989,55.76378851769232,142.82932512503746,103.748240725662,133.93467502947502,146.33106316870428,222.7087619856238,216.9330516575436
2.902902902902903,75.93425271539513,40.18749998459763,141.93681201954703,105.4235675826667,134.83704528720688,145.95454114080485,221.587525851121,217.075671301388
2.9362696029362696,60.70715447382248,23.94362983761254,140.92541485827607,105.2820144510578,135.74716920244504,145.73207640770167,220.38738206978664,216.8588516433584
2.9696363029696364,46.27488190396203,6.942604214951945,140.1294788259507,108.0389785914942,136.32435820831444,145.54633580704504,219.3055974703944,216.37935866974524
3.003003003003004,32.81170650915693,0.0238944873683866,139.32250877838706,108.49161778482744,137.00140314896828,145.46405675689255,218.08177074833503,215.81785596709005
3.0363697030363697,20.407157999628907,-4.55319393727251,139.97984084991714,113.65291236520048,137.99517418717537,144.95956252742556,217.05405886681945,214.7030307933896
3.0697364030697365,9.381162871731677,-6.685401038044073,137.79759718023877,118.08695641408686,138.8122274281174,144.792390906499,216.0251858616975,213.3960417196056
3.103103103103104,0.1166434997798168,-6.47741227509298,132.57425793746697,122.74904577412342,139.3559136427012,144.9305632381991,214.8402211283022,211.9507415145328
3.1364698031364697,-7.642890070245611,-4.051021864047433,128.2433103525873,127.58882707494462,139.77416631913786,145.05537191789878,213.52045371628785,210.4841838275865
3.169836503169837,-13.31061983545,0.7525830697139646,123.72071437609176,130.91443323818174,139.4007943447218,144.8566482395764,212.02737587089672,209.16708368154391
3.2032032032032034,-16.153174388186482,8.001242051547234,119.942343852641,134.03800912576568,139.2931218180726,144.85982339569478,210.32880066658515,207.76782255469308
3.2365699032365702,-16.048004439547956,17.994370128209976,117.79964816201706,140.07735861284962,140.04763187351205,145.03285405721007,208.5763086095619,206.2501564382923
3.2699366032699366,-13.118147825581072,18.78477609252817,116.04168709541636,143.34028817434975,140.7976023057318,145.02176059156915,207.01309494400897,204.8731836718285
3.3033033033033035,-7.339363634159224,20.02019194760928,113.02919105923664,144.081927971004,141.017564994598,145.07160524385685,205.2871299275969,203.928272337169
3.3366700033366703,2.2198423683559785,20.732769473982945,114.95987130750017,144.4523614297804,141.0841537504953,145.10207272055476,203.75220445120385,203.0902029118358
3.3700367033700367,3.557615494206788,11.758817283195262,119.26340041788174,142.8950003126467,140.85812664661722,144.88778897403878,202.83223548451352,202.28417878769423
3.4034034034034035,3.557615494206788,5.709282985230312,121.57173962635513,141.543596387364,140.7534926775188,144.70135088739374,201.97955365483827,201.37321147963257
3.4367701034367704,3.557615494206788,2.826407542530137,122.21585144947775,140.77500314250682,140.6970542236419,144.67066359261207,201.10454084337945,200.4119850651828
3.4701368034701368,3.557615494206788,2.826407542530137,122.22938828739368,140.31344324307932,140.7637791135167,144.64599764068365,199.9934807139045,199.4569112330624
3.503503503503504,3.557615494206788,2.826407542530137,121.96947149183596,139.06414898544776,140.85131955088843,144.7329484689619,198.8276822802452,198.5463868975089
3.5368702035368704,3.557615494206788,2.826407542530137,122.1453524418059,138.63047063242598,141.10271856019776,144.85861664862895,197.5922181380591,197.65587794425693
3.5702369035702373,4.328419599224332,2.826407542530137,122.59459955217926,137.90168359534707,141.5056166205354,144.98466108272436,196.3317945518768,196.7695794878855
3.603603603603604,4.328419599224332,2.826407542530137,122.78208141626418,138.05860900413532,142.103650641258,145.14605552748088,195.09388720405423,195.812346678568
3.6369703036369705,4.328419599224332,2.826407542530137,123.35609754928424,140.61678989378174,142.76713637927728,145.2802746099481,193.903033666424,194.88446688150825
3.670337003670337,4.328419599224332,2.826407542530137,123.18010777293338,138.08679263727228,143.5803070136091,145.39587497443867,192.66937231959227,194.0873227764197
3.703703703703704,4.328419599224332,2.826407542530137,123.20297532247363,135.50833373651582,144.48695499265617,145.5176738766308,191.47564524494737,193.44595370250647
3.737070403737071,4.328419599224332,2.826407542530137,122.9224188735894,133.0692605431691,145.20189135990347,145.6891654961904,190.45883828384493,192.75606308673704
3.770437103770437,4.328419599224332,2.826407542530137,122.64154033895667,131.57115128766912,145.78328150832857,145.81544076609106,189.61692492509977,192.1775927303926
3.803803803803804,4.328419599224332,2.826407542530137,122.07097116564108,130.97754908434453,146.45247228453638,146.03202224986194,188.84702629459267,191.5391404122336
3.8371705038371706,4.328419599224332,2.826407542530137,121.32597523210369,130.6112651160894,147.12333753998507,146.2943024273989,188.21010593809305,190.9132847084635
3.8705372038705375,4.328419599224332,2.655112762440635,120.97965754560374,130.81504798205006,147.74317166285016,146.64288121550334,187.54753132048177,190.27656707686629
3.903903903903904,4.328419599224332,10.421577304241456,120.91552403244184,131.60577478778288,148.39499410400376,147.12277095511593,186.8759175475818,189.66443726066967
3.937270603937271,4.328419599224332,18.87953926532557,120.944833620022,133.1293359283135,149.04420216237145,147.43099815105637,186.237836252932,188.9543537875535
