Time,Left Shoulder Angle,Right Shoulder Angle,Left Elbow Angle,Right Elbow Angle,Left Hip Angle,Right Hip Angle,Left Knee Angle,Right Knee Angle
0.0,21.626274270431463,29.27435588579995,157.29893774863947,163.88152199434654,140.52785299811538,146.4656858539437,207.37138346012424,202.44564669413083
0.0333667000333667,22.37057447081069,28.91169950170556,158.18522184381305,163.56115835476382,140.7965999613925,146.6186844945332,207.24823786778185,202.46745554483343
0.0667334000667334,23.02813318254586,28.633813108402705,158.96937876710302,163.31067791403962,141.04729351370216,146.7223912152928,207.1461486201851,202.50197930931475
0.1001001001001001,23.605126447794813,28.43381453284737,159.65892652197925,163.12458452840318,141.28040424330197,146.77982070094706,207.0624053240732,202.54846665640363
0.1334668001334668,24.10773030871541,28.304821601995545,160.26138311191167,162.99738205408372,141.49640273844952,146.7939876362206,206.99429758618527,202.60616625492884
0.1668335001668335,24.54212080746551,28.2399521428032,160.78426654037017,162.92357434731042,141.6957595874024,146.76790670583796,206.93911501326053,202.6743267737192
0.2002002002002002,24.914473986202964,28.23232398222632,161.2350948108246,162.89766526431254,141.87894537841822,146.70459259452377,206.8941472120381,202.75219688160337
0.2335669002335669,25.23096588708563,28.275054947220884,161.62138592674484,162.91415866131928,142.04643069975452,146.60705998700251,206.85668378925712,202.83902524741032
0.2669336002669336,25.49777255227137,28.36126286474287,161.95065789160083,162.96755839455986,142.19868613966898,146.47832356799884,206.8240143516568,202.93406053996875
0.3003003003003003,25.721070023918035,28.48406556174826,162.2304287088624,163.05236832026347,142.3361822864191,146.3213980222373,206.79342850597627,203.0365514281075
0.333667000333667,25.90703434418348,28.63658086519304,162.4682163819995,163.16309229465935,142.45938972826252,146.1392980344425,206.7622158589548,203.1457465806553
0.3670337003670337,26.061841555225566,28.81192660203318,162.67153891448197,163.2942341739767,142.5687790534568,145.935038289339,206.7276660173313,203.26089466644092
0.4004004004004004,26.19166769920215,29.003220599224665,162.84791430977972,163.44029781444476,142.66482085025962,145.71163347165134,206.68706858784515,203.38124435429333
0.4337671004337671,26.30268881827108,29.20358068372348,163.00486057136263,163.59578707229272,142.74798570692846,145.47209826610413,206.63771317723544,203.5060443130412
0.4671338004671338,26.40108095459022,29.4061246824856,163.14989570270058,163.75520580374982,142.81874421172097,145.21944735742196,206.57688939224136,203.63454321151323
0.5005005005005005,26.493020150317427,29.603970422467007,163.29053770726347,163.91305786504523,142.8775669528947,144.95669543032938,206.50188683960204,203.76598971853832
0.5338672005338673,26.58468244761056,29.79023573062368,163.43430458852117,164.06384711240824,142.92492451870731,144.68685716955096,206.40999512605663,203.89963250294528
0.5672339005672339,26.68224388862764,29.958038433911867,163.5887143499449,164.20207740206936,142.96128749741752,144.41294725981243,206.29850385834607,204.03472023356449
0.6006006006006006,26.726507741326564,30.102494693473886,163.71770158311986,164.44472164370774,142.9541919969323,144.14507236389957,206.07811625154005,204.11202011308453
0.6339673006339673,27.019832207523976,30.142093867417245,164.0376507169037,164.5983290479685,142.97354594887034,143.8735910059784,205.76073090459465,204.2288238943424
0.6673340006673341,27.41855618903789,30.18186102542748,164.46015715449138,164.84992368270477,143.0649319377484,143.59953971564985,205.2703648035977,204.3857539037791
0.7007007007007008,27.868480767560644,30.131655667150824,164.94438245283828,164.96630049190753,143.13375001334558,143.3335840279228,204.7874658869591,204.5694892607154
0.7340674007340674,28.296764464593046,30.024625316228523,165.4222017423581,164.8982758499272,143.20811476928984,143.07172918382545,204.30275139530363,204.75564702836363
0.7674341007674341,28.68565058171472,29.821468446011497,165.88582178704405,164.6663198655608,143.24121881275843,142.83481358925502,203.88049939513323,204.9273076849388
0.8008008008008008,29.12775395342181,29.514864071797536,166.39912853623747,164.2834692791268,143.32624201126256,142.59816778781865,203.42306821822984,205.08698210706228
0.8341675008341676,29.566118198521043,29.13810007161344,166.95288982408118,163.81557835940464,143.34856136450975,142.39562149114627,203.0483396409837,205.2141144892592
0.8675342008675342,29.99377578295172,28.78758318071809,167.51848320083343,163.45452646914612,143.24292732400468,142.23246814679484,202.8274000312103,205.3270474010144
0.9009009009009008,30.419431119951795,28.373960986563144,168.1739109246178,163.00288769886328,143.0538090219784,142.12303982100784,202.7097545004788,205.43030596872632
0.9342676009342676,30.85422093057296,27.97838528463541,168.92166614244775,162.371758156084,142.872997728245,142.0013063951176,202.62985023318683,205.56484994811032
0.9676343009676344,31.2795033633816,27.500107391097814,169.81901295231103,161.62034000700095,142.6791747306657,141.9112168326122,202.6662695234,205.6775051827503
1.001001001001001,31.643760240185387,27.009646643777863,170.55476945158125,160.89426197556747,142.37389207158856,141.86810330455452,202.85635991108,205.75475761862285
1.0343677010343677,31.90669948402006,26.431667318370337,171.26791346647067,160.06065805948515,142.00980315699587,141.88137569474128,203.1384659032348,205.8050083313432
1.0677344010677343,32.16890014727678,25.965545150882537,171.68806027209567,159.44882026057283,141.5850503965347,141.91701019818476,203.47614579219533,205.8450507973477
1.1011011011011012,32.380899370374074,25.45899937450088,172.28064577286705,158.74431418614026,141.11003552083838,141.98792447566666,203.88242113668048,205.85771822677515
1.1344678011344678,32.568639908712214,24.858783885816862,173.1720254542581,157.8386022555542,140.65813533369413,142.135718533622,204.3495776596172,205.8150735626789
1.1678345011678346,32.611305167345314,24.14631808300621,174.17534476340754,156.8034993735036,140.2023990854167,142.3550425869202,204.88000724002944,205.7229895443304
1.2012012012012012,32.53537040010275,23.41424387107292,174.97331003124177,155.71767919243314,139.77224249535922,142.6283007921739,205.43162388465944,205.5824873341025
1.234567901234568,32.28610287007434,22.58053969012709,175.7008189182945,154.509503362322,139.36150391295536,142.96631912718203,205.9879108971148,205.3992308324548
1.267934601267935,31.830492999777544,21.537335313146027,176.05373289039983,153.225920175197,138.93403790281144,143.368386153279,206.5680231036532,205.1715761732438
1.3013013013013013,31.147674005290803,20.32646629613607,176.3227614864056,151.88581480135943,138.4917124091806,143.85042564044318,207.14973482232665,204.9055606223077
1.334668001334668,30.380208074400805,18.89708233862781,176.61822894181913,150.37790825124975,138.07072975699842,144.35747909789373,207.7620121599271,204.62624741805047
1.3680347013680347,29.49592176272825,17.52598359098092,177.12556815503802,148.92228638447597,137.70030217569143,144.88100891338658,208.38393402697795,204.35078285044503
1.4014014014014016,28.54319904554659,16.222918100396637,177.7304683915633,147.69470529170815,137.35963632122204,145.4142947517551,209.01859306425763,204.0646495355126
1.4347681014347682,27.44311124772652,14.96594475789099,178.4813336718377,146.48606505672242,137.02772059117902,145.96412079060815,209.6770816581308,203.78273517002603
1.4681348014681348,26.09434078970076,13.73155036628972,179.20979004026455,144.86691093397482,136.74197691061616,146.5256180613611,210.31628600705812,203.5063866388744
1.5015015015015016,24.51698504443392,12.556987108977305,180.1683280092089,143.33766124855066,136.46229466644175,147.09997238131058,210.9581565893344,203.2400713546096
1.5348682015348682,22.29930400437209,11.544874229045568,181.38224758877453,143.65914592282166,136.1952720240274,147.67659639613677,211.56351411018613,202.9753192404424
1.5682349015682349,20.18895680163733,10.607906474890449,182.63228464353008,143.81868632849526,135.9026148191359,148.2665726124232,212.0987645647405,202.6793701973681
1.6016016016016017,18.28640828718739,9.76648187932076,183.281701073691,144.5157383392412,135.57756576546043,148.82271705568817,212.5066514351905,202.36136351675663
1.6349683016349683,16.569444682968765,9.009196068568492,183.90637676026128,144.77320563936118,135.28279828709097,149.38295229981455,212.8571128698711,202.05412643910628
1.6683350016683351,14.901569820930028,8.340474166313236,187.26322202005576,144.40838707574235,135.07887507059047,149.964751227539,213.0785391155246,201.73380687356928
1.7017017017017018,13.46880589167367,7.651700867993964,189.99838636332333,143.45562486032605,134.93877272126286,150.5244098387885,213.18979369237672,201.45958138305187
1.7350684017350684,12.328331349706776,6.829227350414156,192.40847957032892,142.72828165074898,134.8485682984513,151.08720457961385,213.2037125926949,201.1975721820235
1.7684351017684352,11.403454851117647,6.101741169630982,194.0918180557564,141.92769260123663,134.85962201200545,151.629006600198,213.1053172038769,200.98459396886824
1.8018018018018016,10.360088672175635,5.507908943168777,194.93373898317168,139.42443231720827,134.9042476484556,152.14977018526525,213.0051777812224,200.7920069226469
1.8351685018351689,9.542199372151728,5.024767955651903,195.0970816527445,136.2390486638021,134.95955707402558,152.64077396690303,213.00355054554217,200.6116349203812
1.8685352018685355,9.153063402544294,4.74435944236955,192.81005891540784,132.6517776602418,135.02856547570477,153.08486201757995,213.01514433557705,200.44197830461687
1.901901901901902,9.20216415906668,4.69865269365735,191.22268529972936,128.72209269736288,135.10039184595337,153.48834873916886,213.06227433947467,200.30398446099505
1.9352686019352687,10.16862890873109,4.626395853070991,190.7305893035296,124.75832851834808,135.235117784048,153.83578517135277,213.091820405514,200.2106660450759
1.968635301968636,11.371366281562173,4.626395853070991,189.77439232385936,120.78041349371426,135.29540913883363,154.16354276347963,213.2469697001532,200.15741906047435
2.002002002002002,12.685337919340904,4.626395853070991,188.43155064015247,114.39119437532884,135.35753613731254,154.3936347179049,213.45622655819,200.19132760529584
2.035368702035369,14.073645480659025,4.626395853070991,186.82630853070864,108.19707558728868,135.4828624571586,154.56795605151555,213.64593367327936,200.26686031742807
2.0687354020687354,15.630060007748863,4.626395853070991,185.18619811354907,102.51778673310132,135.63675971579312,154.62754942042096,213.8687975620522,200.4101128711664
2.1021021021021022,17.248763347049678,4.626395853070991,183.57342053969188,97.32168484072145,135.67025161759824,154.6603195965844,214.1721859102178,200.5678393557268
2.135468802135469,18.687150017751623,4.626395853070991,183.29079649315528,95.84651866035853,135.76291051515898,154.73033945078288,214.3065478979985,200.72706472374787
2.1688355021688355,19.936207263903867,4.626395853070991,182.70870201672653,94.22689224628664,135.8704716299382,154.8645537280271,214.3657632276904,200.87237897638403
2.2022022022022023,21.52767292915497,4.626395853070991,178.5636751087804,90.77208326254562,136.0346360968182,155.02523736809923,214.40749716082405,201.00555309623635
2.235568902235569,23.112008771120543,4.626395853070991,175.27009638353948,87.00259056213683,136.29804222388546,155.2362230890445,214.4403922970397,201.1149876871718
2.2689356022689355,24.572704899791507,4.626395853070991,171.51050713787242,83.89188093366784,136.68730256622163,155.46276517318822,214.4107183825846,201.2090199081397
2.3023023023023024,25.79870264071465,4.626395853070991,167.51133960586634,81.35558457222899,137.10621569532807,155.68533312166684,214.35484758714315,201.31189798962163
2.335669002335669,26.854935315264672,4.626395853070991,163.62874646993177,77.45775822518806,137.56740039834168,155.89154583300547,214.2926697315044,201.4508912096244
2.369035702369036,27.759627898510622,4.626395853070991,160.64360643479344,73.69120295616831,138.0160489410064,156.10784149585984,214.2747766840264,201.60286258937708
2.4024024024024024,28.171786108949373,4.626395853070991,157.24647695756522,71.31118588806991,138.47171565407996,156.32698775290493,214.30184217959305,201.760219708306
2.4357691024357693,28.414519259879345,4.626395853070991,154.61736977442573,68.99244914310559,138.9280197277009,156.54961709499463,214.3696854749469,201.90892217259176
2.469135802469136,28.620371712485827,4.626395853070991,152.31216279334004,67.27793931399403,139.35296667716267,156.77309493342048,214.4798274494648,202.05185102076905
2.5025025025025025,28.59732916116081,4.626395853070991,153.68116498890598,66.26975201999483,139.7295662979859,156.97648716352245,214.6086719884097,202.1904209838553
2.5358692025358693,26.964669288646327,4.626395853070991,154.81004924762584,65.7537950747773,140.04577432383755,157.16288518435454,214.7733328114364,202.3064208474921
2.569235902569236,17.287461258926324,4.626395853070991,156.18135709933765,65.79001458471114,140.2576420955585,157.31985117403272,214.9400552873909,202.4282400365278
2.6026026026026026,18.602969064489937,4.626395853070991,156.95501015809495,66.39069544465383,140.4546313252995,157.50130147312677,215.1091692113636,202.51755961519925
2.6359693026359694,20.04707919698885,4.626395853070991,157.58921575253171,68.21972448897984,140.5984455038282,157.70764284536295,215.3010437557441,202.5683579872027
2.669336002669336,22.864776490211494,4.626395853070991,158.56181265429828,71.15119757710282,140.6750630937439,157.93928139013917,215.50112649200332,202.58104457346016
2.702702702702702,26.05092938596388,4.626395853070991,159.45342616916022,72.83563989874213,140.73150960762075,158.19600315444322,215.70570320048705,202.55028467289915
2.736069402736069,27.53893494513369,4.626395853070991,162.15552888829245,74.58549081177132,140.72208569963686,158.4563515554236,215.94098137241653,202.48267017961967
2.7694361027694363,29.53460132339545,4.626395853070991,165.3965074700717,75.49908714373615,140.7521963839741,158.74772629338045,216.1719731974798,202.36766133579803
2.802802802802803,22.9458016137116,4.626395853070991,169.50009211862383,76.35158122519422,140.79918262993112,159.03753238960658,216.38209373048235,202.2168091916049
2.836169502836169,27.14122434193556,4.626395853070991,170.45862836970872,77.3470127215263,140.85561643657883,159.32379411411415,216.6134090415858,202.03511129608285
2.8695362028695364,31.600055850858013,4.626395853070991,170.6684037104177,78.24804989894432,140.91059688295505,159.6147113224089,216.8620050277458,201.81634650071416
2.902902902902903,36.824755407832,4.626395853070991,168.9246972271719,78.12685992229771,140.96312461885282,159.88751652490677,217.10034743378657,201.59434111375447
2.9362696029362696,41.80636724486115,4.626395853070991,167.15406228496906,76.77365501342295,141.0303193100272,160.14376437425238,217.31177310060852,201.36046112982424
2.9696363029696364,38.5025332968784,4.626395853070991,167.06520475283156,76.49054690687771,141.1822731978024,160.3439740430816,217.4999941556318,201.14575855542472
3.003003003003004,38.03589004279885,4.626395853070991,166.24215106663783,76.28703187800471,141.33248964820152,160.49422072087967,217.68543214486405,200.93598332091585
3.0363697030363697,39.77395603473543,4.626395853070991,167.58496582471858,76.04242339353775,141.5424822294759,160.63503191547653,217.8568066162866,200.7310402817985
3.0697364030697365,43.59316803270565,4.626395853070991,168.78818390740125,75.64189309248094,141.75145331474647,160.7108422073606,217.9694522047872,200.54197945358052
3.103103103103104,48.63025480527489,4.626395853070991,168.87012274025224,74.89205014543306,141.93661521605927,160.76752667157848,218.07208329428613,200.38508020634976
3.1364698031364697,55.07293261174487,4.626395853070991,168.7125921868908,75.96989636993105,142.18397695959024,160.87565866818724,218.17247613004795,200.2444528462605
3.169836503169837,62.75438503548288,4.626395853070991,168.6838320248618,78.80060648647049,142.42854072650354,160.96322376397697,218.27556329020103,200.05660848847847
3.2032032032032034,71.25055475808625,4.626395853070991,168.8510635905827,80.64744843480221,142.6879924658444,161.03823943786816,218.4430750522089,199.8285669378781
3.2365699032365702,80.48920023674734,4.626395853070991,169.01404025529888,82.82023988848857,142.92203254042104,161.1604360229699,218.56829166395136,199.5947831657897
3.2699366032699366,90.3148815728704,4.626395853070991,168.8959898485039,85.85669299283614,143.27911689788598,161.32959273930956,218.5816904896432,199.32556593163213
3.3033033033033035,101.01329808961556,4.626395853070991,166.3616452481518,85.65245194820085,143.52413666628647,161.4824353355684,218.7177909342488,199.10052149555844
3.3366700033366703,122.59631342342992,4.626395853070991,161.6854206177183,86.84237329968671,143.88128580696417,161.63845642487715,218.76887379383092,198.89367313669896
3.3700367033700367,141.3696944105946,4.626395853070991,160.12166295627625,88.26981101698043,144.26051958511175,161.71167338729347,218.7975470292093,198.8048957364268
3.4034034034034035,157.41245123950273,4.626395853070991,158.10238115549888,88.61373091973496,144.60772585934197,161.70730269446952,218.87616287249344,198.72608860025875
3.4367701034367704,170.94323228848023,4.626395853070991,156.80866469117305,87.77950032596927,144.86182418862157,161.70982333276444,219.01365814700395,198.77235287119893
3.4701368034701368,181.6999519506124,4.626395853070991,156.8288843539782,86.42818366433328,144.76927822659923,161.8969406636126,219.28176654506,199.10303764037283
3.503503503503504,189.7186761235231,4.626395853070991,157.6970907831645,85.57784558265435,144.68884138023805,161.99224097784085,219.5789525345745,199.5694028513514
3.5368702035368704,194.9749064307072,4.626395853070991,158.75712222131145,83.48967930521468,144.7191918475767,162.01917854907643,219.96776015631505,200.0744016237703
3.5702369035702373,198.1178404366744,4.626395853070991,160.6574125267309,80.25415304564766,144.6959977718351,161.92570973705418,220.34716526283003,200.6543919715893
3.603603603603604,198.9149171048409,4.626395853070991,163.68839510255268,76.82774327691327,144.62613954138126,161.64905802684964,220.6401246877464,201.369413743562
3.6369703036369705,197.2003706012273,4.626395853070991,166.57999571817533,73.93265152484994,144.5432908932934,161.29424372419552,220.89700716478384,202.14777773732183
3.670337003670337,193.22830234163715,4.626395853070991,163.17458155510616,66.42336046299556,144.4932804652201,160.95591431819125,221.1388366807901,203.00788540958573
3.703703703703704,188.77890810344056,4.626395853070991,160.33557696150368,65.60765845139308,144.44495109269673,160.55076910153912,221.31797026021172,203.8888439231651
3.737070403737071,193.46973114189672,4.626395853070991,155.78147204272798,60.64872133534267,144.32002282184772,160.01763809565884,221.5634714616481,204.83584273925416
3.770437103770437,188.1119483826768,4.626395853070991,151.93785538067905,57.60652353276398,144.14753036274854,159.43240346047534,221.78845011699536,205.74941017567252
3.803803803803804,181.0031584443716,4.626395853070991,148.91790494297038,56.47106155115942,144.04542026044766,158.75912792299204,221.9638146398792,206.7002671409021
3.8371705038371706,170.3503628814317,4.626395853070991,146.4424141380636,55.9015011112098,144.0403829172265,158.06124764805278,222.04328916762205,207.6053824569645
3.8705372038705375,156.85432668164665,4.626395853070991,145.25126213345445,62.1796159374068,144.006553019916,157.2454937135232,222.2136244211968,208.22870258193
3.903903903903904,143.0180476684803,4.626395853070991,142.64032371293538,67.56269558857912,143.9752465531348,156.53634248316925,222.3062214331541,208.72165635495872
3.937270603937271,126.57409705139104,4.626395853070991,139.91517062801387,72.69145445672835,144.02334018101618,155.9689476175556,222.30019955079564,209.2334201352854
