Time,Left Shoulder Angle,Right Shoulder Angle,Left Elbow Angle,Right Elbow Angle,Left Hip Angle,Right Hip Angle,Left Knee Angle,Right Knee Angle
0.0,19.526680360284296,33.13154854406376,149.58644049559518,170.15897303425876,146.50566551052648,139.2927864127934,188.15793260648675,198.62923632694373
0.0333667000333667,20.447829791651003,33.13097206751957,151.25704179586228,170.01344969492897,145.70339352810927,138.7648726728143,188.60904531466045,198.74838846542767
0.0667334000667334,21.37250792612367,33.153214824311725,152.90861648181482,169.86857410160636,144.9853520525953,138.2729764343017,188.95567819512985,198.8894151518274
0.1001001001001001,22.29592391354954,33.19358307439291,154.5388108486309,169.7222710513141,144.34651921138664,137.81886331768618,189.20618950893945,199.0475295720165
0.1334668001334668,23.213286903775863,33.247383077715824,156.1452711914886,169.57246534107537,143.7818731318854,137.40429894339837,189.3689375171337,199.2179449118687
0.1668335001668335,24.119806046649884,33.30992109423315,157.72564380556605,169.41708176791343,143.28639194149372,137.03104893186898,189.45228048075705,199.3958743572574
0.2002002002002002,25.010690492018853,33.37650338389757,159.27757498604126,169.2540451288514,142.8550537676137,136.7008789035286,189.464576660854,199.57653109405632
0.2335669002335669,25.88114938973001,33.4424362066618,160.79871102809233,169.08128022091253,142.4828367376474,136.4155544788079,189.41418431846893,199.75512830813892
0.2669336002669336,26.726391889630616,33.5030258224785,162.2866982268974,168.89671184111998,142.16471897899694,136.17684127813752,189.3094617146465,199.92687918537897
0.3003003003003003,27.541627141567908,33.55357849130039,163.73918287763448,168.69826478649696,141.89567861906443,135.9865049219481,189.1587671104309,200.08699691164992
0.333667000333667,28.32206429538913,33.58940047308015,165.1538112754817,168.48386385406667,141.67069378525198,135.8463110306703,188.9704587668669,200.23069467282545
0.3670337003670337,29.062912500941536,33.60579802777046,166.5282297156171,168.2514338408523,141.4847426049617,135.75802522473475,188.7528949449988,200.353185654779
0.4004004004004004,29.759380908072373,33.59807741532403,167.8600844932188,167.99889954387703,141.33280320559564,135.72341312457212,188.514433905871,200.4496830433843
0.4337671004337671,30.40667866662889,33.56154489569354,169.1470219034649,167.72418576016406,141.20985371455598,135.74424035061304,188.26343391052808,200.5154000245149
0.4671338004671338,31.000014926458327,33.49150672883167,170.38668824153342,167.4252172867366,141.11087225924476,135.82227252328815,188.0082532200145,200.5455497840444
0.5005005005005005,31.53459883740793,33.38326917469114,171.5767298026025,167.0999189206178,141.0308369670641,135.9592752630281,187.7572500953747,200.5353455078464
0.5338672005338673,32.00563954932496,33.23213849322462,172.7147928818502,166.7462154588309,140.9647259654161,136.15701419026354,187.5187827976532,200.4800003817944
0.5672339005672339,32.40834621205689,33.0334209443851,173.79852377445587,166.36203169840047,140.90751738170397,136.41725492542616,187.30120958789576,200.37472759176364
0.6006006006006006,32.93534301580443,32.88291310082953,175.1337581132227,165.9594114903576,140.81006658322397,136.74021034978895,187.03736865727413,200.1245692281303
0.6339673006339673,33.150576286650804,32.61200805410955,175.926443757233,165.52118853867313,140.7624999896789,137.16916909299113,186.8104123126169,199.7755244804737
0.6673340006673341,33.23646605423437,32.1932281051568,176.6824142785075,164.9776531748577,140.6882392032555,137.71266051416927,186.7227114261079,199.33110546701576
0.7007007007007008,33.235040120348394,31.680979015854664,177.45128659149646,164.4679303270248,140.63383482763035,138.3644776411726,186.7133733717533,198.813951304514
0.7340674007340674,33.08339708689581,30.982624535730707,178.17799939171525,163.80583406419277,140.52504783966722,139.10679570126734,186.8622057304316,198.22046042167835
0.7674341007674341,32.848665884539486,30.389841578301155,178.7816275933836,163.38805476670765,140.31167918691742,139.91866980127523,187.20581097937503,197.5573329783787
0.8008008008008008,32.499376474704654,29.73387845690096,179.3298009191665,162.91597859362756,140.02641510929584,140.76576111442049,187.69924689756448,196.85248699353315
0.8341675008341676,32.02446410332806,28.93174243790969,179.64371005929365,162.37611147073122,139.65092040715683,141.63134785004266,188.3380515177024,196.12060677736773
0.8675342008675342,31.483284938439635,27.89745673416971,180.03892206520862,161.70181546395617,139.26638840811842,142.53478690830246,189.044729451964,195.37159162848545
0.9009009009009008,31.0207702911391,26.66667928011937,180.55715593601363,160.91857623673596,138.95241001611424,143.49884707057834,189.78618368866725,194.5680916960082
0.9342676009342676,30.59753975213377,25.35293904719289,181.54699644622696,160.04030544998113,138.6308329287967,144.51846736509572,190.5211216279472,193.73984469979047
0.9676343009676344,30.223327716029328,23.73473068278936,181.82283214063816,159.29661605268308,138.3404650547967,145.5708006820513,191.2092577519228,192.8996961684828
1.001001001001001,29.73187952683497,22.16873410978875,182.65677001008265,158.3597334636641,138.0677276794103,146.6310025403262,191.8832130824481,192.06269387754125
1.0343677010343677,28.96771984220418,20.72610869930915,185.6864791357816,157.4926072930349,137.74390275280388,147.66628631306662,192.59252780632127,191.2646026032974
1.0677344010677343,28.07039879353725,19.35668853376636,188.3333160622712,156.37284947506177,137.36575400583456,148.64827966957586,193.3081068998694,190.5284802283132
1.1011011011011012,26.947232022040016,17.420012023616497,186.8555733939223,155.6573373764343,136.91368111183905,149.57375236952868,194.0588427745961,189.8677528190328
1.1344678011344678,25.652955923278256,15.554376935645976,186.12954060428817,154.55645451417362,136.4747163648314,150.46274145745062,194.8164357849961,189.23250386950085
1.1678345011678346,23.942377358960066,14.120824735841268,188.0621166129137,153.8023680907049,136.01761792520355,151.29735658903795,195.58568086586973,188.6331897229064
1.2012012012012012,22.254793910433,13.102862394176046,189.1434054498636,152.4105478102654,135.5443788419354,152.06139748758562,196.35931424457416,188.06677847537725
1.234567901234568,20.54933445258709,12.39962385231403,189.36569269767548,150.59660474412192,135.05551598704417,152.72770857713417,197.1271753287364,187.57017088347607
1.267934601267935,19.04915677144388,11.89821048120849,189.1051610354909,148.24642420177523,134.59976618095018,153.3147416544311,197.84732133470465,187.1520866212968
1.3013013013013013,17.7744342075491,11.537396724925824,188.848832744248,145.6451864847897,134.2059346227872,153.8039268037727,198.5049046221868,186.82130881113807
1.334668001334668,16.78109233998985,11.34667711143572,188.18290737938744,142.61388090383574,133.84896947458412,154.22017302557424,199.0912755735324,186.583962660468
1.3680347013680347,15.772065909806797,11.233258177714005,186.89179743316123,139.48468491247024,133.50691542478188,154.59504819262926,199.6183266496446,186.40431923730603
1.4014014014014016,14.81361602020757,11.161566679715298,184.90984341425343,135.78850090555105,133.21284831175146,154.9279318241825,200.1248451039697,186.2814876892956
1.4347681014347682,14.74792307010916,11.167768874118083,182.48250517640105,131.67093340750785,132.97100999184917,155.18270452247975,200.54956757656345,186.20164098356872
1.4681348014681348,14.93959333083673,11.319528201696704,179.8370813088315,127.2135605333082,132.73442262519785,155.37684754070995,200.9539496859436,186.16457120436127
1.5015015015015016,14.020324915833116,10.913433555394304,176.05450219554962,122.98365552745553,132.45035740402048,155.53248574904097,201.40597298706663,186.16790253233296
1.5348682015348682,13.159821519559078,10.848505921779331,171.8948572731529,118.49613016139035,132.20582097066264,155.67297714185167,201.76495694160675,186.23560416112832
1.5682349015682349,12.103337954683845,11.910889997990754,167.33402880396818,115.07832310203746,132.06418401186966,155.7803682868754,202.03151290608668,186.32554060583325
1.6016016016016017,2.241024701881154,13.28659949076548,162.8322350406952,110.10603185962891,131.99760114619085,155.8511510305104,202.20043203103427,186.38534315523344
1.6349683016349683,2.241024701881154,14.752417534781756,158.3337169015063,104.96821458967754,131.97938840573823,155.84948780471086,202.2585304844551,186.48785749449232
1.6683350016683351,2.241024701881154,16.322809595389327,154.27123986539834,98.52164275004972,132.03893327692617,155.88066696904298,202.2242001494003,186.49070320132344
1.7017017017017018,2.241024701881154,17.96352137535779,149.91084603677484,91.54286289728576,132.19823396280043,155.9265569268011,202.0758355985469,186.42499036427947
1.7350684017350684,2.241024701881154,19.555928525874943,145.9162549563398,85.21044576404205,132.36018170692296,155.9896003460452,202.0467219836076,186.32126996545395
1.7684351017684352,2.241024701881154,21.16580153034848,142.0034180926378,81.16329533375843,132.57108229740103,156.05595790163017,201.9960680848412,186.19306775056896
1.8018018018018016,2.241024701881154,22.63436064299417,138.56116042073404,76.82628804630515,132.79365794517594,156.15248305422517,201.94788523179656,186.04737452364887
1.8351685018351689,2.241024701881154,24.40727961777324,136.06193211339746,70.88008910058238,133.08353240359733,156.24788712841917,201.8272943015656,185.88936759321345
1.8685352018685355,2.241024701881154,26.341106674299365,134.0840622937796,65.31414461441624,133.38031521778277,156.34186122225643,201.6981029973668,185.71549721128017
1.901901901901902,2.241024701881154,28.3558289512336,132.50183021896186,60.23137327140231,133.7169036909849,156.43887221606576,201.5292194814088,185.52602329641337
1.9352686019352687,2.241024701881154,30.137083388986817,131.48594868212473,55.35291979944867,134.16568349085867,156.5475527636643,201.2500187047867,185.3262673908353
1.968635301968636,2.241024701881154,31.712553859798827,130.97275708305608,50.68552998375935,134.71569097413692,156.67133698808976,200.85727466620813,185.1075674264341
2.002002002002002,2.241024701881154,33.189770356196206,131.16271181415058,46.52231125015477,135.40499737704226,156.845219586626,200.33883764553968,184.859907206454
2.035368702035369,2.241024701881154,34.64192374681727,131.96093341995038,43.10175097060202,136.13710571507087,157.02406858752553,199.76159745687096,184.5804223278033
2.0687354020687354,2.241024701881154,36.00093035027884,133.12880828324788,40.37950405933843,136.80501148493607,157.19219208073366,199.18467824114205,184.31749339302587
2.1021021021021022,2.241024701881154,37.29981833227749,134.47413157000614,38.544582129712346,137.42111929541895,157.35282064143323,198.65893032875388,184.0807473062965
2.135468802135469,2.241024701881154,38.87853906789332,137.26208323014248,37.33181731443256,137.9789941865211,157.5092673217125,198.159196898635,183.8562966877369
2.1688355021688355,2.241024701881154,40.44688065901087,140.20280474876347,37.24543454453944,138.4529923765425,157.6500861376054,197.68554636842072,183.66452025599497
2.2022022022022023,2.241024701881154,33.85863059427439,141.0036286964009,37.7815354747902,138.81909630890956,157.76574892575297,197.2773458912357,183.5109907457673
2.235568902235569,2.241024701881154,29.675246547639272,141.3625557331993,39.05591586964194,139.10903368651347,157.85845821193976,196.89025751400868,183.38320104484208
2.2689356022689355,2.241024701881154,28.54183077616588,145.96226978618716,40.36207977089511,139.34506367189223,157.9293344764408,196.51513365972104,183.270169578662
2.3023023023023024,2.241024701881154,38.12084445691018,150.826705005414,42.21390519243807,139.51881901016068,157.97007877221824,196.1519404576172,183.16224579245576
2.335669002335669,2.241024701881154,47.14709279529996,152.97798690057127,43.6112086585443,139.6490728336844,157.98958812818665,195.8013329182644,183.06050544768544
2.369035702369036,2.241024701881154,55.51077540011981,155.13895093881163,45.40040756694084,139.72608383704136,157.99748674238944,195.48626151970248,182.9513841678568
2.4024024024024024,2.241024701881154,63.200030614987874,157.43754072613976,47.4000640527345,139.7815550731457,157.99271715939554,195.1855343420017,182.8470652313533
2.4357691024357693,2.241024701881154,70.17332842207347,159.49506746727732,49.67676351210771,139.80896722138013,157.95808672421802,194.87029996964856,182.77006323295004
2.469135802469136,2.241024701881154,76.51342839835802,160.8871672310938,51.948165065980255,139.79085671922022,157.9003232554682,194.5678698211352,182.72007812853687
2.5025025025025025,2.241024701881154,82.1810205547959,161.88446359695294,54.40566100218583,139.7542265271217,157.83000853395103,194.2261367524061,182.67382223681457
2.5358692025358693,2.241024701881154,87.3266439530392,162.5863102835646,56.78292333248712,139.67096329795567,157.73738438049196,193.94396175491724,182.6573105946572
2.569235902569236,2.241024701881154,91.83496201529272,162.96245876087224,59.09289907677547,139.60805873412346,157.69294195475896,193.62643402027683,182.5936479544076
2.6026026026026026,2.241024701881154,95.79400845327577,162.9697231556706,61.492554022689376,139.5512951018559,157.6781238211697,193.32190290069155,182.56285264150884
2.6359693026359694,2.241024701881154,91.01063755728752,162.18759905479868,63.91580142995313,139.5041882382047,157.66614875582576,193.10864108743115,182.5900481766745
2.669336002669336,2.241024701881154,89.11479924866775,161.89638502831954,65.81622871357817,139.4431261276762,157.62815154667118,192.988976025067,182.6553898983499
2.702702702702702,-4.220962599439362,89.27552709893023,161.6546418569505,67.57687983446226,139.3931828980351,157.59472273087965,192.9212536969404,182.7220815960991
2.736069402736069,1.7932978703606386,90.38831141658032,161.63700738344718,67.50697326955105,139.28807918022403,157.54904482370583,192.92040846886795,182.8266036617809
2.7694361027694363,-1.0845648957613463,92.82342039764926,161.72883576617406,67.98855567727752,139.079874955191,157.4993247348021,193.04696790374345,182.91339984838945
2.802802802802803,-1.141654944687028,96.63512107494488,161.90067889747982,68.07636621620695,138.82884016411452,157.43576492752953,193.2725909882762,183.01089751447688
2.836169502836169,1.5613648367976358,109.93582499290034,161.73701943891203,69.19786898264519,138.58385333099898,157.40425868148228,193.59058455791484,183.06760439374744
2.8695362028695364,6.764998482922323,121.77163125357649,161.96541373675132,71.02584542341657,138.30528908305945,157.37886634916248,193.99834837006424,183.1146684113557
2.902902902902903,14.163542812499172,132.10462579444786,162.2558963980222,73.08177635630159,137.92533607936193,157.37297415972563,194.5092429180611,183.13920147177143
2.9362696029362696,23.44820183065874,140.96875284546735,162.78376312146443,71.39801707685764,137.48363151441416,157.33247708191536,195.13203428642024,183.2288183903784
2.9696363029696364,34.500603955953174,149.76659881639893,163.0653171394431,70.1568688218263,136.87160251160134,157.2917449065705,195.9009414370996,183.2899153486373
3.003003003003004,46.922916120497696,156.26657336066646,164.09196047310914,71.2388135584505,136.19108142132347,157.16476594236954,196.80717874961968,183.45550359083347
3.0363697030363697,60.586504978721415,160.46544104639588,165.88900456250445,70.9590376382016,135.44179147158547,156.9563974314617,197.91860080737973,183.72306899856503
3.0697364030697365,75.29433986783533,163.01892470889788,167.37777219120915,70.52168783555251,134.6327677050427,156.6562789013802,199.1776966951511,184.13796154837223
3.103103103103104,90.9492942921465,165.22442790636603,165.43240663233752,67.5668528032866,133.63340065018082,156.2119314800201,200.50238624093188,184.563378971114
3.1364698031364697,106.98661264798508,165.51185805481992,164.3350854009137,65.01747572207162,132.71345153062978,155.69183469489536,201.7634828208608,185.12955553969368
3.169836503169837,123.16809241807616,163.80112382625595,162.08321303830328,62.20744532831733,131.9106609713172,155.15725836189557,202.980419237231,185.8145914521133
3.2032032032032034,139.27451174879937,160.1766484767324,159.95894179821113,59.96157840621954,131.23308305451653,154.6150503314598,204.1209424940311,186.66889379435327
3.2365699032365702,155.24339848300133,154.7345004217008,159.22120605027317,57.542711529246645,130.73270258752032,154.1184106051327,205.1680547630316,187.64312858724105
3.2699366032699366,171.17079076225895,147.49549107677908,158.44691179106488,55.88456351371984,130.4074136570412,153.63357538176433,206.03396729518244,188.6845543144262
3.3033033033033035,186.7421191579877,138.5498449107578,158.15581348290692,54.89482504754885,130.1847541179202,153.25741109459074,206.73292035731217,189.72125050164777
3.3366700033366703,201.88798758705937,127.8180046565391,158.20423359149075,54.252691434473256,130.10135151871395,152.8635564463512,207.23304303515167,190.8420904827794
3.3700367033700367,216.32605958717767,126.00793352264816,158.46009311027225,53.963180540001005,130.10342476462978,152.45409059802543,207.49112472891744,192.10772483277097
3.4034034034034035,230.2549353109285,125.44635280848112,158.97181131360864,54.25547172562512,130.2295630145346,152.0356920700283,207.53331598793463,193.3962870076307
3.4367701034367704,243.25915278684155,126.18838261637136,160.85590688605612,54.600517038075466,130.52723034292404,151.35975639007322,207.42589941211787,194.97071297735923
3.4701368034701368,255.31581474244163,117.72381149471217,162.49107067923194,55.400348271914574,130.96045841541127,150.70196214835414,207.21558016980464,196.48077486254653
3.503503503503504,266.2116670070255,108.1190648337603,164.17725165226025,56.440048988312405,131.4478315884241,150.03645547929045,207.0658113991445,197.9687093632195
3.5368702035368704,275.588054883229,97.68530956472434,165.3349636873818,58.21379246471115,132.06931537847152,149.40926655612145,206.70368016977665,199.33194956630857
3.5702369035702373,283.1643631274082,86.31748817451464,166.1775060600944,60.67218646614299,132.78357609003726,148.7986028383653,206.30140867482896,200.62284806526648
3.603603603603604,289.1115356978582,74.17136829277366,166.60221638704868,63.61560637955832,133.68493881328456,148.3303714935875,205.67365375842675,201.76058246416977
3.6369703036369705,293.32294448155176,61.54781036403456,166.8339482388256,67.37838764658159,134.75264928831635,148.12615319317072,204.78279145262687,202.7324607307244
3.670337003670337,294.5001952267141,48.14329986209542,166.9813211353764,71.35730653272773,135.95669403995754,147.93263514578317,203.68538958653417,203.550817255086
3.703703703703704,292.96301388666177,34.16665499296137,167.69811934034982,81.02142330317797,137.25196804985364,147.93996307062957,202.422535113587,204.2422433020699
3.737070403737071,290.07199457200915,19.631250473922204,168.57891462701326,89.98011618820331,138.6261249983057,147.9664540168929,200.9654083119634,204.7661300673829
3.770437103770437,284.7297683019777,4.708939558748832,169.1566726747394,98.9899905040956,140.07712527104806,148.18053875165603,199.49270574304285,205.08540580716488
3.803803803803804,277.31969134231605,4.708939558748832,169.29207626355574,100.72382035905255,141.54312238247587,148.4564847290636,197.8917050970481,205.1525913028276
3.8371705038371706,279.45763988880765,4.708939558748832,169.18019929995293,109.30222036697188,143.05276918036398,148.8324575263243,196.1425566825907,204.96165863826204
3.8705372038705375,281.93028971167325,4.708939558748832,168.36745311358254,116.15889903161536,144.50078455436918,149.28771554459118,194.3937662921384,204.52199787975192
3.903903903903904,272.2147974910022,4.708939558748832,167.63141679868235,122.02793400456648,145.83815535896647,149.74838543671538,192.6736995492701,203.9200230334618
3.937270603937271,271.6113008387562,-0.048137216786392,166.59244711539057,126.77943321813254,147.13291534071885,150.27107300675243,190.96855267251,203.13377832328692
