Time,Left Shoulder Angle,Right Shoulder Angle,Left Elbow Angle,Right Elbow Angle,Left Hip Angle,Right Hip Angle,Left Knee Angle,Right Knee Angle
0.0,31.328405581038574,43.3202303441671,157.24115464437432,165.51527259453994,134.27641133251294,128.36458547966907,199.2530519209111,204.99092277050127
0.0333667000333667,31.32658110359341,43.31437323663607,157.572429958358,166.11517743566057,134.3096628775908,127.90159781169496,198.7356781854429,205.32370956388584
0.0667334000667334,31.38297136209493,43.32238502590541,157.9105729019955,166.5971473169026,134.32480020478718,127.45884299146763,198.2602386535724,205.60050240922112
0.1001001001001001,31.494474075426503,43.33943501501639,158.25709204983931,166.96457673925474,134.322641830547,127.03804943601791,197.82520878923432,205.8245661142428
0.1334668001334668,31.65798696247148,43.36069250701028,158.61349597644198,167.2208602037057,134.30400627131507,126.6409455623767,197.42906405636367,205.99916548668648
0.1668335001668335,31.87040774211321,43.38132680492832,158.98129325635605,167.3693922112442,134.2697120435363,126.26925978757484,197.0702799188953,206.127565334288
0.2002002002002002,32.128634133235046,43.39650721181178,159.36199246413403,167.4135672628589,134.22057766365546,125.9247205286432,196.74733184076405,206.2130304647829
0.2335669002335669,32.42956385472035,43.40140303070192,159.75710217432848,167.35677985953853,134.15742164811743,125.60905620261266,196.4586952859048,206.2588256859069
0.2669336002669336,32.77009462545247,43.39118356463999,160.16813096149187,167.2024245022718,134.0810625133671,125.32399522651409,196.2028457182525,206.26821580539576
0.3003003003003003,33.14712416431477,43.36101811666725,160.59658740017676,166.95389569204744,133.9923187758493,125.07126601737832,195.97825860174189,206.2444656309852
0.333667000333667,33.5575501901906,43.306075989824976,161.0439800649357,166.6145879298541,133.8920089520089,124.85259699223626,195.783409400308,206.19083997041068
0.3670337003670337,33.998270421963305,43.221526487154414,161.51181753032117,166.18789571668052,133.78095155829072,124.66971656811876,195.6167735778856,206.11060363140808
0.4004004004004004,34.46618257851625,43.10253891169682,162.00160837088572,165.6772135535154,133.65996511113966,124.52435316205668,195.4768265984095,206.00702142171303
0.4337671004337671,34.958184378732795,42.944282566493456,162.5148611611819,165.08593594134743,133.52986812700053,124.4182351910809,195.3620439258148,205.8833581490613
0.4671338004671338,35.471173541496285,42.74192675458559,163.0530844757622,164.41745738116532,133.3914791223182,124.35309107222228,195.2709010240361,205.74287862118848
0.5005005005005005,36.002047785690074,42.49064077901447,163.61778688917914,163.6751723739578,133.24561661353752,124.33064922251168,195.20187335700848,205.58884764583027
0.5338672005338673,36.54770483019752,42.18559394282136,164.2104769759853,162.8624754207135,133.09309911710335,124.35263805897996,195.1534363886668,205.4245300307224
0.5672339005672339,37.10504239390224,41.82195554904792,164.83266331073443,161.98276102242264,132.93474514946166,124.420785998659,195.12406558294745,205.25319058360208
0.6006006006006006,37.63214019612459,41.18707749345848,165.5380328065413,160.87413730579567,132.75309411546615,124.57883850745118,195.15599794497533,205.10092668389825
0.6339673006339673,38.14263789281061,40.53489298656493,166.17295863775033,159.88534824080813,132.67084565082124,124.77321060089058,195.08652097014337,204.94525108968008
0.6673340006673341,38.66820087455876,39.87646000574564,166.80646676467077,158.93194809709092,132.58212076953058,125.0668980979971,195.0033586224405,204.7814733613712
0.7007007007007008,39.39480320663805,39.1508649211531,167.53847474554271,158.0405952646658,132.4583925670307,125.48098010402929,194.9186372566228,204.6053530447728
0.7340674007340674,40.184703123817314,38.268841605354815,168.38496668047804,156.9481050463066,132.25239630043615,125.92416226756389,194.9150618269793,204.4558680777796
0.7674341007674341,40.9707863651444,37.27853426656954,169.1196200998665,155.659134489738,132.08802382150205,126.41511306033722,194.9296484833684,204.3237937580787
0.8008008008008008,41.711819332155486,36.20889920325819,169.97504432794366,154.2820304870345,131.94272308102146,126.92780410838604,194.96340837231915,204.2272718160744
0.8341675008341676,42.41496314646788,35.110593898825414,170.85920070532123,153.14588118336326,131.82177573150665,127.44040024115856,194.9912406476253,204.15490419052452
0.8675342008675342,43.0300974765944,33.98309953598584,171.928951836866,151.95463818758773,131.66325012213397,127.96887265212374,195.07976347970148,204.09063901950915
0.9009009009009008,43.58156341672874,32.81277099847672,173.1294806978894,151.16792887621497,131.42316272454303,128.51975260894864,195.27749901670737,204.05826270782788
0.9342676009342676,44.01476036803108,31.621904876053108,174.35944311916236,150.11700962331886,131.1183192256427,129.07401326304023,195.57441931690383,204.06463637183177
0.9676343009676344,44.6243306025769,30.48127774625956,176.7361053688358,149.28641903454707,130.76614630095543,129.62719412321442,195.9514870659744,204.1166124885993
1.001001001001001,45.04110792205673,29.26204615978914,178.88698066945875,147.8662199108578,130.32777806168085,130.1757497799432,196.40990945723087,204.16967957263552
1.0343677010343677,45.2295489687337,28.566376521971662,180.75415299744387,146.51356404168232,129.80934132326823,130.6967454891605,196.9730483629245,204.2458881939119
1.0677344010677343,45.1899875098635,27.573496540764484,182.2941590701237,144.70728201090716,129.2377675135993,131.2125531618746,197.62132237177315,204.3075222364296
1.1011011011011012,44.93799696869514,26.517083730335425,183.48476008248912,142.46269110071768,128.58505339039525,131.72738572352645,198.3336859342473,204.35389856663025
1.1344678011344678,44.48741873452798,25.342200431299226,184.3123978240208,139.8971871398212,127.86799395677023,132.22192626311244,199.1159989743764,204.374846683319
1.1678345011678346,43.84482413061868,24.17363040079044,184.74019840502217,136.7848928146,127.10329570207249,132.68824089535138,199.9484549459368,204.3907649465133
1.2012012012012012,43.0098647656255,22.86124496556809,184.8487716482684,133.086370076476,126.31457641077796,133.11711876198524,200.7928648335972,204.3892122804755
1.234567901234568,41.98779386138921,21.465792779851824,184.5536412465506,129.0973791104021,125.53692518085758,133.5290971317065,201.62905025581645,204.3695328766165
1.267934601267935,40.743483904014376,19.92401183077896,183.95366687307907,124.96621209205156,124.80601050342791,133.89141674835216,202.4238884464672,204.3361561045882
1.3013013013013013,39.27856855039316,18.11341959274071,182.9521846428376,119.8339488814895,124.157789053362,134.2182811968531,203.19589250699096,204.3125486408318
1.334668001334668,37.71219296748323,16.417540372575992,181.85483068059744,114.60172163415092,123.63316714952474,134.52415496283007,203.894928308392,204.2561903875482
1.3680347013680347,35.94207794714621,14.777406248550363,180.40416939652084,108.71723851752884,123.18211794374244,134.77184107966505,204.5183499159225,204.16197528729447
1.4014014014014016,34.114830161408335,13.508400459107431,178.72200482561135,103.54840819957568,122.69342582198252,134.96374263849043,205.1688223934784,204.03157714449227
1.4347681014347682,32.197518274970385,12.759439104160323,176.76212609514712,100.4492737492652,122.23232819175182,135.07732577487346,205.7716358872121,203.8707206765021
1.4681348014681348,30.23995066654277,12.191748152147984,174.66781895461244,96.9783366950686,121.81467061028508,135.17514141937,206.3077165180273,203.68613737516208
1.5015015015015016,28.288927690890144,11.66490771571772,171.42557642895252,93.533061291112,121.49292235647457,135.24790373663825,206.69497922558705,203.4801052186524
1.5348682015348682,26.343099900304885,11.55228308384812,169.32579167098635,88.97873580474281,121.29106634756504,135.36142766217756,207.06105572991507,203.2793335575193
1.5682349015682349,24.28003255181063,11.588396475989391,167.08000697672855,85.46818317751259,121.14057337472248,135.48100331335218,207.40794677353367,203.05388052975204
1.6016016016016017,22.174453788067613,11.731011304720678,164.70015197788342,82.52438394096491,120.94733550313777,135.60543215723493,207.7109579977415,202.82662201413493
1.6349683016349683,19.793268807644072,12.261999826122144,161.8636693954341,80.17582529961625,120.76509127267416,135.73035130793468,207.91272702571945,202.57710926207332
1.6683350016683351,17.554045383588463,13.021411134011547,159.2413950154137,77.93729688988205,120.59845396182952,135.86363907284544,208.11762885942224,202.32153900047973
1.7017017017017018,15.7977140866919,13.87094374358892,157.44948213667223,75.65746300412,120.46367476177322,136.00232211679923,208.3058612394502,202.0526930393292
1.7350684017350684,14.34321116167315,14.98388126428051,155.95185321910537,73.92219741582659,120.36111108386372,136.14843148373282,208.51388206715947,201.7801460779916
1.7684351017684352,13.365438387725026,15.82022661177652,155.0458752486505,71.53924424559183,120.31601037004609,136.3010299759395,208.7479846143545,201.5185121300192
1.8018018018018016,12.73599168213865,16.86028565215885,154.52361685845997,69.3985342446858,120.25415371476268,136.52196492512357,209.0051629731231,201.2457258346305
1.8351685018351689,12.381527745353,17.714421612360393,154.28202939463887,70.828069984073,120.19998974430972,136.79496045728283,209.30777625162565,200.97370362314567
1.8685352018685355,12.163715900563323,18.78901768019251,154.31938105985714,72.45429941847432,120.15846791657202,137.05999694254547,209.68501699375145,200.7308099003596
1.901901901901902,12.09061062683586,20.11301054609112,154.5339670476928,71.97104077869886,120.21049668563552,137.2694279116186,210.0258887205792,200.54930881852303
1.9352686019352687,12.1493424880408,21.533759984702783,155.20650419351688,73.18365228806728,120.29910755835716,137.48322344703965,210.32121820391447,200.36402731550592
1.968635301968636,12.467169764312812,22.99697526665801,155.91772207141994,74.66583400607392,120.41316305257172,137.71907389332532,210.6356345620445,200.170794136026
2.002002002002002,12.718952388817424,24.607608405664003,157.06083342632238,76.03232301879832,120.44502691521674,137.9772291212603,211.0588306790593,200.04353639727893
2.035368702035369,12.962427131033904,26.386607311718173,158.31949795982715,77.70685709433941,120.4427176634308,138.30619606791524,211.53965599482103,199.8626232643529
2.0687354020687354,13.359616389777653,28.338693594333503,159.75759794398454,78.77810243663649,120.41986395427864,138.62498784727543,212.0540586814079,199.74825392169927
2.1021021021021022,13.642380829800452,30.471760263444647,162.34835593072933,79.98746881423115,120.37359519109935,138.93755493144258,212.60664682926068,199.73224694878027
2.135468802135469,13.604868173691212,32.75910208099218,163.71213749149896,80.56918468918545,120.27681257458254,139.23222200433167,213.22349024984143,199.7930156296653
2.1688355021688355,13.566701528637218,35.38235184124961,164.8454192824291,79.7361752528408,120.14884430921656,139.4888686629115,213.900464953478,199.98506721076376
2.2022022022022023,13.516652242129526,37.15392648027196,165.72506049798014,77.47726455655669,119.98211449207297,139.68122409276071,214.58982369885047,200.26830898650107
2.235568902235569,13.423398044939052,38.76634698833335,167.6912278553926,77.159801610119,119.7938620306469,139.8597984684563,215.2725915773974,200.5260156050861
2.2689356022689355,12.32218440147212,40.15604425914128,169.2860075411959,75.76402563189231,119.64054428082652,139.96917200352678,215.9442306700099,200.8470439250794
2.3023023023023024,12.658533008546195,41.77872492038208,168.4772942071736,73.8762330241616,119.46370238444432,140.06030421502695,216.6105577049408,201.1875192712347
2.335669002335669,12.833608849934476,43.01308123729904,167.80569351384537,71.6997181524763,119.30683701448852,140.0859785074482,217.28133294179847,201.58105172243955
2.369035702369036,12.608240717269512,44.54834557751584,166.33656079836834,68.73229544844934,119.15225804904294,140.0709032958692,217.94104383600487,202.10979152229223
2.4024024024024024,12.301345780757766,45.45654235194564,164.55903489229192,65.56868602214158,118.99193214816624,139.94286654114086,218.60888884326323,202.7777929371857
2.4357691024357693,12.253158041560935,45.7312094838585,163.48538104299155,62.50475031253896,118.7514490517292,139.69826955553822,219.37018873839804,203.5947457607771
2.469135802469136,12.328182126292996,46.027901746438936,162.5179854103909,60.27075690126392,118.4711897826996,139.33276737773673,220.1149467127196,204.4874626818458
2.5025025025025025,12.262068713953983,47.09341100007502,164.64992188998994,57.44774820779216,118.13114045650848,138.89041993799205,220.87759561228947,205.47048650473943
2.5358692025358693,12.219293391801688,48.21679898665364,165.36117201693324,55.99954433254566,117.82312366296776,138.3773578617825,221.53006431281537,206.50094980553416
2.569235902569236,12.234741634682171,48.35802930800072,161.9705275366278,54.58081911819716,117.40014784018646,137.79116856897485,222.26300818435945,207.5636077869088
2.6026026026026026,12.32311899043833,47.9935169691279,158.53581518732358,51.475785842160974,117.02305856624072,137.13599366946193,222.8767717358232,208.62402469881505
2.6359693026359694,12.447585370429438,47.33452304230521,155.13177592727715,49.66681933856248,116.72419707570177,136.39853853113118,223.34736304840644,209.6666364307796
2.669336002669336,12.523982662815037,46.64319935208987,153.08767441343693,48.29750946090181,116.4670240184046,135.62198635627243,223.7133334315096,210.68352615153492
2.702702702702702,11.509616383204865,45.58760257599299,154.3906326716195,48.02495643268776,116.12721986479814,134.82620890533138,224.065488119952,211.6668791782009
2.736069402736069,10.87532375378422,44.40916175664044,155.40443727031607,47.91919981214481,115.91910324291096,134.0614607397443,224.22839146045223,212.5873877107657
2.7694361027694363,10.727194860231696,42.97505407973663,150.3135040529648,47.33760598627573,115.82835970113976,133.35793405965438,224.1339668052196,213.41484414417383
2.802802802802803,11.402129240012576,41.08313017631474,146.48741217259152,47.16269775030003,115.85761921561556,132.7221787472766,223.9220551577353,214.15630453516675
2.836169502836169,12.788190113671238,38.36053867648663,143.60110248611832,47.1424607475774,115.88672423321124,132.1555154202057,223.61516925528056,214.7959522361785
2.8695362028695364,14.427562466102456,35.43693681280831,141.19881497509138,48.23901012316556,116.04470059265807,131.6282579372328,223.1857832954866,215.3405721072644
2.902902902902903,16.343190741251046,32.06802370274556,139.3068075493466,49.242059194801165,116.19059256688988,131.11650585309715,222.83494764579828,215.89311272819023
2.9362696029362696,18.360665135816028,29.24854688761163,137.82187145764124,52.68474259835211,116.49133972015169,130.64532503415825,222.38383756152447,216.3294448848412
2.9696363029696364,20.64114442916893,26.46327348024176,137.0944907222098,57.27094165219026,116.87984805956005,130.19237389976982,221.8085855068892,216.62421096742085
3.003003003003004,23.11967812609421,24.13734181163746,136.84153360722274,59.67647595370584,117.44585681232104,129.82652563767354,221.0313575466832,216.7477502001053
3.0363697030363697,26.15188132088985,21.315617887408933,136.85391596542777,61.86885667203631,118.16319247068098,129.4891088378713,219.93440529651875,216.73063833738897
3.0697364030697365,28.89669248108126,18.90203952836297,137.09945049349147,67.4785494424243,119.16271822723104,129.35940129852895,218.61398991645976,216.4834680125903
3.103103103103104,31.796237923107064,16.798768476879818,137.6581652232739,72.59398413753198,120.28757850000996,129.35985612788434,217.2088842987456,216.17094853008908
3.1364698031364697,33.958707269381364,15.282702930792674,138.5911848141272,78.28432009565105,121.3597199607259,129.36141983441703,215.95105776550727,215.77277453900905
3.169836503169837,35.877073957389136,14.264474903042396,140.20254238761785,85.17535138095452,122.60733408935928,129.47493931265757,214.74857409549327,215.24645819143987
3.2032032032032034,37.38735205959444,13.827720087798122,142.28288939202966,93.62993826050224,123.9138444896982,129.6450028192187,213.54922839833864,214.726107107504
3.2365699032365702,38.19383192395485,14.322289507266731,145.1170142032647,103.28134114278318,125.08624851424597,130.02734558211208,212.627452315735,214.12146527036413
3.2699366032699366,38.63701433719824,15.11398280707722,147.25446156706647,112.14820396869004,126.32236669225271,130.4256150095931,211.66014110670744,213.40876390625644
3.3033033033033035,38.917329749974655,16.58940942327197,149.50815325561277,114.79461273608628,127.59340068948552,130.82886008494344,210.56232341337656,212.6700256006564
3.3366700033366703,38.79170050161548,17.937954371083777,151.4462918285931,118.97799193657082,128.90318550258635,131.21866714895512,209.40063198448587,211.83918321429056
3.3700367033700367,38.3201160237708,19.63984816843283,153.25283898907162,124.2372477973383,130.16814370050886,131.55789362738602,208.32924957315697,210.91058952379143
3.4034034034034035,37.36568361360477,21.60732035535572,153.14899337335564,127.57750393158688,131.44190736683143,131.84503788840033,207.2225856798564,209.9999147316725
3.4367701034367704,37.02888093772438,24.458813256611982,149.91793330512098,134.66174827459952,132.75981411554272,131.87935932312556,206.094596468189,209.10874492939584
3.4701368034701368,35.43949299177386,26.177147727923373,149.725196673221,141.1043791902908,133.9181938971318,132.20248183450684,205.01429629137195,208.3952432652884
3.503503503503504,33.457059142750566,27.90102724119524,150.65435121273163,144.18734655204145,134.9720246851153,132.6304491300205,204.1340162463282,207.86370172600772
3.5368702035368704,31.90146746682223,28.60896732379944,152.06169581973947,149.57592259845393,135.9491168677134,133.17995281521186,203.4776808720317,207.41572847138008
3.5702369035702373,30.193906790008608,29.561175091138363,153.33043988064048,152.7705035111729,136.91864671175014,133.79190282692795,202.90834051280572,207.02929619328447
3.603603603603604,27.957447721832008,31.011338875415635,153.69518049017188,154.10801062994048,137.95464983941508,134.4168914838732,202.3424700962057,206.62790697219745
3.6369703036369705,25.34446213212089,32.59769827757652,154.42181385971764,155.4569012086255,138.97949714163278,134.95788628870247,201.8511514330215,206.2546275414416
3.670337003670337,22.70780987509262,33.076963040303205,150.401862352888,156.05773921435744,140.0082036198093,135.5447513099602,201.3385045113662,205.84036303202123
3.703703703703704,20.243238671728257,33.16266669909469,145.1015608799315,155.25811937535644,140.9059141634078,136.13991700332164,201.05185318839227,205.380706150902
3.737070403737071,17.627116335027367,33.58190771756023,143.26527709142152,153.98672954785422,141.96002152546538,136.74600115458796,200.6112312907192,204.906797999622
3.770437103770437,14.270352222828292,34.00751970961557,142.7037134577661,151.4522517129687,143.02223867810255,137.3273092907638,200.1400707431889,204.501841903608
3.803803803803804,10.961489534182876,34.057150571589354,142.33613236448429,146.8719371498895,144.07771280791852,137.97264943980235,199.6306857117535,204.0531944973124
3.8371705038371706,7.885347237964544,33.6456512443802,140.89222262777454,141.04440998502298,145.09154306502765,138.59256923689986,199.14889582067752,203.64378601512425
3.8705372038705375,6.266077814995503,32.80036182643611,134.36396221914606,134.74516227696293,146.22635096271054,139.28803253373306,198.53818540841863,203.1613182170288
3.903903903903904,4.973797593284777,31.4845022995659,125.68041080041762,121.0344329169152,147.3464074017563,140.00819410441557,197.9255171100536,202.70644354471844
3.937270603937271,2.167574365038738,30.10108650957461,124.8491723669673,116.96991481617783,148.4366263658106,140.7192895403754,197.42392897054413,202.27950252719185
