Time,Left Shoulder Angle,Right Shoulder Angle,Left Elbow Angle,Right Elbow Angle,Left Hip Angle,Right Hip Angle,Left Knee Angle,Right Knee Angle
0.0,20.088114057307624,31.590301921068985,159.41562161472552,143.93378533854874,145.22770030974766,142.8689595361138,198.28758479339373,198.756631835286
0.0333667000333667,20.18973031776181,30.52612155558408,159.5983307793466,142.41602759040694,145.00986004596703,143.57759506201526,197.82826669407967,198.1608789417304
0.0667334000667334,20.313901858330144,29.614582272471665,159.84163050056398,141.1350911862116,144.81379677715853,144.1948635628048,197.4384820100849,197.6626790675638
0.1001001001001001,20.45934717224021,28.846656558149565,160.14203849403464,140.0786323117276,144.6381517562359,144.7255719617551,197.11398337836832,197.25585860242884
0.1334668001334668,20.62478475271962,28.213316899035604,160.49607247541553,139.2343071527197,144.48156623611283,145.17452718213858,196.8505234358889,196.934243935968
0.1668335001668335,20.808933092995968,27.705535781547603,160.90025016036367,138.5897718949528,144.3426814697031,145.54653614722798,196.6438548196056,196.69166145782384
0.2002002002002002,21.01051068629686,27.3142856921034,161.35108926453603,138.13268272419168,144.22013870992038,145.84640578029587,196.4897301664774,196.5219375576389
0.2335669002335669,21.2282360258499,27.03053911712079,161.8451075035896,137.85069582620122,144.11257920967833,146.0789430046148,196.38390211346325,196.41889862505587
0.2669336002669336,21.460827604882684,26.845268543017625,162.37882259318138,137.7314673867462,144.01864422189075,146.24895474345735,196.32212329752207,196.3763710497172
0.3003003003003003,21.707003916622813,26.749446456211714,162.94875224896833,137.76265359159152,143.9369749994713,146.36124792009616,196.30014635561284,196.38818122126543
0.333667000333667,21.965483454297893,26.73404534312089,163.55141418660747,137.93191062650197,143.8662127953337,146.4206294578038,196.31372392469453,196.4481555293432
0.3670337003670337,22.23498471113552,26.79003769016297,164.18332612175575,138.22689467724234,143.80499886239164,146.43190627985285,196.35860864172608,196.55012036359304
0.4004004004004004,22.514226180363305,26.90839598375578,164.8410057700702,138.63526192957755,143.75197445355892,146.39988530951592,196.4305531436665,196.6879021136575
0.4337671004337671,22.80192635520883,27.08009271031716,165.5209708472078,139.14466856927243,143.70578082174916,146.3293734700656,196.5253100674746,196.8553271691792
0.4671338004671338,23.096803728899715,27.296100356264898,166.21973906882548,139.74277078209172,143.6650592198761,146.22517768477445,196.63863205010944,197.04622191980053
0.5005005005005005,23.39757679466356,27.54739140801685,166.9338281505803,140.41722475380035,143.6284509008535,146.0921048769151,196.76627172853003,197.25441275516425
0.5338672005338673,23.70296404572795,27.824938351990827,167.65975580812918,141.1556866701631,143.59459711759496,145.93496196976014,196.90398173969524,197.4737260649128
0.5672339005672339,24.01168397532067,28.11971367460492,168.39403975713049,141.94581271694608,143.56213912301556,145.7585558865833,197.0475147205657,197.6979882386904
0.6006006006006006,24.33727855759394,28.22612736236745,169.1646360788473,142.36432161162233,143.53730099162598,145.55719659406498,197.1031371650775,197.8542776265053
0.6339673006339673,24.629591609841768,28.43764753407623,169.86377276432975,143.15861442963285,143.63355189908935,145.38709612391415,196.9183787279698,197.9971898448578
0.6673340006673341,24.90520711300186,28.70169904841281,170.5163875977016,144.08419199698278,143.71448231325442,145.22167943418816,196.75618645927844,198.1186742073088
0.7007007007007008,25.14314829042068,29.017298468129525,171.08645777417058,145.09157536084683,143.6209081258675,145.00672729985152,196.9601374481388,198.22797136855172
0.7340674007340674,25.42413437312926,29.256726268036463,171.75876248268992,146.02086485963224,143.66621138806477,144.80626921212405,196.81032639504448,198.31914964860928
0.7674341007674341,25.736101743770632,29.58954351649248,172.43121448173795,147.1747955402742,143.89024612065572,144.58689525382243,196.1997407369704,198.403654921225
0.8008008008008008,26.066452494990035,29.77541672810051,173.09229184315927,148.16209262983708,143.9628514334957,144.3869275214455,195.77224311065507,198.46032569297773
0.8341675008341676,26.390117287080297,30.039397962051336,173.78721492230292,149.11912711487497,143.9786123988865,144.24337671387707,195.597745564442,198.4740409339968
0.8675342008675342,26.70703594501212,30.15262271424274,174.5020263031282,149.66193405355048,143.87000978056264,144.1373333280425,195.7631122359307,198.4611730993928
0.9009009009009008,27.03576855637933,30.13480188887633,175.1856929690131,149.9614303872632,143.60821370658206,144.0933699576503,196.16600520885927,198.40448248553912
0.9342676009342676,27.34401122118976,29.91592323307996,175.8418324945213,150.04445430235404,143.22254154288763,144.09987203832165,196.74761288036595,198.3053839987279
0.9676343009676344,27.63805960100284,29.61462675678224,176.47189326488345,150.04052668981544,142.69267859138026,144.13899260226907,197.5577855100662,198.15556736348864
1.001001001001001,27.881382806942103,29.218594707562826,177.0493194537992,149.98343994158796,142.08586001160126,144.21591271024644,198.4926334478469,197.96765362141988
1.0343677010343677,28.04273795566259,28.811747886911,177.4771492717891,149.95128671987317,141.3108094530023,144.31371604080152,199.7584641698154,197.76369052830063
1.0677344010677343,28.11885510958417,28.2992433936161,177.78751502976516,149.81981971883565,140.42464228319088,144.46388255234282,201.23175999983448,197.53837595352445
1.1011011011011012,28.13281400351926,27.805963311764017,177.99587301915352,149.7175089772302,139.3659203479552,144.63986178994594,202.9603554142436,197.32629606607105
1.1344678011344678,28.129653824144626,27.283559193052785,178.26462723487302,149.68987520882243,138.27342957604353,144.86392008342915,204.7268750889348,197.104919094092
1.1678345011678346,28.138302768167566,26.70901314035317,178.58403722721562,149.56451554984153,137.21103810366472,145.10525744031025,206.3353579644887,196.89167543066748
1.2012012012012012,28.149641186610268,26.069322395040977,178.94776525742333,149.35877532981607,136.20312456620576,145.39169126469872,207.7556620036573,196.6782880842396
1.234567901234568,28.149093702027155,25.46169790837916,179.36607513729632,149.188827547033,135.31817914361216,145.72079989512977,209.0693563178185,196.4519484672797
1.267934601267935,28.14820065298008,24.86907048953633,179.87554216893452,149.08558089743272,134.3675531343045,146.15157993953434,210.53339151843343,196.19513790083124
1.3013013013013013,28.109095291234336,24.33999277894038,180.40808438726265,149.10511333465266,133.66845886616974,146.6857358570173,211.57589093355324,195.88160209958167
1.334668001334668,28.089889603272923,23.871162032136954,181.06502578848264,149.2168902417655,133.06263594627185,147.24343029248945,212.47660818726013,195.5464746005747
1.3680347013680347,28.10095617790005,23.512824254361867,181.75522810572303,149.4171061498337,132.45909482162145,147.8396679005911,213.35010861492475,195.1446221046468
1.4014014014014016,28.08152607690253,23.01181958299289,182.4085217917365,149.61037551698212,131.7710041269798,148.41223428320092,214.1864212469676,194.75400070032
1.4347681014347682,28.07468827257281,22.45831150812728,183.0199319999222,149.65654211305633,131.00906449856856,148.88306943495115,214.9919736559017,194.49835722659208
1.4681348014681348,28.08614891486971,21.86342111507648,183.6939972998817,149.9964210835457,130.2115569922164,149.3197926174284,215.7037262185129,194.31719190269905
1.5015015015015016,28.092018195517152,21.438361500585952,184.1474979394434,150.67781438346543,129.418102928775,149.71490944273992,216.2512962642056,194.16369181485152
1.5348682015348682,28.093888357435723,20.90177552591821,184.86177791023653,151.14727726062327,128.7260397560213,150.03008154918675,216.58283485965552,194.0311947864648
1.5682349015682349,28.017856803452023,20.218337841875385,185.40072172451949,151.26358563686753,128.21771137698195,150.2555964417365,216.62540999497605,193.9950908760873
1.6016016016016017,27.86194349173435,19.46794151940298,185.92796424952925,151.30706715879012,127.82980591717906,150.41457420092098,216.3725981216661,193.9947140334617
1.6349683016349683,27.74258284075505,18.79811456182049,186.4377397530188,151.4596395857417,127.41286685716057,150.4989603417088,215.9985837775364,194.029607091705
1.6683350016683351,27.560956152833025,18.02991593361246,186.9663820599553,151.5964928354437,127.0177825921288,150.58109965276049,215.4757615639983,193.9815750674724
1.7017017017017018,27.210537859291627,17.215759465961096,187.3240756194216,151.60130057805353,126.79823511556503,150.64342755900867,214.59893007248533,193.928968652163
1.7350684017350684,26.743322188934584,16.375548203679212,187.60170874457148,151.67414626230232,126.6220825086666,150.6658145703213,213.60862424560003,193.876756299803
1.7684351017684352,26.236116866571983,15.552883156686496,187.80812028578,151.68480144045728,126.45272114942824,150.65007092279322,212.5621710372669,193.8142278610856
1.8018018018018016,25.661281489668124,14.692552136132822,187.9776040328489,151.6184419527378,126.14577121857069,150.5913272107111,211.80656254644893,193.74737511493285
1.8351685018351689,25.05878969901657,13.76734953060331,188.11426515937023,151.55046444567256,125.7188596236486,150.45968455751148,211.22131060750692,193.70326301762327
1.8685352018685355,24.370990082255577,12.838620650423367,188.1920103187164,151.52695446331998,125.48923928474008,150.32315276084898,210.24693325225263,193.6664944803376
1.901901901901902,23.48115303594315,11.896100439505156,188.05687800791483,151.58243675811275,125.1048813975393,150.1276151527055,209.6911224411869,193.6553994282959
1.9352686019352687,22.41830544361869,10.740438377528127,187.8522992498982,151.3168232354133,124.44801447359568,149.95984884264362,209.87163895124297,193.6369138761208
1.968635301968636,21.15318725460599,9.583012449187798,187.50005093929883,150.8287521148834,123.6516247184313,149.7217801192222,210.40446075342567,193.68189919903952
2.002002002002002,19.808321768406888,8.34033994997523,187.00537273215696,150.27313805349175,122.81431508611604,149.4982177013938,211.1302934673295,193.72871644028663
2.035368702035369,18.419217763789835,7.163850121093403,186.2384792426979,150.00336241363834,122.0115248651623,149.3146522302596,211.98012120771045,193.7736028002045
2.0687354020687354,16.93778266841161,6.087487089430516,185.46812467068617,150.20516279336937,121.23875682407076,149.24059469556465,212.91315228414533,193.6930850871326
2.1021021021021022,15.36998489764292,5.23571900292833,184.5681093344012,150.18717915257386,120.54247190241374,149.2542543279267,213.97920449390853,193.5641096349123
2.135468802135469,13.824155615969222,4.586487289277376,183.75615407460185,150.26818629790392,119.97015608337888,149.34549361743723,215.1429281495373,193.42813396721965
2.1688355021688355,12.271324053543877,4.168141181533249,182.65268562751905,150.10860571502732,119.47702384144436,149.51821401846135,216.4291401460836,193.2840525334884
2.2022022022022023,10.889129229556662,3.8730855471009393,181.81378392866205,150.04164084797793,119.11924156454889,149.76721744848612,217.62537198433927,193.12532300293387
2.235568902235569,9.676434945746388,3.786303347064413,181.13538479549624,149.92925223912042,118.9108273565552,150.0664866041269,218.7665256767066,192.96912017886
2.2689356022689355,8.677864374138546,3.717047328044831,180.73479698104688,150.261593447279,118.98434562478872,150.44936809748032,219.6656767808257,192.78186140505267
2.3023023023023024,7.764087383217569,3.717047328044831,180.39177787997264,152.20752887062727,119.1205391621153,150.8512360466051,220.51377432710004,192.58306706687668
2.335669002335669,7.017893371339907,3.717047328044831,180.3144351920864,153.9457951238459,119.43519814602664,151.31557586793525,221.3250941565861,192.3618269594461
2.369035702369036,6.453093333464803,3.717047328044831,180.25631318796653,154.64128542669036,119.9505987909523,151.8403802129598,222.13400939623,192.09885902213307
2.4024024024024024,6.137095309469092,3.717047328044831,180.4444144976346,155.5032747548108,120.57350543250756,152.44857443686533,222.739477467707,191.74991127626885
2.4357691024357693,5.969706059806005,3.717047328044831,183.2874870684284,160.7970486490699,121.31512805704244,153.0662935345025,223.20493058055672,191.37390117583345
2.469135802469136,5.969706059806005,3.717047328044831,185.66159719643807,164.21044113046847,121.8918242212657,153.58391389501247,223.75188584425663,191.0892533718537
2.5025025025025025,5.969706059806005,3.717047328044831,187.59300543679524,166.24641447363973,122.45835948023677,154.08688196503192,224.1638002917898,190.8158235494832
2.5358692025358693,5.969706059806005,3.717047328044831,189.04915217548492,167.43728621300332,122.99583176604828,154.5468555266657,224.4924024603622,190.61991651930032
2.569235902569236,5.969706059806005,3.717047328044831,190.20645341347625,168.36041407155204,123.4933238584096,154.9887675753205,224.8108787683209,190.4589994137121
2.6026026026026026,5.969706059806005,3.717047328044831,190.91581640618983,168.6259104660206,124.00855918193756,155.48548297839898,225.04569416392093,190.2038417655869
2.6359693026359694,5.969706059806005,3.717047328044831,190.9869762524805,168.01320436751897,124.61005306467408,156.02031686178086,225.16041075895524,189.90943499212372
2.669336002669336,5.969706059806005,3.717047328044831,190.81489255679296,166.3746508362865,125.32026156628172,156.54610559493068,225.12968181678656,189.6271109828323
2.702702702702702,5.969706059806005,3.717047328044831,189.9993118504724,166.98578132109736,126.02608152298086,157.01913095647882,225.11865282574325,189.39347785434265
2.736069402736069,5.969706059806005,3.717047328044831,189.02897413222985,165.61487261379145,126.65597198323069,157.47548169305637,225.0285722689229,189.09417799287783
2.7694361027694363,5.969706059806005,3.717047328044831,187.82126265730585,163.12357333000497,127.2389401366878,157.90396501142223,224.860179062703,188.7743248894484
2.802802802802803,5.969706059806005,3.717047328044831,186.40869597569304,159.6610397876167,127.8025258488093,158.3576879881845,224.6507303735267,188.3514193536912
2.836169502836169,5.969706059806005,3.717047328044831,184.78898635780143,155.56825300000008,128.28328962475155,158.76923882951715,224.5062649897987,187.9632510102996
2.8695362028695364,5.969706059806005,3.717047328044831,182.9197082737348,150.95851379475204,128.50062249738346,159.14284021095386,224.7090984384245,187.5522640363426
2.902902902902903,5.969706059806005,3.717047328044831,180.67053826038463,145.5712506244787,128.5690197579694,159.46830023416368,225.00943437549736,187.1375112006176
2.9362696029362696,5.969706059806005,3.717047328044831,178.1956832284869,139.77062706883504,128.50080196594024,159.7575944077186,225.46535274848972,186.7245742838588
2.9696363029696364,5.969706059806005,3.717047328044831,175.59652246162156,133.45568578243743,128.3482233491356,160.02152463239582,225.9260458378081,186.28291294958296
3.003003003003004,5.969706059806005,3.717047328044831,172.76151667865216,126.88748771078512,128.1904254042277,160.2511843252465,226.3696996027892,185.85724359897512
3.0363697030363697,5.969706059806005,3.717047328044831,169.69882389199614,120.18268179182456,127.92958241693466,160.3929057461245,226.9851605828705,185.5379376518648
3.0697364030697365,5.969706059806005,3.717047328044831,166.5972355998665,113.34208530783984,127.63893753350006,160.49780256174276,227.63597748341863,185.2758307578013
3.103103103103104,5.969706059806005,3.717047328044831,163.43455955946462,106.30314052326524,127.3470843311284,160.56663073570436,228.26725265173908,185.0472561401138
3.1364698031364697,5.969706059806005,3.717047328044831,160.3286906646288,99.41757195665464,127.13823896633,160.71305768966624,228.849171442156,184.77052155877408
3.169836503169837,5.969706059806005,3.717047328044831,157.10400822129475,92.60613153135492,126.91994530161116,160.87917212627914,229.479541880924,184.50139357302453
3.2032032032032034,5.969706059806005,3.717047328044831,154.12853070371102,86.01818331226892,126.66064568517464,161.08454375548374,230.13057126171503,184.19926489690025
3.2365699032365702,5.969706059806005,3.717047328044831,151.2423690910444,79.4503732774882,126.40984300826568,161.18548735603025,230.83648492137127,184.0322877418468
3.2699366032699366,5.969706059806005,3.717047328044831,148.67368851173492,73.5298177055914,126.10678034855964,161.2193078111144,231.6242839916975,183.93369201044024
3.3033033033033035,5.969706059806005,3.717047328044831,146.28200962536383,68.18850854593494,125.7693021678911,161.26405880863663,232.43441911580464,183.8060743631345
3.3366700033366703,5.969706059806005,3.717047328044831,144.61439030408886,63.92715996261981,125.36996007122872,161.2727010906505,233.38394406123132,183.73052990056323
3.3700367033700367,5.969706059806005,3.717047328044831,143.71069124770844,60.65191201730023,124.95829711309058,161.30785651565094,234.4700276577382,183.64244777636
3.4034034034034035,6.0891230656998925,3.717047328044831,143.39850823608813,58.76670047390717,124.51492398569326,161.33342446549528,235.62257726580043,183.6115768233186
3.4367701034367704,6.396783756502925,3.717047328044831,143.6166451728457,57.76486849695525,123.99745890661572,161.311813242036,236.82347130569613,183.6626154024812
3.4701368034701368,6.9672965570903616,3.717047328044831,144.49225216001966,55.95981646727588,123.58730378985508,161.30189237828822,237.9437918216558,183.77405458622985
3.503503503503504,7.750165055128972,3.717047328044831,145.67477012066638,55.11762836046628,123.1614740663298,161.33415759224047,239.0725551989066,183.87010626394195
3.5368702035368704,8.746027111550594,3.717047328044831,147.72504943960806,56.22672677452172,122.74418273716142,161.4005895024519,240.07520390360995,184.00293775748025
3.5702369035702373,9.757600417243458,3.717047328044831,150.67502311384888,58.43980612072959,122.33923147882145,161.53060205048297,240.9088498279039,184.0415454465229
3.603603603603604,10.927800425198852,3.717047328044831,151.21075480878295,56.37071958990944,121.99450134420556,161.68187654110503,241.54411414699027,184.09642352717884
3.6369703036369705,12.104280525270616,3.717047328044831,151.61155257342622,55.96074422643867,121.79589745637271,161.87405112867492,242.1284930520181,184.1554651541419
3.670337003670337,13.577013078942493,3.717047328044831,151.88522959010683,54.98557162249328,121.5838499311218,162.09699283073402,242.8604536711143,184.2816148576221
3.703703703703704,15.210672115361106,3.717047328044831,149.02955748938072,54.16348817942881,121.33351077190648,162.442930552571,243.741542513748,184.3230383267289
3.737070403737071,16.970598489280782,3.717047328044831,146.73637613100357,53.35822685133349,121.2059185639858,162.79210861719653,244.4863086408623,184.4401460137597
3.770437103770437,18.79463998014046,3.717047328044831,145.46409135580095,51.93526854992681,120.8080193654516,163.09917142271334,245.42050870758484,184.66149418735185
3.803803803803804,20.778037654601324,3.887529040464639,145.0352483655411,51.55433148898862,120.92102471058904,163.33607001887924,245.96776443716016,184.97717116253656
3.8371705038371706,22.73222856906335,3.887529040464639,145.99432969519418,50.92759210436052,121.23447132530872,163.53090741961196,246.3333284121917,185.3611929034344
3.8705372038705375,24.72467037610405,3.887529040464639,147.34596980854155,47.34452409860098,121.74647032268432,163.6966059949254,246.22956886407223,185.82707459626369
3.903903903903904,26.7422876278392,3.887529040464639,148.68014382963813,46.08245179531443,122.07277281318092,163.9354253924182,246.1637892814563,186.14183846767088
3.937270603937271,28.715030194994146,3.887529040464639,150.12136134229502,45.47422749205291,122.40584040999198,164.12346850509695,245.9031095661147,186.4103504282607
