Time,Left Shoulder Angle,Right Shoulder Angle,Left Elbow Angle,Right Elbow Angle,Left Hip Angle,Right Hip Angle,Left Knee Angle,Right Knee Angle
0.0,28.766454989586027,27.82637811627821,149.92875913045177,141.42104912846742,135.19537584769492,134.79196969808234,203.51461628403263,205.60346623487715
0.0333667000333667,29.49370971057286,29.27751398957311,154.1271811611039,150.46494337804307,134.77751033128172,134.48487714773245,203.4792935890485,206.1132003067699
0.0667334000667334,29.209956783000106,30.08991102499101,157.635719369403,158.0260734859445,134.39614179466886,134.3057709314128,203.4884510103869,206.5200377528229
0.1001001001001001,28.06339484856792,30.324209070049427,160.49464177717724,164.1751812580275,134.04766347469743,134.24488883484085,203.5412077572176,206.83094225236724
0.1334668001334668,26.20222254897649,30.041047972265872,162.7442164062547,168.98300850014795,133.72846860820846,134.292468643734,203.63668303871,207.05287748473413
0.1668335001668335,23.774638525925976,29.301067579157856,164.42471127846358,172.5202970181617,133.434950432043,134.43874814380965,203.7739960640339,207.1928071292548
0.2002002002002002,20.92884142111655,28.16490773824289,165.576394415632,174.85778861792457,133.16350218304208,134.67396512078523,203.95226604235887,207.2576948652602
0.2335669002335669,17.81302987624839,26.69320829703849,166.23953383958812,176.06622510529243,132.91051709804677,134.98835736037822,204.17061218285457,207.2545043720817
0.2669336002669336,14.575402533021652,24.94660910306217,166.45439757216008,176.2163482861211,132.6723884138981,135.37216264830596,204.42815369469056,207.1901993290504
0.3003003003003003,11.364158033136524,22.98575000383142,166.261253635176,175.37889996626643,132.44550936743713,135.81561877028588,204.7240097870365,207.07174341549737
0.333667000333667,8.327495018293153,20.87127084686378,165.70037005046404,173.62462195158423,132.22627319550486,136.30896351203543,205.0572996690621,206.90610031075383
0.3670337003670337,5.613612130191722,18.66381147967675,164.81201483985237,171.0242560479304,132.0110731349424,136.84243465927204,205.4271425499369,206.70023369415105
0.4004004004004004,3.3707080105324145,16.42401174978784,163.6364560251691,167.64854406116075,131.79630242259077,137.40626999771308,205.8326576388305,206.46110724502003
0.4337671004337671,1.746981301015378,14.212511504714564,162.2139616282424,163.5682277971311,131.578354295291,137.99070731307603,206.27296414491263,206.195684642692
0.4671338004671338,0.8906306433407813,12.089950591974432,160.5847996709004,158.85404906169734,131.35362198988415,138.58598439107826,206.7471812773529,205.9109295664981
0.5005005005005005,0.8906306433407813,10.11696885908496,158.78923817497127,153.57674966071528,131.1184987432113,139.18233901743722,207.2544282453208,205.6138056957696
0.5338672005338673,0.8906306433407813,8.354206153563656,156.8675451622831,147.8070714000408,130.8693777921134,139.77000897787028,207.79382425798613,205.3112767098375
0.5672339005672339,0.8906306433407813,6.862302322928027,154.8599886546654,141.61575608553127,130.60265237343268,140.33923205809606,208.36448852452008,205.0103062880348
0.6006006006006006,0.8906306433407813,7.018659377239093,153.3040529319086,135.24061940382353,130.22352100915126,140.77457789736704,208.92881131713884,204.8042059431017
0.6339673006339673,0.8906306433407813,7.708031192306779,151.7528272316414,128.32641143189306,129.8394628169545,141.16887428489795,209.45312777337188,204.5923259483088
0.6673340006673341,0.8906306433407813,8.875941668744348,150.14934721922629,121.1785459159184,129.38169915734616,141.5157363629191,210.09349435374665,204.3633748617294
0.7007007007007008,0.8906306433407813,11.05489800621758,150.9353113411748,113.34057744662069,128.41787448471754,142.27469756786033,210.6944043729887,204.107726173025
0.7340674007340674,0.8906306433407813,13.491826312431511,150.45683939269546,105.96778955971726,127.99874958441872,142.72415385090162,211.58332609981787,203.66762335574785
0.7674341007674341,0.8906306433407813,16.20940557311309,148.2727622105662,95.30233531945608,127.61613092684568,143.0706357687442,212.7677875695671,203.1720046288117
0.8008008008008008,0.8906306433407813,20.17547829103536,142.92890179243716,89.80221113947631,126.82928617162544,142.93234399541515,214.3172211306904,202.9781021125492
0.8341675008341676,0.8906306433407813,23.9686783792602,139.9755745459653,84.210683192959,125.96575338932529,142.76654525451443,215.96538389648163,202.9880584764
0.8675342008675342,0.8906306433407813,27.400176869027565,138.70508374507284,78.70920678020002,125.04836950907688,142.1084976275011,217.7173409994673,203.55895236253744
0.9009009009009008,0.8906306433407813,30.511344017152588,139.28606385586448,74.1255919223663,124.17726475422344,141.21891142642727,219.1520268227281,204.54918027626772
0.9342676009342676,0.9498546792088264,32.68115631871707,140.09920948460294,68.96457883875631,123.34726793109692,140.2001254813945,220.350726232554,205.67465841982613
0.9676343009676344,0.9498546792088264,35.40587731813349,140.4049366274103,66.85043597236752,122.84722671091107,139.60012280122262,221.04249369438773,206.5483453868632
1.001001001001001,0.9498546792088264,37.79794692386625,140.68388268965413,66.1887633893013,122.5779544478406,139.0429591064709,221.41454759684515,207.34533020710543
1.0343677010343677,0.9498546792088264,40.05149450964303,142.82385105334797,68.38098793922987,122.68253705739188,138.55032295867525,221.41878670751447,207.91401069958312
1.0677344010677343,0.9498546792088264,42.29181444306415,141.29854438546138,71.44147961728869,122.96813901335705,137.99951364807018,221.4065624019675,208.2976999228062
1.1011011011011012,0.9498546792088264,43.99354386271241,140.50500683976554,74.81108295054914,123.38353452786453,137.724260851933,221.26674063009284,208.5788312106714
1.1344678011344678,0.9498546792088264,46.19105634507994,141.92115366105284,77.43959051120127,124.05986599418092,137.73494008854934,220.74817794242503,208.62777876493527
1.1678345011678346,0.9498546792088264,47.18452411628558,142.78981288957624,78.85286364986337,124.91776504489248,137.92015819340298,219.90857544785223,208.5229256974501
1.2012012012012012,0.9498546792088264,41.40845900171304,142.6202830336997,73.1797320274734,126.03830418016123,138.24978615440742,218.7398765003452,208.2876323447973
1.234567901234568,0.9498546792088264,39.17043043845164,144.08147839755762,75.42581741853708,127.23635396467728,138.54687433559425,217.26836388812163,207.98913034128464
1.267934601267935,0.9498546792088264,32.97617326859449,145.9655310509444,75.53038823778009,128.48881882163454,138.9302196181511,215.5329113188327,207.519494157966
1.3013013013013013,0.9498546792088264,28.172874402446844,146.46978904211028,78.2046777605168,129.96935856187986,139.33886450245114,213.51662925367987,206.92930525045307
1.334668001334668,0.9498546792088264,25.111183322144534,148.2035063639714,82.51322831499763,131.5949307499333,139.777621905216,211.2315743865421,206.14663301965248
1.3680347013680347,0.9498546792088264,23.23655022444345,147.12769747423002,86.30598344877745,133.32824457923874,140.27363806530414,208.7448092991943,205.23778772127383
1.4014014014014016,0.9498546792088264,31.72468827738233,145.95689568740062,90.9881771719044,135.22800121685458,140.89370233429543,206.01371925827405,204.1222350858353
1.4347681014347682,0.9498546792088264,39.52841841250225,144.56230906703763,95.93618907154313,137.32481894389312,141.58202634829604,203.13282201557308,202.85923311512272
1.4681348014681348,2.07285205031965,47.207038078866056,143.26518700331874,101.62396854278056,139.42459599373024,142.38418396050767,200.1472005915872,201.4332634460295
1.5015015015015016,4.407821398372721,53.04131914495784,140.8426040985403,105.04777856970418,141.56761124058036,143.23989771950113,197.1250118120066,199.8539355489252
1.5348682015348682,12.76322201857123,58.75570529460784,137.44256255474673,108.06570904181382,143.74429207676445,144.16236943893807,194.11951767038084,198.164724724174
1.5682349015682349,23.124102434716875,65.960652150409,134.35220648182676,111.08785415132344,145.8744934965532,145.1594239595449,191.1897461097672,196.36963506264416
1.6016016016016017,34.920076455435165,73.07457747500771,131.21951487899798,111.73764485531004,147.86071421098544,146.21857409488996,188.36495618036955,194.4613402867268
1.6349683016349683,56.58195808665687,84.12946488311594,127.44228168156587,113.09783661969595,149.78644526493085,147.45336703372746,185.51057001806265,192.17352112893624
1.6683350016683351,77.89621911547893,94.79357452514724,123.38061069819828,114.08878123904093,151.65714901230655,148.70305251350948,182.804765323305,189.8741076718036
1.7017017017017018,97.24388423767006,104.75981458487138,119.05085572281784,114.67459031803055,153.4614066458973,149.95465397809886,180.2822264630504,187.59300628379745
1.7350684017350684,116.7313558429322,113.7210932460589,114.46937054934844,114.81937546135148,155.18779935848897,151.19519487135955,177.97763780425382,185.3601233333884
1.7684351017684352,132.99151808604975,121.37031869248038,109.65250897171391,114.48724827369018,156.82490834286733,152.4116986371555,175.9256837138707,183.20536518904663
1.8018018018018016,147.24941776021728,127.40039910790637,104.61662478383828,113.64232035973323,158.36131479181827,153.59118871935073,174.16104855885624,181.15863821924268
1.8351685018351689,160.8902006268935,131.5042426761072,99.37807177964524,112.24870332416717,159.78559989812757,154.7206885618092,172.7184167061656,179.2498487924469
1.8685352018685355,172.74598514534875,133.37475758085338,93.95320375305884,110.2705087716785,161.08634485458109,155.7872216083949,171.6324725227541,177.50890327712966
1.901901901901902,182.4261971657997,132.70485200591557,88.35837449800289,107.67184830695382,162.25213085396467,156.7778113029718,170.93790037557693,175.9657080417614
1.9352686019352687,189.55667422191905,129.1874341350643,82.60993780840127,104.41683353467964,163.2715390890641,157.67948108940388,170.66938463158928,174.65016945481244
1.968635301968636,193.34093572701732,122.51541215206984,76.72424747817789,100.4695760595425,164.13315075266533,158.47925441155513,170.86160965774644,173.5921938847532
2.002002002002002,196.1259402823932,112.3816942407028,70.7176573012566,95.79418748622898,164.82554703755406,159.16415471328955,171.5492598210036,172.82168770005413
2.035368702035369,196.51925937868373,98.47918858473396,64.60652107156136,90.35477941942558,165.3373091365162,159.7212054384711,172.767019488316,172.36855726918552
2.0687354020687354,184.8231267039572,80.50080336793373,58.40719258301593,84.11546346381888,165.65701824233756,160.1374300309637,174.54957302663894,172.26270896061786
2.1021021021021022,175.16341582156977,58.13944677407216,52.13602562954435,77.04035122409539,165.77325554780398,160.39985193463144,176.93160480292752,172.53404914282146
2.135468802135469,165.0366319767232,31.088026986920084,45.80937400507037,69.09355430494166,165.6746022457013,160.49549459333824,179.94779918413707,173.21248418426677
2.1688355021688355,154.3179715137227,-0.9605478097516168,39.44359150351798,60.23918431104427,165.34963952881532,160.41138145094808,183.6328405372228,174.32792045342413
