Time,Left Shoulder Angle,Right Shoulder Angle,Left Elbow Angle,Right Elbow Angle,Left Hip Angle,Right Hip Angle,Left Knee Angle,Right Knee Angle
0.0,27.57865996917355,41.23410013353288,162.36218346563408,170.61501514840748,131.6222350746255,127.59657243670908,211.6055924460001,217.25745392101533
0.0333778371161548,24.49424308313218,41.1933511877135,165.19494162289965,170.29737461190717,131.66083436515152,127.38700605531685,212.22367178240515,217.6985298401041
0.0667556742323097,21.789221996770063,41.18291256248411,167.46142751057457,170.09094528966196,131.7431091266768,127.2224012084984,212.73847197526345,218.0876695537537
0.1001335113484646,19.447242806148147,41.19835276643031,169.2042317834532,169.9863291248679,131.86491285680347,127.10140062595642,213.1560115629078,218.42632024088192
0.1335113484646194,17.45195160732736,41.23524030813768,170.46594509632982,169.97412806072097,132.02209905313373,127.0226470373934,213.4823090836709,218.7159290804066
0.1668891855807743,15.786994496368656,41.28914369619182,171.28915810399883,170.04494404041722,132.21052121326971,126.98478317251195,213.7233830758856,218.9579432512456
0.2002670226969292,14.43601756933297,41.35563143917833,171.71646146125457,170.18937900715264,132.4260328348136,126.98645176101466,213.8852520778848,219.1538099323168
0.2336448598130841,13.382666922281242,41.4302720456828,171.79044582289137,170.39803490412328,132.66448741536752,127.0262955326041,213.97393462800105,219.30497630253785
0.2670226969292389,12.610588651274416,41.50863402429082,171.55370184370358,170.6615136745251,132.9217384525336,127.10295721698284,213.99544926456727,219.4128895408268
0.3004005340453938,12.103428852373431,41.58628588358798,171.04882017848556,170.97041726155422,133.19363944391404,127.21507954385346,213.9558145259163,219.4789968261014
0.3337783711615487,11.844833621639228,41.65879613215989,170.3183914820316,171.31534760840657,133.47604388711093,127.36130524291856,213.86104895038088,219.5047453372795
0.3671562082777036,11.81844905513275,41.72173327859214,169.40500640913615,171.6869066582782,133.76480527972652,127.54027704388066,213.71717107629385,219.4915822532789
0.4005340453938584,12.00792124891494,41.77066583147031,168.35125561459347,172.0756963543651,134.05577711936286,127.75063767644242,213.53019944198792,219.4409547530176
0.4339118825100133,12.396896299046729,41.80116229938001,167.19972975319791,172.47231863986335,134.34481290362217,127.99102987030636,213.306152585796,219.3543100154132
0.4672897196261682,12.969020301589076,41.80879119090682,165.99301947974385,172.86737545796888,134.62776613010658,128.26009635517508,213.05104904605068,219.23309521938367
0.5006675567423231,13.707939352602898,41.78912101463635,164.77371544902564,173.25146875187778,134.90049029641824,128.55647986075118,212.77090736108497,219.0787575438468
0.5340453938584779,14.59729954814916,41.73772027915419,163.58440831583758,173.61520046478606,135.1588389001593,128.87882311673718,212.4717460692316,218.8927441677205
0.5674232309746329,15.620746984288887,41.65015749304629,162.46768873497533,173.94917253989115,135.39866543893308,129.22576885283672,212.15958370882493,218.6765022699244
0.6008010680907877,16.79690034591155,41.4253457795376,162.08960242573662,174.06283230335845,135.6301798217802,129.57543014126745,211.85161963126427,218.4310388953675
0.6341789052069425,17.99259682197676,41.1388041837998,162.0855170617002,173.99765940778244,135.8206975205684,129.9604783533302,211.55868380511896,218.173257405365
0.6675567423230975,19.358564508621303,40.74770448788942,162.02629478332753,173.86535384018995,135.97547306452742,130.39354930462113,211.2559160292376,217.87893946220603
0.7009345794392523,20.87874627689316,40.28321003778419,161.99486977491628,173.68502669213424,136.07822882812437,130.85983517191653,210.99501001113364,217.5624140592911
0.7343124165554072,22.553087572365115,39.76104187374875,162.13946120763234,173.43408562438495,136.05150314466263,131.29403494363942,210.84681961577272,217.27313955055732
0.7676902536715621,24.26864128213177,39.1903409567139,162.71437074189978,173.15835632687475,135.9893711271304,131.7465113459121,210.71392454913644,216.98076588935712
0.8010680907877169,25.804250175261554,38.59706832045849,164.08179690114352,172.9125932671304,135.93969204752818,132.26014859464075,210.55674311565323,216.6234730207001
0.8344459279038718,27.11297273770084,38.05843952273247,165.54840876902713,172.77002916703648,135.84850662156725,132.79432968752587,210.42461501314733,216.2105281370975
0.8678237650200267,28.336763731458408,37.53562263672018,167.18455676316563,172.63514114833515,135.7173040299128,133.3316352444967,210.31394262514848,215.7435908804508
0.9012016021361816,29.554997881276325,37.08164517527067,169.03533611697037,172.56538156495802,135.5211283411193,133.8266148369788,210.223282648617,215.24853784107125
0.9345794392523364,30.54327999436085,36.76062074562729,171.05778120204923,172.58914026453755,135.19242960208203,134.26673172639454,210.17477056580844,214.73570132828257
0.9679572763684912,31.44994877732802,36.43534267770521,173.2416409525321,172.6082448444251,134.82500999683563,134.70387952448164,210.092105402872,214.2067691731068
1.0013351134846462,32.31419953808231,36.17280593735632,174.962097941188,172.6657695906045,134.3704232116844,135.09198067251853,210.04636952720176,213.6916971873536
1.034712950600801,33.27137515113366,35.94079767868274,175.88076442690905,172.7013457527913,133.88687792297935,135.4858346635345,210.03375503079909,213.1816936667113
1.068090787716956,34.18708052592413,35.66759021882002,176.57094109100726,172.7418465097441,133.3280518877999,135.84459200774182,210.0521404678808,212.71509766932687
1.1014686248331107,35.23671183926565,35.3959052572082,177.04106421451758,172.72808546700378,132.7140651130528,136.17134215220085,210.0836095115272,212.28703309965795
1.1348464619492658,36.14755801505562,34.919777234861215,178.03268806829524,172.61197395659414,132.1664219980016,136.65016805971837,210.1075120034523,211.8129307028237
1.1682242990654206,36.38590561457994,34.423316415090895,180.2370341981023,172.6029839523305,131.6793156911936,137.26094734939664,210.1379628456256,211.29546807963985
1.2016021361815754,36.33727646077365,33.833574663938464,182.3168892241121,172.60391672651588,131.29482871257585,137.9653559000476,210.1417786764938,210.74247552245265
1.2349799732977302,36.309633085993816,33.09130176760288,183.9179910303014,172.55720944200775,130.98912652728998,138.76464945608782,210.0940565122711,210.14822126400364
1.268357810413885,35.941600015927555,32.21976763737658,184.3574828553388,172.43984123496526,130.7438261365479,139.64618759948473,210.0123250866675,209.5324362190833
1.30173564753004,35.15780019681217,31.22415914341105,184.8015779054284,172.21013073813927,130.56835921903263,140.63146647847256,209.8687641392268,208.86149723568852
1.335113484646195,33.953647646942734,30.18931857456139,187.0317651864821,172.36355602811585,130.45989518030768,141.70100874094163,209.66179490602465,208.11261230390576
1.3684913217623498,32.58770537880421,28.75104674568463,188.6012497953267,173.2004034015998,130.42834648106282,142.8028393288186,209.4193531362774,207.34221668472463
1.4018691588785046,30.94698422133353,27.1947225947486,190.1794079612946,173.59592101859275,130.41317577943423,143.92413463491414,209.2323903066969,206.5655219471249
1.4352469959946594,28.923152337343303,25.86499131804009,191.88728125515257,173.3585289765174,130.3917657135207,145.0147090737628,209.0950550811084,205.8332174766876
1.4686248331108145,27.01666130913281,24.62874313280367,193.1088957815985,172.7484959063099,130.30658752187995,146.0865653655161,208.9880474502864,205.12765336107395
1.502002670226969,24.47432637372913,23.125832798580525,194.4532532567867,174.34430619201137,130.1787087479902,147.1284523966236,208.90191177041547,204.44594049366603
1.535380507343124,22.109892793421093,21.508074316552005,195.10719585329417,175.30931397227522,130.080507925207,148.1315959046788,208.86455150839933,203.7824071345372
1.568758344459279,19.94554758786216,19.850199022455417,195.5132638732864,175.49317061954758,130.0368765694826,149.1027961042723,208.8493584792552,203.1501025402016
1.6021361815754338,17.87888562506867,18.23722446664881,195.09503058695532,174.90325183633294,130.03228351627808,150.00891425319756,208.8593670292512,202.56155769461628
1.6355140186915886,16.15093953824872,16.662125368666807,194.13332489275945,173.81204741565443,130.06340159743309,150.8372049909608,208.90028436085265,202.02437603910872
1.6688918558077437,14.803946162002768,15.154663987720856,192.8641411019196,172.90775969675565,130.07838195182143,151.5647388818038,209.01219617993607,201.5718017201661
1.7022696929238983,13.626941448716488,13.81065183254586,190.9301251364562,172.07203321078404,130.1335165612502,152.27394710974684,209.1453385647596,201.1821161322495
1.7356475300400531,12.757960845610375,12.700675097841575,188.5630931017324,168.37376148734242,130.2236463199883,152.91793408157793,209.3210158463821,200.8654496386128
1.7690253671562082,3.076388377651429,11.303374083952525,185.5469325578143,164.9887021470739,130.36716440438198,153.46785730710917,209.5406391214833,200.62768611850927
1.802403204272363,-3.302840715945102,8.993857970201628,182.41428890590416,159.2370794013238,130.52151316179004,153.87498680371155,209.83702555968367,200.49746805481163
1.835781041388518,-6.427953280445322,6.854288040365221,179.16038264921966,152.96083985505146,130.6837825519986,154.13926378337837,210.22541108797424,200.4508515032232
1.8691588785046729,-6.647383276100223,4.567633535340154,175.82286040765544,145.99963198648567,130.8205541089604,154.2645381317054,210.662676646427,200.4616984329873
1.902536715620828,-4.064827591375076,3.1881574881150483,172.26144571162942,139.45339995686416,131.0069601592318,154.34636273719136,211.06032352818585,200.4587387059473
1.9359145527369823,1.1134747173491606,3.1881574881150483,168.57334755044326,132.92756619964723,131.1505275522067,154.31091903218584,211.47340813832835,200.44319363143453
1.9692923898531367,1.1134747173491606,3.1881574881150483,165.0827257290977,126.3192690199808,131.15985750658487,154.09044938174657,211.9468814632136,200.4785373598004
2.0026702269692924,1.1134747173491606,3.1881574881150483,161.4412188551892,120.06366936564316,131.0574787489565,153.70335024919203,212.4372806940333,200.55938720093152
2.036048064085448,1.1134747173491606,3.1881574881150483,157.5822894389321,114.3613939035195,130.7868468133257,153.17127078723462,212.9538650398545,200.69164619795828
2.069425901201602,1.1134747173491606,3.1881574881150483,153.85741665489047,109.5155255429136,130.39875235609904,152.52539278647524,213.48040749352032,200.86135620552216
2.102803738317757,1.1134747173491606,3.1881574881150483,150.49804755938405,105.31130873123146,130.03486681395864,151.82023137466388,213.9604775897525,201.06609653492097
2.136181575433912,1.1134747173491606,3.1881574881150483,147.4680507303647,101.40209723327789,129.65310844505717,151.00719851819142,214.4627881729369,201.30432572583013
2.1695594125500666,1.1134747173491606,3.1881574881150483,144.8259292004148,98.22708541390352,129.36529462444193,150.21803798579933,214.88430497579407,201.53872585394805
2.2029372496662214,1.1134747173491606,3.1881574881150483,142.59852781282,95.62689711476096,129.13378028484243,149.45152782241644,215.226928925994,201.7625287235857
2.236315086782376,1.1134747173491606,3.1881574881150483,140.904646169339,93.82630137213027,129.023236967067,148.7989685917013,215.50659217317812,201.9128876156219
2.2696929238985315,1.1134747173491606,3.1881574881150483,140.1640966619288,92.92414285524424,129.05386938926452,148.33461790221298,215.7373126592195,201.94860442585343
2.3030707610146863,1.1134747173491606,3.1881574881150483,139.9708109220464,93.16051418394224,129.1555164399583,147.90427485063566,215.9282936241429,201.94386900062457
2.336448598130841,1.1134747173491606,3.1881574881150483,140.3922810379947,93.89918361293152,129.33322991951442,147.50496351119995,216.03541112438467,201.88685012500625
2.369826435246996,1.1134747173491606,3.1881574881150483,141.52853518254295,95.208519093142,129.50000005291037,147.16306035413567,216.1136769984033,201.78134975928964
2.403204272363151,1.1134747173491606,3.1881574881150483,142.60132877644526,97.04257753301218,129.65109501108105,146.87921464319172,216.19461698459423,201.60427684846132
2.4365821094793056,1.1134747173491606,3.1881574881150483,145.4899330917335,99.3122464181542,129.7439163089942,146.6573477558449,216.30613607878027,201.3438189933852
2.4699599465954605,1.1134747173491606,3.1881574881150483,149.1303370066625,102.2740270733515,129.81773960346626,146.435543867386,216.45602065428403,201.09796946596367
2.503337783711616,1.1134747173491606,3.1881574881150483,151.32219934825417,105.4053725869942,129.82440893064967,146.1723502950199,216.66963278740712,200.941788367418
2.53671562082777,1.1134747173491606,3.1881574881150483,154.17076314210382,108.35907430707428,129.74547339764004,145.9004830457535,216.9500386057513,200.8359327092115
2.570093457943925,1.1134747173491606,3.1881574881150483,157.0880613687918,111.99807054046389,129.6240396250679,145.600269650997,217.26658581557595,200.8090963644384
2.60347129506008,1.1134747173491606,3.1881574881150483,159.70854065025102,116.50225109759276,129.46976884276228,145.30929210614232,217.5779012423321,200.81937622767632
2.636849132176235,1.1134747173491606,3.1881574881150483,162.5016501964045,121.73726907735669,129.24087609711717,145.0020922796401,217.93170120075,200.91256895955163
2.67022696929239,1.1134747173491606,3.1881574881150483,164.5905894846792,124.4445885225146,129.03137098434527,144.7208689311284,218.3190444980998,201.0764144720889
2.7036048064085447,1.1134747173491606,3.1881574881150483,166.55708905984483,126.30791964478522,128.8065370575236,144.45211100282322,218.73342484004536,201.32981794164849
2.7369826435247,1.1134747173491606,3.1881574881150483,167.87982129390753,127.68730698886972,128.52109730567392,144.17965972569752,219.17016735664552,201.6839077080902
2.7703604806408544,1.1134747173491606,3.1881574881150483,169.1865910307024,128.45500539039557,128.1351365346592,143.89225476933535,219.637886592991,202.1406396460399
2.803738317757009,1.1134747173491606,3.1881574881150483,170.82119954785847,127.53271849403302,127.59631507056064,143.8362874939291,220.17441395382588,202.683550430174
2.837116154873164,1.1134747173491606,3.1881574881150483,172.62543933331548,123.48154439320372,126.92278179263188,143.89168384439637,220.61950920281336,203.44046409071748
2.870493991989319,1.1134747173491606,3.1881574881150483,173.48105964706588,117.4667966063016,126.33650289843818,143.53821783542452,221.1992535622495,204.3804687429047
2.9038718291054737,8.590618192161335,3.1881574881150483,173.18807249727675,113.89670339105147,125.7502342486491,142.9613469635957,221.8637002027688,205.45256882939896
2.937249666221629,18.12752446946626,3.1881574881150483,174.9211814099543,110.73749729228436,125.1417242442335,141.95024849920156,222.71715806278405,206.5616807317915
2.970627503337784,29.697353510531045,3.1881574881150483,172.96111692735064,109.82308717545791,124.35850608138549,140.9581024215875,223.6262986288013,207.68402576662456
3.004005340453938,42.904043392818856,3.1881574881150483,171.41236798239242,107.52610500661956,123.650521735824,139.97766920816952,224.570230636555,208.84982429433205
3.037383177570093,57.38395887074279,3.1881574881150483,169.82044996336924,105.5857748264662,123.0684881394445,139.0553506631917,225.38210640015572,210.01511957217284
3.0707610146862483,73.03054066709703,3.1881574881150483,167.29204714710883,105.29317530939038,122.47634214117068,138.12517478896237,226.0811291837559,211.22321321420208
3.104138851802403,89.55626694261603,3.1881574881150483,170.86603288286088,103.42325898412012,121.77681360545908,137.32480850610764,226.6580869922731,212.4764097321278
3.137516688918558,106.71871264982715,3.1881574881150483,166.6218082208737,101.34096609835544,121.22528958902122,136.7027966842538,226.9786684901836,213.77202182117384
3.170894526034713,124.22286374431856,3.1881574881150483,165.24638760116667,100.02271237894736,120.79700390540432,136.2257794503039,227.0494055089193,214.99801072952573
3.204272363150868,141.8978749329207,3.1881574881150483,164.95830205888882,99.55727898370831,120.3534678964222,135.81759519435215,226.8832105684607,216.13148580447933
3.2376502002670224,159.56335878929923,3.1881574881150483,165.2136899607479,99.95493178345636,120.07778298962047,135.61878470546048,226.4427285330932,217.21614527607736
3.2710280373831773,176.8983462747272,3.1881574881150483,165.48425140942206,100.76346586216212,119.95676887092908,135.486293336331,225.7378808043098,218.23943237210776
3.3044058744993325,193.4946200806797,3.1881574881150483,165.64475627541478,102.16570603702937,120.11114046265288,135.42359281934003,224.90690876775392,219.1197863835256
3.337783711615488,209.20443820413595,3.1881574881150483,165.7664799935677,103.68776448769728,120.42137070564512,135.37854337926277,224.0609656654005,219.83293250685665
3.371161548731642,224.0131954364116,3.1881574881150483,166.0900644073319,105.75375230453326,120.81831604804188,135.26698212250156,223.1828751187697,220.46414797329652
3.404539385847797,237.73442122446764,3.1881574881150483,166.14008774135098,107.9687339558436,121.37159007670436,135.0259988613394,222.01029480885595,221.0133041027545
3.437917222963952,250.2731380158451,3.1881574881150483,166.47115013740887,110.12386521925464,121.99256121141671,134.94024451044567,220.5443408369786,221.3326142340773
3.4712950600801067,261.3517646885889,3.1881574881150483,167.13302293479074,111.92059868118857,122.72469028301953,134.81362145130686,218.7964741577326,221.51981475410287
3.504672897196261,270.9794529033543,3.1881574881150483,168.2604148276751,113.6975330316101,123.59326748753736,134.72019495648456,216.8769092686712,221.560316995576
3.5380507343124163,278.99783260437965,3.1881574881150483,169.35113687935834,115.32892390336578,124.54888021766013,134.7120633007044,214.97619388088447,221.4215601744804
3.571428571428571,285.02982572896616,3.1881574881150483,170.49846838204488,117.14330912956774,125.52740232841364,134.87096327547337,213.1541053611368,221.145945793476
3.604806408544726,289.77293518477245,3.1881574881150483,171.66232588252555,119.6815180968786,126.61195584569056,135.1230575027427,211.23424352741728,220.7524005220899
3.638184245660881,292.57185368125334,3.1881574881150483,172.99343849326846,122.27456218817711,127.71252468202864,135.5270927756357,209.32179653407127,220.2234302746704
3.671562082777036,293.34811848023435,3.1881574881150483,174.22530193937163,125.82916006460596,128.809036996396,136.03674910252496,207.3949840483737,219.57291971213365
3.704939919893191,292.36081100679485,3.1881574881150483,176.29588872784834,129.46326520259697,129.87314086293264,136.39211776284318,205.492136397617,218.8392601063021
3.7383177570093458,288.8769536586965,3.1881574881150483,177.44293676782073,132.40334033425245,130.9155776080966,136.81002123473397,203.57153667449504,218.00697286729988
3.7716955941255006,283.3611124130668,3.1881574881150483,178.21767038010293,140.4048175953017,131.8645245484898,137.33188332666975,201.81408203710475,217.13776182243623
3.805073431241656,275.2927309909961,3.1881574881150483,178.03903902195262,145.9761384443942,132.7855815288547,137.81524380300576,200.1553365758737,216.21653246399083
3.83845126835781,264.49300643451284,3.1881574881150483,176.62880057327502,145.7918058657729,133.6743805290005,138.24598499502744,198.55581517205653,215.2421528883065
3.871829105473965,273.2572180726008,3.1881574881150483,173.9319372209126,144.2111201721356,134.47535357238874,138.59330252062426,197.04762105941973,214.21097856621668
3.90520694259012,280.03619383426224,3.1881574881150483,171.31397862443495,141.93526341001368,135.22302209177855,138.86219406983747,195.6329979736824,213.1997624645633
3.9385847797062734,284.49351855458684,2.330709539968405,167.10859781098816,137.68606209454043,135.9575703311719,139.08862006096342,194.3368300346872,212.2754320564952
