Time,Left Shoulder Angle,Right Shoulder Angle,Left Elbow Angle,Right Elbow Angle,Left Hip Angle,Right Hip Angle,Left Knee Angle,Right Knee Angle
0.0,-16.480091585367145,-2.940535204641137,175.6913871049261,147.93849336936393,162.25779081485467,209.29852878706168,185.0262324298096,174.97015478760207
0.0333667000333667,-9.172684284406554,-6.580025407807058,181.07321766282905,161.8014050184453,162.98623231733313,208.49015553678424,184.0001547314769,176.19687622963872
0.0667334000667334,-2.3199841393531884,-8.079564355596014,185.2015521413603,173.1716728969203,163.67023593900146,207.71019393011687,183.13708285328647,177.1229746686176
0.1001001001001001,-2.3199841393531884,-7.622663720707733,188.16122629526097,182.2089825186132,164.31404581622826,206.96050297842856,182.4265176420654,177.77568057515103
0.1334668001334668,-2.3199841393531884,-5.392835175841945,190.037075879272,189.073019397348,164.92190608538226,206.24294169308828,181.8579599446408,178.18222441985137
0.1668335001668335,-2.3199841393531884,-1.5735903936983786,190.9139366481344,193.923469046949,165.49806088283208,205.559369085465,181.4209106078397,178.36983667333098
0.2002002002002002,-2.3199841393531884,3.6515589530232417,190.8766443565892,196.9200169812404,166.0467543449464,204.9116441669277,181.1048704784893,178.36574780620222
0.2335669002335669,4.08789430594209,10.099101191623182,190.01003475937748,198.2223487140461,166.57223060809392,204.3016259488453,180.8993404034167,178.19718828907745
0.2669336002669336,10.06083650762842,17.58552464940172,188.39894361124016,197.9901497591906,167.07873380864328,203.73117344258685,180.7938212294489,177.891388592569
0.3003003003003003,15.608727921854932,25.92731765365912,186.1282066669183,196.38310563049785,167.57050808296313,203.20214565952128,180.77781380341307,177.47557918728927
0.333667000333667,20.741454004770763,34.940968531695646,183.2826596811529,193.5609018417921,168.05179756742217,202.7164016110176,180.84081897213628,176.9769905438506
0.3670337003670337,25.46890021252506,44.442965610811584,179.94713840868496,189.6832239068975,168.526846398389,202.2758003084447,180.9723375824456,176.42285313286533
0.4004004004004004,29.800952001266943,54.24979721830719,176.20647860425552,184.90975733963825,168.99989871223238,201.88220076317165,181.1618704811682,175.84039742494582
0.4337671004337671,33.74749482714556,64.17795168148278,172.14551602260562,179.4001876538384,169.47519864532094,201.5374619865674,181.3989185151312,175.25685389070443
0.4671338004671338,37.31841414631005,74.04391732763857,167.84908641847625,173.31420036332224,169.95699033402332,201.2434429900009,181.6729825311615,174.69945300075355
0.5005005005005005,40.52359541490955,83.66418248407484,163.40202554660837,166.8114809819139,170.44951791470822,201.00200278484107,181.9735633760864,174.19542522570546
0.5338672005338673,43.372924089093175,92.8552354780919,158.8891691617431,160.0517150234375,170.95702552374428,200.81500038245696,182.29016189673288,173.77200103617258
0.5672339005672339,45.8762856250101,101.43356463699077,154.3953530186226,153.19458800171853,171.4837572975016,200.6842947942191,182.6122789399296,173.45641090276865
0.6006006006006006,48.04356547880943,103.9252617971915,148.74641994226917,146.32550401164823,172.13380953795968,201.0077065979564,182.82208939522235,173.48116526083157
0.6339673006339673,49.88464910664031,107.17046763541028,149.42715702727128,146.01823957366534,173.01950769643975,201.54924928430063,182.81456590927803,173.71416092975937
0.6673340006673341,51.40942196465187,107.94394973710176,145.62453156650542,139.0140028318779,173.9975093046962,202.07489802011827,182.7413958233076,174.1436525842665
0.7007007007007008,52.62776950899352,109.59122830531231,144.5813974463832,139.46164655161036,175.08983024896312,202.56638095813304,182.626887615262,174.8390006085705
0.7340674007340674,51.64469502660143,110.68271619711498,144.72360755624894,140.13565826477907,176.3094201377258,202.9725132350988,182.47819060733147,175.95885385711424
0.7674341007674341,53.1744938995735,109.43134735355486,142.11760029669193,132.7696835483053,177.23944569673696,203.21603678007264,182.3297977696883,177.548412906342
0.8008008008008008,54.61338501246516,105.64227288512996,140.16100206915428,127.92485530964738,178.01921269493255,203.4479498607477,182.13419391077807,179.6349708673335
0.8341675008341676,56.27068797140827,103.09316691422576,138.98064255296634,123.64413321326096,178.6620673592762,203.3021352862988,182.0298903533786,182.1227757602836
0.8675342008675342,56.709735828543096,95.34176549231586,136.68991055837137,126.41485296653708,179.38272770006748,202.8387795117169,182.1761479568736,184.69984896825744
0.9009009009009008,50.64431923866349,88.06218370325914,134.35480227267237,130.1438841696068,180.05021152897214,202.4029662346625,182.4584327323812,187.1970343073505
0.9342676009342676,45.34085802209942,82.14155753057086,132.4406063069212,133.56693985985353,180.52478129230897,201.9450576287142,182.8278498454968,189.71362470636973
0.9676343009676344,41.37063785851165,84.24198995889661,133.1024022006879,136.47328111906967,180.4547311533933,201.55578909466325,183.18526299914856,192.3766660260904
1.001001001001001,38.60994313126061,85.11470883040978,132.3330492229647,139.47015744891075,180.750008256764,200.75083849102697,183.57731844313608,195.0005228712331
1.0343677010343677,37.0837239934273,79.15503050256217,133.6577321643538,146.5166230340783,181.2625705425204,199.91782651554573,183.72963686389693,198.27921661386185
1.0677344010677343,37.19513111110357,73.83624870330576,134.98368262018647,153.3848829491445,181.7114798190344,199.0114368052445,183.8574155579712,201.5103157296588
1.1011011011011012,39.19488742583593,69.4007751737276,136.22708716261377,159.81140577804598,182.086022478902,198.0400568313366,183.9569879261691,204.6431420362518
1.1344678011344678,50.21803834140032,66.0910216549158,137.30413236378826,165.53266010472058,182.3754849147204,197.012074065037,184.02468736930228,207.62701735127035
1.1678345011678346,55.0326115751171,64.14939988795814,138.13100479586225,170.2851145131063,182.569153519087,195.9358759775608,184.05684728818247,210.4112634923437
1.2012012012012012,60.65784665166253,63.81832161394266,138.62389103098818,173.80523758714094,182.656314684599,194.81985004012293,184.0498010836215,212.94520227710143
1.234567901234568,67.09776080231217,65.34019857395712,138.69897764131846,175.82949791076246,182.62625480385384,193.67238372393848,183.99988215643089,215.1781555231728
1.267934601267935,74.3563712583417,68.95744250908962,138.27245119900556,176.09436406790888,182.4682602694488,192.5018645002225,183.9034239074224,217.0594450481872
1.3013013013013013,82.43769525102688,74.91246516042784,137.26049827620187,174.33630464251792,182.17161747398103,191.31667984018995,183.75675973740772,218.53839266977403
1.334668001334668,91.3457500116433,83.44767826905984,135.5793054450598,170.29178821852776,181.72561281004803,190.1252172150559,183.55622304719867,219.56432020556275
1.3680347013680347,101.08455277146676,94.8054935760734,133.14505927773166,163.69728337987613,181.11953267024705,188.9358640960353,183.2981472376068,220.08654947318269
1.4014014014014016,111.65812076177286,109.2283228225566,129.87394634636996,154.28925871050075,180.34266344717545,187.7570079543433,182.97886570944388,220.05440229026323
1.4347681014347682,123.07047121383738,126.95857774959718,125.68215322312716,141.80418279434002,179.38429153343043,186.5970362611949,182.5947118635216,219.4172004744338
1.4681348014681348,135.32562135893596,148.23867009828325,120.4858664801556,125.97852421533123,178.2337033216094,185.4643364878051,182.14201910065168,218.12426584332377
1.5015015015015016,148.42758842834428,173.31101160970252,114.20127268960776,106.54875155741296,176.8801852043096,184.3672961053889,181.61712082164576,216.1249202145625
1.5348682015348682,162.38038965333806,202.41801402494292,106.744558423636,83.2513334045228,175.31302357412844,183.31430258516133,181.01635042731567,213.3684854057794
1.5682349015682349,177.18804226519302,235.80208908509252,98.03191025439268,55.82273834059836,173.52150482366312,182.31374339833744,180.33604131847292,209.804283234604
