Time,Left Shoulder Angle,Right Shoulder Angle,Left Elbow Angle,Right Elbow Angle,Left Hip Angle,Right Hip Angle,Left Knee Angle,Right Knee Angle
0.0,-32.97913357843216,34.185001313625385,172.15582693003154,186.1921396669072,138.09981790685424,128.77131417548904,195.93340203372065,212.9633055713032
0.0333667000333667,-11.366891111656006,32.00450892124182,159.08172853581885,175.8191920203518,136.59566157566718,130.78271215361897,198.21576450939853,211.5523935889826
0.0667334000667334,7.887153418499864,30.20078845712584,148.2425941085993,166.00916832592046,135.1304683620598,132.53772148019962,200.4148265251242,210.3740673640337
0.1001001001001001,24.906871254890383,28.749526707877013,139.47967916796776,156.7552755337155,133.71248102720065,134.05166628060354,202.52144943778111,209.40987103464784
0.1334668001334668,39.8161336403705,27.62641046009493,132.63423923351905,148.05072059383923,132.34994233225834,135.33987068020318,204.52649460425292,208.64134873901628
0.1668335001668335,52.73881181779513,26.8071265003792,127.54752982484794,139.88871045639405,131.05109503840137,136.41765880437094,206.42082338142345,208.0500446153303
0.2002002002002002,63.798777030019245,26.26736161532938,124.06080646154928,132.26245207148227,129.82418190679832,137.30035477847937,208.1952971261761,207.61750280178123
0.2335669002335669,73.11990051989775,25.98280259154508,122.01532466321788,125.16515238920624,128.67744569861776,138.00328272790085,209.8407771953947,207.3252674365603
0.2669336002669336,80.82605353028558,25.929136215625864,121.25233994944855,118.59001835966828,127.61912917502823,138.54176677800783,211.34812494596275,207.15488265785885
0.3003003003003003,87.04110730403767,26.08204927417134,121.6131078398361,112.5302569329708,126.6574750971983,138.93113105417288,212.70820173476395,207.0878926038681
0.333667000333667,91.88893308400898,26.417228553781086,122.93888385397536,106.97907505921604,125.80072622629652,139.18669968176837,213.911868918682,207.10584141277937
0.3670337003670337,95.49340211305444,26.91036084105469,125.07092351146116,101.92967968850644,125.05712532349148,139.32379678616678,214.94998785460032,207.190273222784
0.4004004004004004,97.97838563402895,27.53713292259173,127.85048233188826,97.37527777094428,124.43491514995168,139.35774649274055,215.8134198994028,207.3227321720732
0.4337671004337671,99.46775488978751,28.27323158499182,131.11881583485157,93.30907625663193,123.94233846684573,139.3038729268622,216.49302640997288,207.4847623988382
0.4671338004671338,100.08538112318504,29.09434361485452,134.71717953994576,89.72428209567171,123.58763803534214,139.17750021390412,216.9796687431944,207.6579080412704
0.5005005005005005,99.95513557707643,29.976155798779416,138.4868289667658,86.61410223816598,123.3790566166095,138.99395247923883,217.2642082559508,207.8237132375611
0.5338672005338673,99.20088949431668,30.894354923366123,142.2690196349064,83.97174363421709,123.32483697181635,138.76855384823872,217.3375063051258,207.96372212590148
0.5672339005672339,97.94651411776113,31.824627775214463,145.90500706396404,81.79041323392822,123.43322186213226,138.51662844627754,217.1904242476048,208.0594788444846
0.6006006006006006,94.46769673093624,24.253314330468683,144.71313437533672,76.39697573790389,123.89615927659374,138.51318216916547,216.5982446212437,208.0031579813044
0.6339673006339673,92.25950151211,17.881962755940858,143.9483734825764,73.70770354094168,124.48232075617376,138.43569259388786,215.68392560762425,207.6668876221132
0.6673340006673341,90.93264684065704,14.855512274830213,143.1715039632209,72.38244016581703,125.27361491351368,138.26133489430674,214.5146165942301,207.2147921060564
0.7007007007007008,90.77811553999808,13.897089045651914,142.61998889182857,72.30898120078128,126.33507521566828,138.14134990565927,213.0714397187748,206.55125831535247
0.7340674007340674,91.4612847297674,15.283730551895518,141.97116214802045,73.78836423170053,127.74405334239827,137.95870833464454,211.3361485950648,205.89304992459648
0.7674341007674341,93.16824406737686,19.098081911921746,141.3923826911212,76.38214867726317,129.43097111424248,137.86345817203892,209.1828459137516,205.15943237543647
0.8008008008008008,103.58656798762696,33.57461928362978,140.74736629011625,80.16860733150916,131.32163701856726,137.91389812138996,206.6314197974047,204.2635941426072
0.8341675008341676,112.4883965985952,48.671097874628416,140.3727470359883,85.65495164890639,133.35498131022695,138.1991188807711,203.97374735698875,203.1199101144008
0.8675342008675342,112.81239634157848,55.78185306750295,134.02770315256333,92.25302781040074,135.50782188761934,138.49460206603035,201.1685854465848,201.92961966497447
0.9009009009009008,113.45009911021428,63.33897343122884,127.19027263756456,98.78505611191912,137.73459192044152,138.867205308666,198.30681363987352,200.62093045065572
0.9342676009342676,114.51772826386411,71.29712853883731,119.98380735170085,105.03831024586852,140.0125677771438,139.32071613340452,195.4244307969429,199.1936294907796
0.9676343009676344,116.13150716188994,79.61098796335986,112.53165915568228,110.80006390465692,142.31902582617764,139.85892206497348,192.5574357778822,197.64750380468263
1.001001001001001,118.40765916365392,88.23522127782772,104.95717991021873,115.85759078069248,144.6312424359944,140.48561062810043,189.7418274427808,195.9823404117016
1.0343677010343677,121.46240762851792,97.12449805527233,97.38372147602044,119.9981645663832,146.9264939750456,141.204569347513,187.0136046517281,194.1979263311729
1.0677344010677343,125.411975915844,106.233487868725,89.93463571379715,123.00905895413716,149.18205681178256,142.01958574793875,184.40876626481332,192.29404858243336
1.1011011011011012,130.3725873849942,115.51686029121724,82.73327448425917,124.67754763636243,151.37520731465673,142.93444735410526,181.9633111421261,190.2704941848196
1.1344678011344678,136.46046539533052,124.92928489578014,75.90298964811639,124.79090430546694,153.48322185211958,143.9529416907401,179.71323814375563,188.12705015766807
1.1678345011678346,143.79183330621504,134.42543125544535,69.56713306607871,123.1364026538588,155.4833767926225,145.07885628257085,177.69454612979126,185.86350352031573
1.2012012012012012,152.4829144770097,143.959968943244,63.84905659885635,119.50131637394598,157.3529485046169,146.31597865432508,175.9432339603224,183.479641292099
1.234567901234568,162.64993226707642,153.48756753220772,58.87211210715934,113.67291915813672,159.06921335655423,147.6680963307304,174.49530049543847,180.9752504923545
1.267934601267935,174.40911003577745,162.96289659536765,54.7596514516976,105.43848469883896,160.60944771688588,149.13899683651437,173.38674459522878,178.350118140419
1.3013013013013013,187.8766711424745,172.34062570575523,51.63502649318104,94.58528668846076,161.95092795406333,150.73246769640454,172.65356511978268,175.60403125562902
1.334668001334668,203.16883894653003,181.5754244364018,49.62158909231991,80.90059881941016,163.07093043653794,152.45229643512857,172.3317609291896,172.73677685732122
1.3680347013680347,220.4018368073057,190.6219623603388,48.84269110982422,64.17169478409522,163.94673153276116,154.30227057741394,172.4573308835389,169.74814196483229
1.4014014014014016,239.6918880841635,199.43490905059744,49.42168440640366,44.18584827492401,164.55560761118443,156.2861776479883,173.06627384291988,166.63791359749882
