Time,Left Shoulder Angle,Right Shoulder Angle,Left Elbow Angle,Right Elbow Angle,Left Hip Angle,Right Hip Angle,Left Knee Angle,Right Knee Angle
0.0,11.16816307436176,14.934756387665544,149.813425224651,47.53400050448441,187.95823912924544,152.805515418216,180.3554226618712,186.7623494828772
0.0333667000333667,6.775572477890348,10.702219159382384,142.88570079479868,57.36680597430255,189.228684391958,151.04275717700676,179.1207906351707,187.3293856183744
0.0667334000667334,3.132060938582182,7.215115813079299,136.9597247558323,66.41395709653588,190.2112016606524,149.56202269091713,178.05842730119684,187.7968459408256
0.1001001001001001,0.2023723043147605,4.443223924326929,131.97386144504006,74.71689709498038,190.925243544972,148.3491437308985,177.1587489343627,188.17106272120853
0.1334668001334668,-2.048749577034421,2.356321068695923,127.86647519971012,82.31706919343199,191.3902626545597,147.38995206790233,176.41217180908137,188.4583682305006
0.1668335001668335,-3.656560857587863,0.9241848217569189,124.57593035713064,89.25591661568666,191.62571159905872,146.67027947288005,175.8091121997659,188.6650947396794
0.2002002002002002,-4.656317689468068,0.1165927590805626,122.04059125458976,95.57488258554037,191.65104298811207,146.17595771678307,175.33998638082952,188.7975745197224
0.2335669002335669,-5.083276224797544,-0.0966775437624978,120.19882222937568,101.31541032678903,191.485709431363,145.89281857056284,174.99521062668518,188.8621398416072
0.2669336002669336,-4.972692615698783,0.254151488798378,118.98898761877656,106.5189430632287,191.14916353845447,145.80669380517074,174.76520121174605,188.86512297631128
0.3003003003003003,-4.3598230142943,0.254151488798378,118.34945176008053,111.22692401865524,190.6608579190296,145.90341519155825,174.64037441042518,188.81285619481216
0.333667000333667,-3.2799235727065934,0.254151488798378,118.21857899057576,115.48079641686464,190.04024518273152,146.16881450067677,174.61114649713568,188.71167176808743
0.3670337003670337,-1.7682504430581665,0.254151488798378,118.53473364755044,119.32200348165289,189.3067779392033,146.58872350347775,174.66793374629063,188.56790196711452
0.4004004004004004,0.1399402225284909,0.254151488798378,119.23628006829271,122.7919884368159,188.47990879808805,147.1489739709126,174.80115243230316,188.38787906287112
0.4337671004337671,0.1399402225284909,0.254151488798378,120.26158259009074,125.93219450614968,187.57909036902888,147.83539767393273,175.00121882958632,188.17793532633465
0.4671338004671338,0.1399402225284909,0.254151488798378,121.54900555023272,128.7840649134501,186.62377526166887,148.6338263834896,175.25854921255325,187.94440302848253
0.5005005005005005,0.1399402225284909,0.254151488798378,123.03691328600677,131.3890428825132,185.6334160856511,149.53009187053465,175.56355985561703,187.6936144402925
0.5338672005338673,0.1399402225284909,0.254151488798378,124.66367013470104,133.78857163713494,184.6274654506188,150.51002590601925,175.90666703319073,187.43190183274208
0.5672339005672339,0.1399402225284909,0.254151488798378,126.36764043360478,136.0240944011119,183.6253759662163,151.55946026089603,176.27828701968886,187.16559747681012
0.6006006006006006,0.1399402225284909,0.254151488798378,126.00882819158336,139.01233069354933,182.8395739722362,152.81432620915277,176.57673735649013,186.88046990488368
0.6339673006339673,0.1399402225284909,0.254151488798378,126.62306216270314,144.62562100989527,182.36542413156124,154.30174050275662,176.80619092088435,186.72895407925893
0.6673340006673341,0.1399402225284909,0.254151488798378,123.60372635419014,145.53442388952877,181.9754277224076,155.70006431234808,177.0153014065716,186.9801909263665
0.7007007007007008,0.1399402225284909,0.254151488798378,125.17531825035464,144.59611712801794,181.6477216813857,157.0339635801443,177.22864085024827,187.3098146843772
0.7340674007340674,0.1399402225284909,1.138857432333836,127.77090127984512,145.0559104766764,181.4526887858868,158.28234696250044,177.382733815526,187.57984303778463
0.7674341007674341,0.1399402225284909,1.138857432333836,126.10883552722744,143.13093006479176,181.24959994917788,159.44546055106312,177.55830030528267,187.7095753195452
0.8008008008008008,0.1399402225284909,1.138857432333836,127.96732670924594,146.72442452810836,181.0179954867836,160.3641429120313,177.8064169943019,187.74758694358744
0.8341675008341676,0.1399402225284909,1.138857432333836,130.78471696901298,158.14958371132508,181.83087708209692,160.24958978150536,178.11996594130324,187.55375010750444
0.8675342008675342,0.1399402225284909,1.138857432333836,134.68913640352753,171.82988925962263,181.91330359292243,160.31679815824882,179.15165083983672,186.6400353413464
0.9009009009009008,0.1399402225284909,1.138857432333836,134.54917294799276,175.9068777967162,181.55747707794296,160.51234415493852,180.4434257443348,185.4068660627076
0.9342676009342676,0.1399402225284909,1.138857432333836,136.4316670871296,178.17742553471246,181.37591013264745,160.4663372198902,181.21800332260264,184.265251903682
0.9676343009676344,0.1399402225284909,1.138857432333836,141.93648038615697,179.0344664847198,180.51046286525985,160.42345859981447,180.4211096895304,185.267878504184
1.001001001001001,0.1399402225284909,1.138857432333836,141.98483151870687,176.70156297325047,179.5532550868173,160.21806798088116,181.31276190678665,184.23833063448225
1.0343677010343677,0.1399402225284909,1.138857432333836,139.38208363014016,171.20193311653406,179.34004168950858,159.67019633079195,180.7144741858558,183.91485154059288
1.0677344010677343,0.1399402225284909,1.138857432333836,141.17701697793134,172.41869039628145,178.89405402141142,159.11999874023502,179.99089581673266,183.5792929389036
1.1011011011011012,0.1399402225284909,1.138857432333836,144.15219234076622,173.35187382114577,178.4432115098866,158.4714760266309,179.0899114660448,183.19806266155155
1.1344678011344678,0.1399402225284909,1.138857432333836,146.33560303728956,173.09291510992898,177.92313099452207,157.60570640638704,178.0163922361046,182.8424922451518
1.1678345011678346,0.1399402225284909,1.138857432333836,149.1532117895708,173.49604676666425,177.18752788513362,156.87872169642307,176.94506250069256,182.60943556919105
1.2012012012012012,2.409392271930855,1.138857432333836,151.5379633083033,173.57767325949857,176.3553699726594,156.3474315178015,175.73832280344777,182.3542806729701
1.234567901234568,5.004849553026434,1.138857432333836,153.34448687976905,173.7999471181465,175.23114872865025,156.05479473590358,174.54437889050934,182.043273415507
1.267934601267935,7.891055913692724,1.138857432333836,155.23925151463283,172.51138315931118,174.02426433197488,155.89324040802677,173.33742832243877,181.7276975771346
1.3013013013013013,11.032755201807223,2.527217862414517,156.91944727035602,170.40576871619845,172.8198535054778,155.8708778785166,172.08101435745863,181.50010057146812
1.334668001334668,14.394691265247417,4.38901035461106,157.95551335299848,167.43908816286898,171.589332293108,155.91657529336968,170.89624261353123,181.35943729091736
1.3680347013680347,19.94060118982692,6.69401248449412,159.01503912122598,163.63115336475445,170.12030716863433,156.090250489029,170.08203018191475,181.33009945339603
1.4014014014014016,24.940309320010115,9.41200182763433,160.71916278587636,161.02803424728026,168.8664498655786,156.34417138090586,169.02096935026756,181.47907931943092
1.4347681014347682,29.67246643118349,12.512755959602334,159.64261376947388,155.33190992992724,166.73943143871497,157.37676263881542,167.8895000737143,181.3626940747513
1.4681348014681348,33.67093769776843,15.966052455968804,158.46082205872708,149.56397117217554,164.63697444871102,158.5260977479736,166.77532778362462,181.29332778958263
1.5015015015015016,37.11112431790888,19.741668892304347,157.25029541022587,143.84825421608335,162.6003032772294,159.7722788751834,165.68580047797008,181.27785894474763
1.5348682015348682,40.08847729849491,23.80938284417965,156.08754158056126,138.30879530371047,160.67064230593428,161.09540818724892,164.6282661547237,181.32316602107025
1.5682349015682349,42.33346570589308,30.75202297234346,155.04906832632412,133.06963067711655,158.8892159164897,162.47558785097434,163.6100728118585,181.4361274993744
1.6016016016016017,43.60730359204587,37.54183562368188,154.2113834041054,128.25479657836138,157.29724849055972,163.8929200331639,162.63856844734747,181.623621860484
1.6349683016349683,44.39693087280303,43.91830662407828,153.65099457049604,123.98832924950464,155.93596440980846,165.32750690062173,161.72110105916363,181.89252758522304
1.6683350016683351,43.63846332525653,49.27655360589011,153.44440958208702,120.39426493260608,154.84658805590004,166.75945062015197,160.86501864528006,182.24972315441548
1.7017017017017018,35.123146421106355,53.78006959163875,153.66813619546917,117.59663986972542,154.0703438104985,168.16885335855886,160.07766920366973,182.70208704888523
1.7350684017350684,29.664702980191056,58.07042533001365,154.39868216723352,115.71949030292228,153.64845605526796,169.53581728264652,159.36640073230564,183.25649774945623
1.7684351017684352,28.01407015293268,62.13386138575486,155.71255525397095,114.88685247425664,153.62214917187248,170.84044455921918,158.7385612291609,183.91983373695243
1.8018018018018016,28.0796661960081,65.49613988901314,157.68626321227245,115.222762625788,154.03264754197613,172.06283735508097,158.2014986922084,184.69897349219772
1.8351685018351689,30.21420622241704,67.69512343801597,160.3963137987289,116.85125699957612,154.92117554724308,173.18309783703606,157.76256111942126,185.60079549601625
1.8685352018685355,33.35563078864204,69.55499502061434,163.91921476993127,119.89637183768082,156.32895756933732,174.18132817188865,157.42909650877243,186.63217822923176
1.901901901901902,37.670203207639545,68.60294676317226,168.3314738824705,124.48214338216177,158.29721798992304,175.03763052644288,157.208452858235,187.80000017266823
1.9352686019352687,42.78495166140728,67.88719720805692,173.70959889293755,130.73260787507866,160.86718119066427,175.732107067503,157.10797816578196,189.1111398071497
1.968635301968636,48.847964201184176,65.52654224792165,180.13009755792328,138.7718015584912,164.08007155322505,176.2448599618731,157.13502042938632,190.5724756135
