Time,Left Shoulder Angle,Right Shoulder Angle,Left Elbow Angle,Right Elbow Angle,Left Hip Angle,Right Hip Angle,Left Knee Angle,Right Knee Angle
0.0,22.730456872818035,34.906955828787694,156.06429949445044,166.9729855181602,131.74785863722707,127.51015720660467,215.28946477727004,214.3548155780101
0.0333667000333667,23.236039313599903,34.88607878307992,156.2930751626817,167.36147417430655,131.62360831848508,127.9518287187784,215.052906619408,214.0009516709696
0.0667334000667334,23.71051706788557,34.90720534215014,156.5581204016863,167.7983586949021,131.54980165121012,128.32964847334668,214.81930858676645,213.70544648397976
0.1001001001001001,24.156126504268794,34.96733257117713,156.85838127520833,168.2775186606622,131.5219552335426,128.64654615386218,214.58956090435925,213.46558966762768
0.1334668001334668,24.57510399134332,35.06345753533964,157.1928038469919,168.79283365230222,131.53558566362292,128.90545144387738,214.3645537972,213.27867087250024
0.1668335001668335,24.9696858977029,35.19257729981641,157.5603341807811,169.33818325053753,131.58620953959144,129.1092940269449,214.14517749030216,213.1419797491844
0.2002002002002002,25.342108591941283,35.35168892978623,157.95991834032006,169.90744703608345,131.66934345958856,129.26100358661728,213.9323222086796,213.05280594826715
0.2335669002335669,25.694608442652225,35.537789490427826,158.39050238935286,170.4945045896554,131.7805040217547,129.36350980644715,213.72687817734572,213.0084391203354
0.2669336002669336,26.02942181842948,35.74787604691998,158.8510323916236,171.0932354919687,131.9152078242302,129.41974236998703,213.52973562131447,213.00616891597613
0.3003003003003003,26.348785087866776,35.978945664441426,159.34045441087636,171.69751932373873,132.0689714651555,129.4326309607895,213.34178476559924,213.0432849857763
0.333667000333667,26.654934619557885,36.22799540817094,159.85771451085526,172.30123566568082,132.237311542671,129.40510526240718,213.1639158352137,213.1170769803228
0.3670337003670337,26.950106782096555,36.49202234328728,160.40175875530443,172.89826409851037,132.41574465491703,129.3400949583926,212.9970190551716,213.2248345502028
0.4004004004004004,27.23653794407653,36.76802353496918,160.97153320796795,173.48248420294274,132.59978740003407,129.2405297322983,212.84198465048647,213.3638473460029
0.4337671004337671,27.51646447409157,37.05299604839542,161.5659839325899,174.04777555969324,132.78495637616243,129.10933926767694,212.69970284617204,213.53140501831035
0.4671338004671338,27.79212274073541,37.34393694874476,162.18405699291438,174.5880177494773,132.96676818144255,128.94945324808103,212.5710638672419,213.724797217712
0.5005005005005005,28.065749112601825,37.63784330119593,162.8246984526855,175.09709035301023,133.14073941401483,128.76380135706316,212.45695793870965,213.9413135947948
0.5338672005338673,28.339579958284546,37.93171217092772,163.4868543756474,175.5688729510074,133.30238667201962,128.55531327817587,212.3582752855889,214.17824380014576
0.5672339005672339,28.615851646377514,38.222540623119166,164.1694708255454,175.99724512418555,133.44722655359837,128.32691869497282,212.2759061328952,214.4328774843535
0.6006006006006006,28.981189874294177,38.46822719872773,165.10850856791916,176.26914353059374,133.5273109977387,128.04668023137745,212.23701530921065,214.73661208905148
0.6339673006339673,29.361501441751383,38.70831569385872,165.95785152878997,176.4843515979382,133.58070186890217,127.7681887986874,212.1748237799659,215.0576201670975
0.6673340006673341,29.730908391066635,38.940561346000905,166.7037322476151,176.65365829581222,133.61008597014498,127.50395570545818,212.12149291469208,215.37968413248493
0.7007007007007008,30.141326747977885,39.18611506193779,167.42492275752096,176.77509637364622,133.54824132952808,127.22166940999848,212.12942240017497,215.7228541376465
0.7340674007340674,30.497993372728523,39.40036032826951,168.30151539716124,176.7857906986277,133.42454439201558,126.9450892139956,212.180063054172,216.0541909243911
0.7674341007674341,30.747436819326744,39.6005262609446,169.1999712470526,176.71313018300117,133.3127620656065,126.64771312382877,212.2645680618217,216.37645091881487
0.8008008008008008,31.1187937339042,39.77010381938497,170.06864844930854,176.55214681225596,133.17509597846004,126.36482309145408,212.37247527501123,216.6782105441164
0.8341675008341676,31.540758805643307,39.87689783362064,170.86880533728183,176.25378809708633,132.9501158311512,126.0741354183358,212.5428685471159,216.96092336728003
0.8675342008675342,31.96962916800924,39.94320802490379,171.58563187021952,175.8624629019177,132.67972795919235,125.80467563694135,212.73924480310748,217.20370462634787
0.9009009009009008,32.38650695365565,40.01217351234194,172.26204377533602,175.42604071747832,132.43139946143566,125.54490202986368,212.94852302477847,217.40232743301948
0.9342676009342676,32.764509038541895,40.05482679089106,172.8599642762069,174.97295932842394,132.1493239853175,125.31330606269574,213.15172599378784,217.5481063210993
0.9676343009676344,33.1842768559517,40.17400902979829,173.47891294946834,174.70362445828397,131.82400313816927,125.0751874901841,213.37605515119205,217.6735951877221
1.001001001001001,33.60696422398536,40.26734678447612,174.07404272012718,174.39983001574524,131.47605328162643,124.85596913306512,213.64097672261792,217.77992213986323
1.0343677010343677,34.02573478059416,40.32360705059095,174.6618036570963,174.0426591256984,131.13381398501727,124.6744507993451,213.90777627738967,217.8460190093007
1.0677344010677343,34.412221877109,40.321873862922594,175.20540381995477,173.61340006760318,130.81618223309988,124.57082167865578,214.1223521143826,217.8484638840373
1.1011011011011012,34.81130965064518,40.30374592210504,175.7359040251335,173.05263679177574,130.48906620325883,124.51543987893652,214.2928597271173,217.8060459355536
1.1344678011344678,35.21179737868428,40.237968066532645,176.27742020589787,172.46260018917255,130.17480330605534,124.52204843012127,214.39865428317125,217.71010425862585
1.1678345011678346,35.60735706791349,40.2181692509555,176.728152924301,172.06695163910973,129.94549313539073,124.59100530916648,214.30920140075963,217.55553387041465
1.2012012012012012,35.95940446943057,40.12377105335911,177.17712752300994,171.6507667260675,129.78662802355998,124.73115689904913,214.1259586558365,217.35663419645527
1.234567901234568,36.29320275292778,39.95681438537192,177.42894941821018,171.08753604739192,129.6070838455732,124.88317887676904,213.9832569677064,217.1267403364652
1.267934601267935,36.57944302216551,39.71519907330019,177.70577107532915,170.46578401632553,129.48951916857385,125.08437035635424,213.80334813063808,216.86567964115136
1.3013013013013013,36.85331994664781,39.43337004878679,177.78238697185827,169.8861046125413,129.3976309151244,125.31863596088584,213.5730474109871,216.6136088206649
1.334668001334668,37.0933053080602,39.08854629791825,177.90093171951156,169.285064748709,129.35074687598794,125.62337539000964,213.2973065982684,216.347697803758
1.3680347013680347,37.33664717971465,38.66001008091968,178.03848421787927,168.71399009123834,129.29871112100938,125.99646615107586,213.0611458599652,216.080154633305
1.4014014014014016,37.50199081578424,38.13981368272936,178.3145648415589,168.07871063628568,129.26585877951334,126.43040011414624,212.8291515398023,215.79002609508785
1.4347681014347682,37.75434341579834,37.56995753681461,178.78505474392975,167.54370286642452,129.2735311095175,126.91566100666353,212.6398525610086,215.49435567246528
1.4681348014681348,37.89985130841318,36.94578970161704,179.49730391411782,166.98025505401213,129.24457761219713,127.4543568419507,212.50799179177892,215.1831977348172
1.5015015015015016,38.29003716401955,36.50088080279156,180.7200647751645,166.54666290388383,129.20125828747277,128.0237361330141,212.4258007047199,214.8768493623316
1.5348682015348682,38.3206150180138,35.958533724800965,181.77275395984185,166.13958160886628,129.16811512186044,128.67384936577955,212.3702343106797,214.56800588619924
1.5682349015682349,37.66222784120274,35.319227782108065,182.52280551452503,166.02065608723325,129.17721741817846,129.41057924651835,212.2766146366376,214.23042031488023
1.6016016016016017,36.66489730845005,34.50932538756896,183.40749600466225,165.4176148825369,129.21308791550655,130.21253552422547,212.196663857167,213.87816109005377
1.6349683016349683,35.44309574757587,33.774024438903034,185.7660135891187,163.93955346417383,129.30605277594313,131.09185470335996,212.0923890570756,213.47838615617425
1.6683350016683351,34.43356913336032,32.69113594429026,191.1382154192605,162.41221301173127,129.3828580677321,132.00995428042967,212.0315757193826,213.09071906790945
1.7017017017017018,33.13850269082857,31.429107123918435,191.1098139288939,164.15860461220612,129.2988195118386,132.94841755693992,212.0525917132698,212.72147610788303
1.7350684017350684,31.76431380819397,29.85960854876382,190.4941893722024,164.9657745531121,129.20475322128732,133.8956961753796,212.1451284674343,212.37517413169496
1.7684351017684352,30.32088394970674,28.43078953140297,189.536572483856,164.89653593806926,129.01832918952448,134.81730049816824,212.34253653130023,212.07730534967868
1.8018018018018016,28.48711006336281,26.93056864537972,188.3698739210212,164.11291467194377,128.82164232616935,135.70818564428248,212.72473809304023,211.7747645936824
1.8351685018351689,26.650720605607862,25.214638589133088,186.65626244316744,162.71246368318788,128.57255959636134,136.51591884363,213.26602954691,211.49038429435
1.8685352018685355,24.86712874753117,23.42643017363576,184.2245571541789,160.583920025405,128.36586883813413,137.26566775336846,213.8687427941064,211.1952316886182
1.901901901901902,22.642270050837425,21.35309841826197,181.0733535438536,158.30543557385838,128.19505142875323,137.92572797734312,214.53855197202333,210.905906420408
1.9352686019352687,20.51940806030264,19.31378125987272,177.49294727385623,155.16720320265043,127.98172297021829,138.53037580689937,215.2589175353484,210.61505435337585
1.968635301968636,18.586075809056616,16.89878911890388,173.44937882935653,152.30797883167213,127.81646233756824,139.056852100743,216.0643037411525,210.3428393669347
2.002002002002002,16.677170685938126,14.795431239410805,168.99729697350062,149.38976582346203,127.6719671579095,139.52898827493556,216.90267962474604,210.0754211692597
2.035368702035369,15.179154717823415,12.8454183894088,164.81594655284445,142.80332583004937,127.54670890791218,139.91583922829233,217.74353506326813,209.8210519968277
2.0687354020687354,14.06998581268734,11.260672234981712,160.65742204753892,136.18032454605495,127.37912473457716,140.23586368477407,218.5495614892845,209.57175844573544
2.1021021021021022,5.179759994764511,10.110882988561304,155.2683869502084,129.9480385192275,127.16439202736107,140.48112122777857,219.31295285610827,209.3399305006802
2.135468802135469,-0.5895163568163015,9.209837198703337,150.4300398614108,123.7638270063037,126.95431838236703,140.68737358999184,220.0026066209793,209.0977204085219
2.1688355021688355,-3.4037143219192725,8.728618553250538,146.07399717301556,118.1199036738288,126.738316260897,140.81981244413262,220.56677731007943,208.85664185683703
2.2022022022022023,-3.6942803705126783,8.675958936018564,142.3686096527915,112.39834975997265,126.5730749780159,140.90238866119606,220.9143464035611,208.63157795858584
2.235568902235569,-1.6619503047457425,8.880932759260295,139.49562622795625,106.271653786736,126.4242727120044,140.90307652438685,221.19221186636915,208.4404516746215
2.2689356022689355,2.611752206719141,9.367049161807646,137.14128818481936,100.24526658265177,126.32405287939304,140.86470411861347,221.36560024908948,208.2492950947652
2.3023023023023024,2.611752206719141,9.934386603182768,135.0165059733837,94.23273418436018,126.27555466355643,140.78553713932249,221.4285281148719,208.0597237851784
2.335669002335669,2.611752206719141,2.636538969791032,133.4451081105143,87.99796587350153,126.15590058337544,140.67246312129808,221.60190309257567,207.88492356227425
2.369035702369036,2.611752206719141,2.636538969791032,132.5267461787277,82.53329562036157,125.99712066576456,140.49529023242928,221.83232373277448,207.7360951495628
2.4024024024024024,2.611752206719141,2.636538969791032,132.21152113757066,77.74712094613527,125.91441070166336,140.34075105880072,221.9787066231,207.5944387678544
2.4357691024357693,2.611752206719141,2.636538969791032,132.581319345155,73.47920033211562,125.87179481909854,140.17778555697544,222.08696782741785,207.4735738286633
2.469135802469136,2.611752206719141,2.636538969791032,133.75516439637653,69.68494527068579,125.86838039218514,140.05705575695154,222.2011197290355,207.31913476815456
2.5025025025025025,2.611752206719141,2.636538969791032,135.6855188979866,66.57002542740638,125.89001842725936,139.95676664616448,222.32975087526384,207.14670739474485
2.5358692025358693,2.611752206719141,2.636538969791032,138.40904011305423,64.03638719330675,125.9769344707693,139.89494836905263,222.43327850743307,206.94667465438
2.569235902569236,2.611752206719141,2.636538969791032,141.74599965574376,61.970538539540655,126.09163723464842,139.8742976935844,222.53947751670177,206.7426085927428
2.6026026026026026,2.611752206719141,2.636538969791032,145.64011039549817,60.48354266464269,126.2236560387283,139.93415655883766,222.60672611098943,206.49761283987348
2.6359693026359694,2.611752206719141,2.636538969791032,149.98521709087782,59.79218703364177,126.39556337472612,140.05387323744077,222.62795894988085,206.24607616287844
2.669336002669336,2.611752206719141,2.636538969791032,154.22109274861114,59.64990284901433,126.59648050293366,140.26779858571908,222.60922549221573,205.97485280577936
2.702702702702702,9.185436578368224,2.636538969791032,158.73070120356184,60.04991090994243,126.81820885271068,140.53924754555612,222.5474715610144,205.6943126879537
2.736069402736069,17.68700816816104,2.636538969791032,163.7314305187397,60.63320580485397,127.0076316250211,140.8452208943496,222.54372371856613,205.4273136277508
2.7694361027694363,28.02190296916227,6.5812968563651815,168.7305589687868,62.15481145008357,127.16599617501252,141.16615146519095,222.568353449826,205.163028102996
2.802802802802803,39.81512511686879,10.937011227000806,172.02105824329183,65.34328268208085,127.22398050350174,141.4517532065028,222.702047693367,204.9708542506032
2.836169502836169,53.11389879625146,15.475249575628162,170.25934770386343,69.65844885048772,127.21890411355132,141.73157321285393,222.89076007612223,204.83560750579267
2.8695362028695364,67.49920053225006,20.167426809949525,171.82759777257573,70.85310653489313,127.3414047547247,142.00099176913048,223.1162182982665,204.74967482784308
2.902902902902903,82.75808497515085,24.922697651294875,173.14635352978252,72.05275122172635,127.48718791974032,142.23933112195104,223.37027082797923,204.71387063497707
2.9362696029362696,98.64818364829377,29.79651624292377,174.00608022199327,73.37295599042525,127.68977865038738,142.4578220797262,223.705700950403,204.6698361478662
2.9696363029696364,115.1750993580886,34.62631728968263,174.1702404054188,74.67884125115356,127.90159373609758,142.6442171381561,224.03024352852003,204.66500585107912
3.003003003003004,131.7828201495413,39.48130603019925,173.84721152211216,75.86921535228365,128.14680507748415,142.81940945619468,224.33239031183533,204.68348371364056
3.0363697030363697,148.42790355327566,44.39081804257323,173.30966596082914,77.01231416433987,128.4336312157142,142.97977246724884,224.6386601424222,204.73675676142616
3.0697364030697365,164.38629970436736,48.99434321689407,172.68119625046486,77.45568158353612,128.73943064137598,143.13594195404997,224.93397947842573,204.81591546557675
3.103103103103104,180.00271904083013,53.38277641346047,171.8246834064089,77.82661006042024,129.04291461489194,143.27501594893135,225.2230600646832,204.92145022302145
3.1364698031364697,195.4367030546832,57.5133961770335,170.90182688019166,76.7956882399244,129.23861641876587,143.3902215712999,225.45178601790303,205.0339872606036
3.169836503169837,210.275135088482,61.36711557512147,170.1396947532237,74.2217039457192,129.3957946014356,143.50741508876362,225.60914560954532,205.1026445506166
3.2032032032032034,224.4201931308356,64.62447359035943,168.92521710392526,74.46921440366512,129.50825658928616,143.61138567368758,225.69772877204392,205.1631851620804
3.2365699032365702,237.20848992555352,67.65985379824168,167.3426498221095,75.02361821108803,129.56919812515542,143.73363965365394,225.71915624570696,205.1444223467768
3.2699366032699366,248.89629136843143,70.3660481888659,167.13193560116378,75.36097910492228,129.6381568905575,143.81999895078513,225.67899365980503,205.1417339194004
3.3033033033033035,259.1486797601871,72.835389502385,167.020549401907,75.30150799860002,129.71800928270125,143.89949054492172,225.5709590700247,205.11104685223336
3.3366700033366703,267.72667977897913,66.69654750526288,167.11869853713344,74.41899392507877,129.8203685992101,143.9591460227095,225.4132245302229,205.13357336945504
3.3700367033700367,274.8863477199449,70.50118167907016,167.1901558509046,74.4749239205562,129.9086670827276,144.02498586627758,225.31454046096908,205.1155493056093
3.4034034034034035,280.2788278217858,73.78650792297381,167.11647431030426,74.0172628509885,129.9762812148322,144.04558760806208,225.2071054282446,205.15724010754732
3.4367701034367704,283.58927781555974,76.40628284890717,167.13407185116571,73.65763533674442,130.0234296783226,144.07164478663415,225.17590365978293,205.2355987841776
3.4701368034701368,285.39633852087286,78.67823018317107,167.40219339325316,73.38065819925183,130.03990117502497,144.03064460053045,225.2024297594379,205.4212652862928
3.503503503503504,285.2986017423505,80.38015499283074,168.63159494209305,73.18440301401134,129.9974724663054,143.8997605018546,225.318550510928,205.7052953563621
3.5368702035368704,283.1689404442181,82.10353305095839,169.54676976662202,72.15949300658173,129.92025147863427,143.69261164675717,225.4258197496616,206.105725651642
3.5702369035702373,279.1317777990574,83.3937100311208,168.33745509358786,71.54157111744696,129.63807728924124,143.34513367918697,225.50723415695225,206.6095808026324
3.603603603603604,272.776538355656,84.43336515116474,168.25043948630758,70.58159382810608,129.38328847838568,142.93093350870467,225.55218275325785,207.2397348342256
3.6369703036369705,263.9712922557157,85.0072613551789,172.20537893046796,68.65124898226995,129.11904730430376,142.4853617979261,225.6845264461833,208.0008159843432
3.670337003670337,263.48341484160585,85.06724732829457,174.5350591340925,67.26158269447951,128.91300590212737,142.03136818562865,225.7206411857275,208.83234687630693
3.703703703703704,262.9568470614254,84.72581533756018,175.67931833195323,66.67514736719524,128.71258201090944,141.56747579871703,225.68370395544707,209.7030592559725
3.737070403737071,262.3049507859423,83.86182521217717,175.75456557350918,66.51225541511667,128.57980125862716,141.14146838937654,225.5236875917774,210.582548090982
3.770437103770437,261.64060406803554,75.01837557030863,166.9117006595145,64.77982892799011,128.41511441195286,140.68630272551297,225.32661562818308,211.56073078568352
3.803803803803804,261.2119923636492,67.9556767598161,159.58366701557495,63.61804993446977,128.33516900798062,140.25610639660084,225.04085196861283,212.5966699650328
3.8371705038371706,260.69847604506293,62.28592638174007,157.5711548065446,62.56218922660806,128.30080877311894,139.9003306722671,224.8172039877745,213.63401435606605
3.8705372038705375,260.2555734088566,58.70857005218553,156.2122975361121,62.00593883237425,128.39653719934174,139.61531766767854,224.4627778294804,214.6591478029289
3.903903903903904,268.535776591649,76.17148597589403,155.04066054712226,61.77519969693566,128.83393999071097,139.51767733244435,223.81937500632824,215.7096703369007
3.937270603937271,274.3859268446008,84.66314567952682,154.10655605416576,62.04080192255656,129.4151231895233,139.48963590831514,223.02262908011312,216.77230264026525
