Time,Left Shoulder Angle,Right Shoulder Angle,Left Elbow Angle,Right Elbow Angle,Left Hip Angle,Right Hip Angle,Left Knee Angle,Right Knee Angle
0.0,6.044394690082444,1.2585992678635431,177.38346812644758,172.2200881853924,163.91822218297264,207.1926826606104,185.8791806247001,180.19372988620464
0.033288948069241,5.989417111125328,1.2585992678635431,177.49787166850692,172.3866902807348,164.73342778444945,208.1074020385452,185.17519165654448,179.4579503842011
0.066577896138482,5.924020528354252,1.2585992678635431,177.62203997688607,172.54483085996426,165.4348431586326,208.87886866832528,184.54766831325963,178.830462616928
0.099866844207723,5.850109005095219,1.2585992678635431,177.75694372259082,172.6969256498345,166.028024194033,209.5152783597768,183.9933736419053,178.30508705088306
0.133155792276964,5.769586604674235,1.2585992678635431,177.90355357662685,172.84539037709916,166.51852677916176,210.0248269227257,183.5090706895412,177.87564415256392
0.166444740346205,5.684357390417303,1.2585992678635431,178.0628402099999,172.9926407685119,166.9119068025298,210.41571016699828,183.0915225032268,177.53595438846818
0.1997336884154461,5.596325425650431,1.2585992678635431,178.2357742937157,173.14109255082644,167.21372015264816,210.6961239024206,182.7374921300218,177.2798382250935
0.2330226364846871,5.50739477369962,1.2585992678635431,178.42332649877997,173.2931614507964,167.42952271802784,210.8742639388188,182.44374261698587,177.10111612893755
0.2663115845539281,5.419469497890876,1.2585992678635431,178.62646749619842,173.45126319517544,167.5648703871798,210.95832608601893,182.2070370111786,176.99360856649793
0.2996005326231691,5.334453661550205,1.2585992678635431,178.8461679569768,173.61781351071727,167.62531904861507,210.9565061538472,182.0241383596597,176.95113600427229
0.3328894806924101,5.25425132800361,1.2585992678635431,179.0833985521208,173.79522812417554,167.61642459084467,210.8769999521297,181.8918097094888,176.96751890875828
0.3661784287616511,5.180766560577096,1.2585992678635431,179.33912995263617,173.98592276230394,167.5437429023795,210.7280032906925,181.80681410772544,177.03657774645353
0.3994673768308922,5.115903422596668,1.2585992678635431,179.61433282952862,174.19231315185613,167.41282987173074,210.5177119793618,181.7659146014294,177.1521329838557
0.4327563249001331,5.06156597738833,1.2585992678635431,179.9099778538039,174.41681501958573,167.22924138740922,210.25432182796368,181.7658742376602,177.3080050874624
0.4660452729693742,5.019658288278088,1.2585992678635431,180.2270356964677,174.6618440922465,166.998533337926,209.9460286463243,181.8034560634776,177.49801452377127
0.4993342210386152,4.992084418591945,1.2585992678635431,180.56647702852567,174.92981609659202,166.7262616117921,209.60102824426968,181.87542312594107,177.71598175928
0.5326231691078562,4.980748431655908,1.2585992678635431,180.9292725209838,175.22314675937605,166.4179820975185,209.22751643162607,181.9785384721104,177.9557272604862
0.5659121171770972,4.987554390796015,1.2585992678635431,181.31639284484905,175.54425180735345,166.07925068361746,208.8336890182213,182.1095651490466,178.21107149388894
0.5992010652463382,4.958067980836468,1.2585992678635431,181.8372120187132,175.95013662976697,165.66140648020314,208.47375940504057,182.3556071207658,178.46947750132287
0.6324900133155793,4.958067980836468,1.2585992678635431,182.2502940273844,176.4523300164031,165.2752785926001,208.1477283748389,182.5654693428272,178.68953612174792
0.6657789613848203,4.958067980836468,1.2585992678635431,182.67619499888576,177.03454382985157,164.90816729936424,207.8422123674477,182.7535116534829,178.880088571869
0.6990679094540613,4.958067980836468,1.2585992678635431,183.11808471490045,177.57499509321062,164.54059751278797,207.58185387080823,182.939461792936,179.0346625450143
0.7323568575233023,4.958067980836468,1.2585992678635431,183.65477855257345,178.15162200909603,164.16730803930307,207.3429380017773,183.1350390021728,179.16913897839424
0.7656458055925434,4.958067980836468,1.2585992678635431,184.4707190553488,178.80288576770286,163.74961073430515,207.0999194573048,183.3503650981599,179.29216224796212
0.7989347536617843,4.958067980836468,1.2585992678635431,185.3021049468812,179.44932102767484,163.33639445417936,206.85579168739025,183.5733313848864,179.41464929528266
0.8322237017310253,4.958067980836468,1.2585992678635431,186.0568747670282,180.00662150372773,162.9554009996664,206.6574921491569,183.80408663578595,179.49516299964012
0.8655126498002663,4.958067980836468,1.2585992678635431,186.7695406893925,180.5678351876391,162.619636346846,206.4828933942799,184.02633448506964,179.5521758345205
0.8988015978695074,4.958067980836468,1.2585992678635431,187.46875720346,180.9809338574385,162.31464010942184,206.3263442579444,184.24849549976383,179.59330496814312
0.9320905459387484,4.958067980836468,1.2585992678635431,188.15157747731328,181.441599045294,162.0723954989867,206.1920833932844,184.4387256268538,179.61944994023085
0.9653794940079894,4.958067980836468,1.2585992678635431,188.88222994423205,181.8442309750464,161.8874300178473,206.10687128607805,184.5855310298208,179.61942023253926
0.9986684420772304,4.958067980836468,1.2585992678635431,189.67523908479592,182.363300116996,161.74587963077184,206.04209790362205,184.7092981797169,179.60726828415113
1.0319573901464714,4.958067980836468,1.2585992678635431,189.90187154217412,182.8233768616631,161.63937154203504,205.99077911140083,184.798831161924,179.59687855481678
1.0652463382157125,4.958067980836468,1.2585992678635431,189.99384284894987,183.3308934199744,161.58862156833803,205.9340772103953,184.8360554222922,179.6055322232014
1.0985352862849536,4.958067980836468,1.2585992678635431,189.88853506305125,183.7982388722648,161.59043777387907,205.8738563099256,184.841908411768,179.6304803478755
1.1318242343541944,4.958067980836468,1.2585992678635431,189.79253968996247,184.3779289597496,161.65937690682546,205.8418648627899,184.8010801181904,179.64591239587895
1.1651131824234355,4.958067980836468,1.2585992678635431,190.28112462145447,184.96532140660952,161.7732360118191,205.84754440159776,184.72468566803423,179.63671476011112
1.1984021304926764,4.958067980836468,1.2585992678635431,190.8652800022701,185.6309180818882,161.94111103102836,205.8665346197581,184.6181373951058,179.62527040379223
1.2316910785619175,4.958067980836468,1.2585992678635431,191.4197698924877,186.14112329087075,162.16288782523608,205.8993392989966,184.48200932881463,179.607597616579
1.2649800266311586,4.958067980836468,1.2585992678635431,191.9362080664663,186.776597019118,162.44130849582524,205.926720706885,184.3206175629668,179.58197705758712
1.2982689747003997,4.958067980836468,1.2585992678635431,192.3524634948108,187.7758515322049,162.78783791219809,205.96810424994564,184.1365915220383,179.54395336126854
1.3315579227696406,4.958067980836468,1.2585992678635431,192.70927412719337,189.7658572235437,163.21102149968257,205.9818695738806,183.91282467851929,179.50796376190965
1.3648468708388817,4.958067980836468,1.2585992678635431,193.1383021208156,189.900169752604,163.7356242937932,205.9724718150597,183.61523533186173,179.4672459320744
1.3981358189081226,4.958067980836468,1.2585992678635431,193.5759599148837,190.30588844270665,164.2971696662309,205.89543208655644,183.27346787232344,179.44947239699556
1.4314247669773636,4.958067980836468,1.2585992678635431,193.6808352972668,190.8624064655832,164.84716715238727,205.75292187758043,182.92457312515256,179.4724064678773
1.4647137150466043,4.958067980836468,1.648813977416133,193.8258752527496,191.4583934615928,165.3604887044419,205.5482330426992,182.5926632902299,179.54198822270473
1.4980026631158458,4.958067980836468,1.648813977416133,193.9917449318145,192.08319269650008,165.78987512505407,205.3160846810936,182.2816102983341,179.64149979470372
1.5312916111850867,4.958067980836468,1.648813977416133,194.1575741479302,193.12094468826297,166.20775281906563,205.1262512841808,181.99527581624804,179.73008509137475
1.5645805592543276,4.958067980836468,1.648813977416133,193.9618751767657,193.82982882676524,166.65240685498262,204.95696947653823,181.73782817505665,179.81265300470506
1.5978695073235687,4.958067980836468,1.648813977416133,193.7941614184124,199.14594276319767,167.1092769234096,204.79087501787075,181.5183017403194,179.85995815827255
1.6311584553928098,4.958067980836468,1.648813977416133,193.844587994083,199.69286840107327,167.59459500224213,204.59660943047533,181.29823085924696,179.89661347755904
1.664447403462051,4.958067980836468,1.648813977416133,194.1286668237811,200.4829165369823,168.07908742353166,204.39598990421052,181.0953724657944,179.8876657043168
1.6977363515312918,4.958067980836468,1.648813977416133,194.34034495640327,204.23702432601027,168.53692484435066,204.18112080610777,180.93242485437983,179.85266842089493
1.7310252996005326,4.958067980836468,1.648813977416133,195.802178098682,207.03960133746017,168.94194905871058,203.9705822538227,180.7979985661228,179.78709837155367
1.7643142476697735,4.958067980836468,1.648813977416133,196.93888441532016,209.03161949966912,169.28256842993613,203.75453239893343,180.70426452221616,179.68680430706587
1.7976031957390148,4.958067980836468,1.648813977416133,197.79693142162247,210.29977304603128,169.57505048013545,203.5039767582593,180.6477238679531,179.57536567603117
1.830892143808256,4.958067980836468,1.9929792959449253,198.4833723306239,212.4055530065148,169.80837289880924,203.2399255200384,180.6299596382389,179.47388014933756
1.8641810918774968,4.958067980836468,1.9929792959449253,198.90644785536503,212.8008448269631,169.98133285327887,202.9199839960182,180.6396149118817,179.3895114513722
1.897470039946738,4.958067980836468,1.9929792959449253,199.1436899698112,213.90367553685428,170.1338604339427,202.57043803646823,180.6721537398769,179.30588618703044
1.9307589880159788,4.958067980836468,1.9929792959449253,198.71348092052628,215.92253889688573,170.31884899085006,202.21723211365668,180.7115903684321,179.2201828969834
1.96404793608522,4.958067980836468,1.9929792959449253,197.89345909409212,216.64186032424405,170.51135334551893,201.8863526980117,180.757366344646,179.1072112689748
1.9973368841544608,4.958067980836468,1.9929792959449253,196.68296121091507,215.77185744647463,170.70711545102824,201.5343628244221,180.7831258924944,179.00851261612578
2.030625832223702,4.958067980836468,1.9929792959449253,195.03448038906103,210.6530305651914,170.89302374137924,201.1862735099048,180.7995196307237,178.91686489517272
2.0639147802929427,4.958067980836468,1.9929792959449253,192.96797394742472,203.89608610260083,171.0972757789552,200.85605073218056,180.7812287172804,178.82439793330798
2.097203728362184,4.958067980836468,1.9929792959449253,190.76005869742468,194.4753475674436,171.3245512608994,200.5118926475377,180.72890050828605,178.7364240429332
2.130492676431425,4.958067980836468,1.9929792959449253,188.09059338129285,184.9613174174219,171.57073184517083,200.1477277164124,180.6467319349384,178.67652019173835
2.163781624500666,4.958067980836468,2.2932924650751065,185.03966483361768,176.01210693670168,171.81278254396847,199.7989394810608,180.53003924538672,178.6522509024333
2.197070572569907,4.958067980836468,2.2932924650751065,182.2484283868456,167.3131043314415,172.06014735036652,199.47132162142063,180.3908429025012,178.6478992972974
2.230359520639148,4.958067980836468,2.2932924650751065,179.5298981249896,158.52341617710286,172.32995017665328,199.1905657902323,180.2232567604727,178.63386292772395
2.263648468708389,4.958067980836468,2.2932924650751065,177.03363832187014,150.18027750913024,172.60654762252153,198.96518681606412,180.01871068105905,178.6051310276334
2.29693741677763,4.958067980836468,2.2932924650751065,174.48064744688173,142.08427198490418,172.87447368873873,198.80215662898868,179.79081444308434,178.5478455174512
2.330226364846871,4.958067980836468,2.2932924650751065,171.3537125535581,134.83923647613966,173.15473335960553,198.6876648076933,179.5378239166449,178.48578164139923
2.363515312916112,4.958067980836468,2.2932924650751065,168.1989546471565,128.88572272559637,173.4704060549187,198.626359991852,179.1974915115844,178.3980911266235
2.396804260985353,4.958067980836468,2.2932924650751065,164.94970086189673,123.72858732224306,173.8068359319067,198.608660593196,178.8255555686208,178.30404418517713
2.430093209054594,4.958067980836468,2.55195072643186,161.6705387636647,119.24467240051322,174.1356091068347,198.615213115374,178.45144053693932,178.21715139654216
2.463382157123835,4.958067980836468,2.55195072643186,158.4528612218686,115.0480952518757,174.4323589970145,198.6084944046324,178.0986620015823,178.15801886484323
2.496671105193076,4.958067980836468,2.55195072643186,155.2272630633383,109.54286425405571,174.75654131118387,198.58733039232288,177.54679060507684,178.23302208413227
2.529960053262317,4.958067980836468,2.55195072643186,152.0137634228267,107.8233223278306,174.8970759838842,198.4684563605936,177.22360824588804,178.27902955405088
2.5632490013315583,4.958067980836468,2.55195072643186,148.70676476164306,106.8541713782296,174.95649694394825,198.4065255604657,177.03779229639267,178.30468482336326
2.596537949400799,4.958067980836468,2.55195072643186,145.59135008644907,106.88800860974624,175.03455641149955,198.45014686074504,176.8813852069299,178.3132017435257
2.62982689747004,4.958067980836468,2.55195072643186,142.9388942674952,107.4753205231197,175.1284651744763,198.57603818494607,176.79033465887665,178.3018634128345
2.663115845539281,4.958067980836468,2.771151321640372,140.25921865302598,107.31190454002336,175.31553567851464,198.7535862359305,176.72894960746407,178.28410213738715
2.6964047936085223,4.958067980836468,2.771151321640372,137.90735720106065,108.50868049249868,175.51129561185738,198.9659771071555,176.72955387467275,178.26112588056
2.729693741677764,4.958067980836468,2.771151321640372,136.12280172413395,111.85236710539525,175.5944869449195,199.14324559588863,176.82920643224875,178.2871650143107
2.762982689747004,4.958067980836468,2.771151321640372,134.8699611689021,110.60463609948178,175.62911237511526,199.4089578613968,176.9857654579299,178.26580154088543
2.796271637816245,4.958067980836468,2.771151321640372,133.88242581146216,114.97453241505134,175.64379679922408,199.7837046039312,177.18045125139216,178.1242089610181
2.829560585885486,4.958067980836468,2.771151321640372,133.35193667451531,120.63293041679692,175.6288136494451,200.2143948310568,177.4383175533175,177.9348622367603
2.862849533954728,4.958067980836468,2.953091492325827,133.44376425407802,124.10683964686888,175.58617275905263,200.72301344055447,177.7340022971247,177.65368060295822
2.8961384820239684,4.958067980836468,2.953091492325827,132.5591666340708,128.41925580942927,175.57322399292966,201.3058215627196,178.0764046750958,177.34837890718995
2.929427430093209,4.958067980836468,2.953091492325827,132.0329360434463,132.4251753734693,175.646789645616,201.8730385463759,178.44958831201723,176.99304961466632
2.96271637816245,4.958067980836468,2.953091492325827,131.8950100894095,137.26691140151578,175.73309055569968,202.48172104653293,178.85162938056888,176.65709680941683
2.996005326231692,4.958067980836468,2.953091492325827,130.22604980128762,136.39880361747066,175.9122305035368,203.14430069186432,179.2370682904271,176.256987922933
3.0292942743009323,4.958067980836468,3.09996848011341,129.21303968717598,137.42494698645157,176.12543560824068,203.8462052953699,179.6516298904026,175.94936698749706
3.0958721704394145,4.958067980836468,3.09996848011341,128.66796309286468,137.68538092966122,176.35910580144704,204.508149370127,180.07610251072023,175.65337441445473
3.129161118508655,4.958067980836468,3.09996848011341,128.7058780191598,135.43553144667456,176.5650854070663,205.25486224455133,180.5410034858892,175.4619359737503
3.1624500665778963,4.958067980836468,3.213979526628308,129.39495809008673,136.46575310261062,176.76217135805248,205.94075441277928,181.06168370820168,175.2461917156903
3.1957390146471374,4.958067980836468,3.213979526628308,130.81533708177818,134.96257463756487,176.8801059012678,206.5938320965217,181.63966037926377,175.18881975134184
3.2290279627163785,4.958067980836468,3.213979526628308,132.80820799898905,135.113861085184,176.89992653062092,207.1263610660581,182.2720718164596,175.22089171648372
3.26231691078562,4.958067980836468,3.297321873495703,135.36710413968106,133.77714959734334,176.85403620569366,207.5819463357365,182.9168363037544,175.48274177368475
3.29560585885486,4.958067980836468,3.352192762340782,138.28578409008796,131.69559428586066,176.72602755980662,208.04975051565816,183.5903450724892,175.88959032550824
3.3288948069241013,4.958067980836468,3.380789434788731,141.6081289606748,130.53853868389035,176.5535788418448,208.50944905074468,184.25872946517853,176.5334421267723
3.3621837549933424,4.958067980836468,3.385309132464733,145.56669852039727,129.5496636797041,176.33930913791227,208.98044053499345,185.02897302410443,177.33405793381107
3.3954727030625835,4.958067980836468,3.3679490969939745,149.68327571758186,129.07447354833366,176.19134157903346,209.49920630779792,185.710310050777,178.275958082871
3.4287616511318246,4.958067980836468,3.3309065700016403,154.07227647550022,129.78084539066364,176.00537997766392,210.00931876039988,186.361394544518,179.35557322076886
3.4620505992010653,4.958067980836468,3.276378793112916,158.40541947857935,131.06694971778043,175.82427016812557,210.5519968376653,186.9398829891936,180.54876376005885
3.4953395472703064,4.958067980836468,3.2065630079529868,163.11273940818998,133.22531446937847,175.43000642732645,211.1029714108735,187.70465630467532,181.8883103770594
3.5286284953395475,4.958067980836468,3.123656456147057,167.75065202264364,135.64229585939728,175.0942330572767,211.62177780210124,188.28457320208403,183.3735632313502
3.561917443408789,4.958067980836468,2.9310395413674324,172.26060180931125,137.64469374126438,174.71681764478035,212.0585996398076,188.69887060652755,185.0418084659004
3.5952063914780297,4.958067980836468,2.700011215636237,176.4220138380336,139.7038737518402,174.43672828148286,212.44233649101332,188.96641644899995,186.8197103706497
3.628495339547271,4.958067980836468,2.497745562520364,180.56316616175025,141.3884981997909,174.27085101801762,212.801418874172,188.9149856047501,188.67201818492745
3.661784287616512,4.958067980836468,2.3228015176777794,184.00941666353933,143.14128903279368,174.3215562905377,213.1635570671305,188.6446728924305,190.55521061295423
3.695073235685753,4.958067980836468,2.1940802470549983,186.96268782771372,146.15279914695088,174.5184167237717,213.58441109852308,188.4451560939857,192.2777117015813
3.7283621837549936,4.958067980836468,2.004812908923671,189.1996742095173,147.786239899454,174.9940753530205,214.1648029732582,188.00747245164047,193.95976925182893
3.7616511318242334,4.958067980836468,1.8817000352192657,191.0837749392664,148.89139208196843,175.68110587348136,214.9395489895532,187.3363562534789,195.61507667807723
3.794940079893476,4.958067980836468,1.821896376436377,192.4664602104598,149.13884219102096,176.5288556268316,215.67393082744616,186.5658815134834,197.1898462441891
3.828229027962717,4.958067980836468,1.8486433432143008,193.09810999967888,148.38574389310224,177.4560828723057,216.3185329513969,185.68491361478044,198.63619780047765
3.8615179760319576,4.958067980836468,1.9060806209633503,193.32743334939747,149.61125049962905,178.46002744499083,216.9222142808512,184.7731437354808,199.921234520384
3.894806924101199,4.958067980836468,2.057039422639213,193.13061105729224,150.6315494635086,179.61682879163575,217.6643957250552,183.82554100926544,200.9863137612448
3.92809587217044,4.958067980836468,2.1916887541266576,192.44269701366176,151.66278718604835,180.99322604543613,218.4678758759058,182.79067296399504,201.75804105305
3.961384820239681,4.958067980836468,2.46676064391284,191.4436077697818,153.4312532423223,182.56656637882,219.23406053282395,181.70627328090416,202.2975392897172
