Time,Left Shoulder Angle,Right Shoulder Angle,Left Elbow Angle,Right Elbow Angle,Left Hip Angle,Right Hip Angle,Left Knee Angle,Right Knee Angle
0.0,11.121740268098891,73.8874634715254,166.46553203432595,169.75185877729265,127.63691833421042,138.49264544096138,206.3587765625078,192.72485386449583
0.0333667000333667,7.685024542636947,50.21960243921657,160.69909436149248,174.53036157475117,130.62708089592044,138.09333090384536,200.79318556094245,192.61097874183795
0.0667334000667334,5.829998847600768,31.72782000908673,154.84438300888365,177.29247089559885,133.19355574384608,137.82190078808696,196.0581950222798,192.32781550739537
0.1001001001001001,5.421521153534198,18.038402209114302,148.9464369311543,178.20209499496625,135.3612375502181,137.6675314770671,192.1055267622229,191.8968197512596
0.1334668001334668,6.3244494309810815,8.777635067277714,143.0502950829593,177.4231421279842,137.1550209872673,137.6193993541665,188.8869025964749,191.339447063522
0.1668335001668335,8.403641650485264,3.5718046115553648,137.2009964189535,175.11952054978337,138.59980072722456,137.66668080276605,186.3540443407388,190.67715303427423
0.2002002002002002,11.52395578259059,2.0471968699257133,131.4435798937918,171.45513851549438,139.72047144232056,137.7985522062466,184.45867381071767,189.93139325360772
0.2335669002335669,15.550249797840904,3.830097870367183,125.823084462129,166.59390428024804,140.5419278047861,138.00418994798898,183.1525128221146,189.12362331161412
0.2669336002669336,20.34738166678005,8.54679364085817,120.38454907861998,160.69972609917497,141.08906448685204,138.27277041137398,182.3872831906327,188.2752987983849
0.3003003003003003,25.78020935995187,15.82357020937711,115.1730126979196,153.9365122274059,141.3867761607491,138.59346997978247,182.114706731975,187.40787530401147
0.333667000333667,31.71359084790022,25.286713603902434,110.23351427468272,146.46817092007151,141.4599574987081,138.95546503659529,182.28650526184447,186.54280841858545
0.3670337003670337,38.01238410116894,36.56250985241256,105.61109276356424,138.45861043230252,141.33350317295984,139.34793196519325,182.85440059594444,185.70155373219825
0.4004004004004004,44.541447090301865,49.27724498288595,101.35078711921896,130.07173901922965,141.03230785573507,139.7600471489572,183.77011454997773,184.90556683494148
0.4337671004337671,51.16563778584285,63.057205023301,97.49763629630176,121.47146493598348,140.58126621926465,140.18098697126797,184.9853689396476,184.1763033169066
0.4671338004671338,57.74981415833572,77.52867600163606,94.09667924946748,112.82169643769484,140.00527293577932,140.59992781550636,186.4518855806569,183.5352187681852
0.5005005005005005,64.15883417832434,92.31794394586974,91.192954933371,104.2863417794944,139.32922267750988,141.00604606505328,188.1213862887089,183.00376877886865
0.5338672005338673,70.25755581635256,107.05129488398023,88.83150230266718,96.02930921651284,138.57801011668712,141.38851810328947,189.9455928795065,182.60340893904856
0.5672339005672339,75.91083704296473,121.35501484394766,87.05736031201162,88.21450700388175,137.7765299255429,141.7365203135971,191.87622716875464,182.3555948388179
0.6006006006006006,78.35218070299622,127.1352599225682,87.32964625694785,87.51759674248262,137.36696775152257,142.2028938602193,193.17604739712672,182.97088529118403
0.6339673006339673,79.53356333035876,131.47825860494342,89.02398590101225,86.11686105348258,136.79731263133877,142.42919714707236,194.5199548101669,183.8753281963969
0.6673340006673341,79.770286367317,134.4120843924248,92.16878091224866,85.27175627220927,136.11657827487025,142.40270249296498,195.98121229380587,185.02978146302453
0.7007007007007008,79.53928703909578,136.7333855648542,95.00199360930982,84.30638264233703,135.45491866821624,142.28732965089011,197.35952159857976,186.145160486064
0.7340674007340674,78.42020874094793,138.27441777704274,99.15662000092856,83.56261227253117,134.7903730793821,141.91572557473958,198.83374774702503,187.57405607684265
0.7674341007674341,76.0493615485985,138.4246804613948,102.6397045061096,81.00193868001853,134.14988415540523,141.31158521418084,200.3299460510824,189.15056756126708
0.8008008008008008,72.7565595281365,128.95110098428285,107.35141149341295,76.95760978554773,133.6289909352615,140.43897958765734,201.6510732699166,190.86746759768752
0.8341675008341676,69.08601558133975,130.44227216532835,111.45196837402143,74.924311941999,133.24671505025125,139.42765966493118,202.7883316602775,192.7018057739012
0.8675342008675342,65.21597441707061,130.82487529366793,112.26345574266884,69.2301718157176,132.91472621308492,138.45141473208614,203.7728737935076,194.5579511894579
0.9009009009009008,53.22557793118764,129.3663568012278,117.68299259083054,67.67030978183166,132.86387272689944,137.54575826381716,204.41042593861903,196.39259731496395
0.9342676009342676,51.353590581426765,126.2098600159482,122.78065702332816,68.26871024830503,133.1477946867704,136.76623307207743,204.1315224910537,198.2701763889456
0.9676343009676344,50.46556150769195,121.0875196484125,128.2898246472518,68.30032080832335,133.8294204001441,136.05443585919087,203.67399406559176,200.1132691435713
1.001001001001001,49.48382068589368,114.5429223578416,134.17978206816989,71.03586885023917,134.76863221378588,135.64619121304133,203.1675923092297,201.97280492912355
1.0343677010343677,48.59240359144019,106.45186403968772,134.2572335335991,75.2206306064605,135.7904479260174,135.32689597090916,202.5484522462384,203.64476589789376
1.0677344010677343,46.89431333332578,96.34684061099112,133.80032913503467,84.48845699949308,137.0304759997513,135.30954379839253,201.82394268021383,205.1803793557669
1.1011011011011012,44.68337026947749,83.64882607810966,130.4466410564987,88.05666653410314,138.40611883507896,135.3924952768213,200.7775803774384,206.434021799248
1.1344678011344678,43.7022837160804,69.62301571014937,124.5531966663772,92.42195268509764,140.00959814811526,135.69218313694446,199.42834555585995,207.51511396801425
1.1678345011678346,43.28309700864848,54.17544503686336,117.60319409768802,97.12050101364191,141.97383821693444,136.25597322783076,197.7691918687968,208.3467446855858
1.2012012012012012,40.16691548067052,38.07874492090633,111.17932870817522,105.18665496678992,144.22588335739374,137.02249256168795,196.0333091514368,208.88414491890444
1.234567901234568,38.289952810233125,33.61762753598292,104.48438545637502,108.00234525276043,146.84311068682857,137.981524312115,194.39763878881823,208.6226469074928
1.267934601267935,45.40891185564996,30.62462565389211,95.41917737260412,114.17372561576308,149.29243634091705,139.26895471561377,192.9100598148941,207.69958323686592
1.3013013013013013,52.755927041283314,28.32865561306295,86.38801755879138,120.65599552178806,151.7932360996597,140.6899032334121,191.4013163618456,206.4904431725533
1.334668001334668,60.06080056040344,26.63799183863233,77.60831309081055,127.4051389427796,154.3218064175289,142.23045269233353,189.88413594097776,205.00766609021176
1.3680347013680347,67.05333460628174,25.460908755738306,69.2974710445359,134.37713985068265,156.854443748998,143.87668591920243,188.37124606359785,203.2636913654996
1.4014014014014016,73.46333137218946,24.705680789518937,61.67289849584158,141.52798221744206,159.36744454854033,145.61468574084327,186.8753742410127,201.2709583740752
1.4347681014347682,79.02059305139792,24.280582365112224,54.95200252060183,148.8136500150028,161.83710527062937,147.4305349840805,185.4092479845293,199.041906491597
1.4681348014681348,83.45492183717855,24.09388790765638,49.35219019469087,156.1901272153096,164.2397223697384,149.3103164757386,183.98559480545467,196.58897509372343
1.5015015015015016,86.49611992280282,24.0538718422894,45.09086859398292,163.61339779030743,166.55159230034087,151.24011304264195,182.61714221509573,193.9246035561129
1.5348682015348682,87.87398950154196,24.06880859414932,42.3854447943523,171.0394457119412,168.74901151691014,153.20600751161504,181.3166177247596,191.06123125442383
1.5682349015682349,87.31833276666731,24.04697258837425,41.45332587167315,178.42425495215582,170.8082764739196,155.1940827094823,180.09674884575298,188.01129756431465
1.6016016016016017,84.55895191145046,23.896638250102285,42.51191890181979,185.7238094828961,172.70568362584254,157.19042146306822,178.97026308938308,184.78724186144368
1.6349683016349683,79.32564912916257,23.52608000447128,45.77863096066615,192.894093276107,174.4175294271525,159.1811065991972,177.94988796695682,181.4015035214694
1.6683350016683351,71.34822661307521,22.843572276619625,51.47086912408674,199.8910903037334,175.92011033232268,161.1522209446937,177.04835098978117,177.86652192005027
1.7017017017017018,60.35648655645932,21.757389491685103,59.80604046795592,206.67078453772,177.18972279582658,163.08984732638217,176.2783796691631,174.19473643284456
1.7350684017350684,46.08023115258695,20.175806074805905,71.00155206814759,213.189159950012,178.20266327213756,164.9800685710871,175.6527015164096,170.3985864355108
1.7684351017684352,28.249262594729004,18.007096451120162,85.27481100053618,219.402200512554,178.93522821572896,166.80896750563284,175.1840440428276,166.49051130370736
1.8018018018018016,6.593383076156584,15.15953504576578,102.8432243409957,225.2658901972912,179.3637140810742,168.56262695684393,174.88513475972414,162.48295041309268
