Time,Left Shoulder Angle,Right Shoulder Angle,Left Elbow Angle,Right Elbow Angle,Left Hip Angle,Right Hip Angle,Left Knee Angle,Right Knee Angle
0.0,1.3900433135987296,0.675286168547193,188.9953055293471,166.16616040561485,164.39353738852245,214.11547793941327,183.4981804956152,177.21897563058835
0.0333667000333667,1.3107223170472702,0.675286168547193,187.6807855876606,166.8791406572941,164.4145919491928,213.81190376544623,183.3243793644701,177.51620258600536
0.0667334000667334,1.2526245622229748,0.675286168547193,186.48950983014444,167.5080585266094,164.44917110488495,213.56565492287223,183.16133089596,177.77024387315697
0.1001001001001001,1.2139658465406034,0.675286168547193,185.41725440624225,168.05706026361443,164.49642861681522,213.37312598015788,183.008487484902,177.98352470857844
0.1334668001334668,1.192961967414916,0.675286168547193,184.4597954653978,168.53029211836278,164.5555182462,213.23071150576985,182.86530152611297,178.15847030880508
0.1668335001668335,1.1878287222606727,0.675286168547193,183.6129091570548,168.93190034090816,164.62559375425562,213.13480606817467,182.73122541441,178.29750589037215
0.2002002002002002,1.1878287222606727,0.675286168547193,182.8723716306569,169.26603118130413,164.70580890219853,213.08180423583897,182.60571154461016,178.40305666981493
0.2335669002335669,1.1878287222606727,0.675286168547193,182.233959035648,169.5368308896044,164.79531745124504,213.0681005772294,182.4882123115304,178.4775478636687
0.2669336002669336,1.1878287222606727,0.675286168547193,181.69344752147163,169.74844571586257,164.89327316261154,213.0900896608125,182.37818010998785,178.52340468846876
0.3003003003003003,1.1878287222606727,0.675286168547193,181.2466132375717,169.90502191013232,164.9988297975144,213.1441660550549,182.27506733479945,178.54305236075038
0.333667000333667,1.1878287222606727,0.675286168547193,180.88923233339173,170.0107057224673,165.11114111716998,213.22672432842327,182.17832638078212,178.53891609704883
0.3670337003670337,1.1878287222606727,0.675286168547193,180.6170809583756,170.06964340292106,165.22936088279465,213.3341590493841,182.0874096427532,178.51342111389937
0.4004004004004004,1.1878287222606727,0.675286168547193,180.4259352619669,170.08598120154736,165.3526428556048,213.4628647864041,182.00176951552945,178.46899262783734
0.4337671004337671,1.1878287222606727,0.675286168547193,180.31157139360948,170.06386536839975,165.4801407968168,213.6092361079498,181.920858393928,178.40805585539795
0.4671338004671338,1.1878287222606727,0.675286168547193,180.26976550274705,170.00744215353194,165.611008467647,213.76966758248787,181.84412867276572,178.33303601311653
0.5005005005005005,1.1878287222606727,0.675286168547193,180.2962937388232,169.92085780699756,165.7443996293118,213.94055377848483,181.7710327468599,178.24635831752835
0.5338672005338673,1.1878287222606727,0.675286168547193,180.38693225128176,169.8082585788502,165.87946804302754,214.1182892644074,181.70102301102744,178.15044798516865
0.5672339005672339,1.1878287222606727,0.675286168547193,180.537457189568,169.6737907191449,166.01536747001197,214.2992686087239,181.6335518600868,178.0477302325743
0.6006006006006006,1.1878287222606727,0.675286168547193,180.77426903822823,169.4644957658722,166.17516272230912,214.46446159380176,181.54707180505537,177.9761691903973
0.6339673006339673,1.1878287222606727,0.675286168547193,181.05814210023803,169.29029953294352,166.3335879643737,214.6089410976994,181.4655525847117,177.9128004231924
0.6673340006673341,1.1878287222606727,0.675286168547193,181.3714844743596,169.14802562459434,166.4791006814102,214.7441729410949,181.3964279304644,177.8507116527219
0.7007007007007008,1.1878287222606727,0.675286168547193,181.7262744123504,169.0337609254099,166.60996591455597,214.87260278675987,181.33555256114485,177.78793878079918
0.7340674007340674,1.1878287222606727,0.7845179926802545,182.12685562527616,168.96571714170966,166.72374498107936,214.98737013700944,181.2801662337108,177.7243032023161
0.7674341007674341,1.1878287222606727,0.7845179926802545,182.5862778006088,168.91033292597342,166.82744357084673,215.08616443663732,181.22948725585823,177.6535921264852
0.8008008008008008,1.1878287222606727,0.7845179926802545,183.0958449318512,168.8333362480019,166.92466383482997,215.16651367083097,181.17907948830324,177.57526104770335
0.8341675008341676,1.1878287222606727,0.7845179926802545,183.64642635536552,168.76009664420255,167.0125728778468,215.2371947890865,181.1302998534837,177.4852991805585
0.8675342008675342,1.1878287222606727,0.8860033413001664,184.0406347598761,168.67433508561953,167.0863019407722,215.2789639623554,181.0743402465946,177.4018873849334
0.9009009009009008,1.1878287222606727,0.8860033413001664,184.38745298529005,168.58866770342553,167.14517522414042,215.28435076381447,181.0035605927689,177.33760696687503
0.9342676009342676,1.1878287222606727,0.9797263375016084,184.6732509023888,168.50436587142926,167.1956262147344,215.25889552848608,180.9123654799188,177.28590218046463
0.9676343009676344,1.1878287222606727,0.9797263375016084,184.9191362041944,168.378017824539,167.24135705474842,215.2394009863208,180.80727697426207,177.22625857544762
1.001001001001001,1.1878287222606727,0.9797263375016084,185.16446834095024,168.22385503367687,167.2837516795844,215.21645741747125,180.68785959239025,177.14920504268346
1.0343677010343677,1.1878287222606727,1.06567110437926,185.39161920520056,168.0315890644368,167.329586652928,215.2141471606104,180.5500270194595,177.0542692346378
1.0677344010677343,1.1878287222606727,1.06567110437926,185.61833620514489,167.82783254674004,167.37731665869055,215.21299614138377,180.39823302590744,176.94527119475487
1.1011011011011012,1.1878287222606727,1.06567110437926,185.8148715697924,167.63356664057673,167.42699795081484,215.20922054072088,180.23965984359623,176.83839114650334
1.1344678011344678,1.1878287222606727,1.1438217650278002,186.0154773202825,167.45858753191308,167.47153049503387,215.18698721705107,180.0803972463736,176.74502633531145
1.1678345011678346,1.1878287222606727,1.1438217650278002,186.21981683243172,167.30982033609683,167.5080125212493,215.15438125651204,179.92209276607488,176.65705132292396
1.2012012012012012,1.1967819084926334,1.2141624425419093,186.39585408427007,167.20982458835945,167.53497866772602,215.1165607852366,179.77036791552788,176.56184313676908
1.234567901234568,1.2180373235255584,1.276677260016266,186.55864896322723,167.13269715690572,167.55283079489053,215.07802047854665,179.63160501038683,176.45441620986
1.267934601267935,1.2498107647742076,1.331350340545551,186.69170454399125,167.05047750699973,167.57149171922427,215.0414790217797,179.4987967087962,176.3464712003587
1.3013013013013013,1.290318029653341,1.3781658072244425,186.80141747813545,166.95218106291193,167.58952994618403,215.0006221433162,179.3652517684244,176.2898761715821
1.334668001334668,1.3377749155777183,1.4171077831476206,186.90871697704333,166.86883252701375,167.59704388081582,214.9548017159844,179.23719373952926,176.26596541493183
1.3680347013680347,1.3903972199621002,1.4481603914097647,187.0854655373721,166.79415018504068,167.60688673752225,214.8882215912312,179.11869702673567,176.28726897319646
1.4014014014014016,1.4464007402212464,1.4713077551055544,187.27819371892755,166.69853778724294,167.62733707890536,214.8283454414609,179.00784714103045,176.33421929027477
1.4347681014347682,1.5040012737699169,1.486533997329669,187.480993130636,166.60810788403626,167.6607205819008,214.7619528287714,178.90073572790234,176.39687807142562
1.4681348014681348,1.5614146180228716,1.4938232411767882,187.7088356207569,166.38391499328148,167.67864721759614,214.66458857471932,178.80721960126652,176.4848007445299
1.5015015015015016,1.6168565703948712,1.4931596097415911,187.9779911958206,166.1815616192181,167.68034510560705,214.538005620066,178.7349968096326,176.57588313961656
1.5348682015348682,1.668542928300675,1.4845272261187583,188.2704370226402,165.9301478850135,167.6810481141297,214.38681080791577,178.6751724792956,176.6809731570591
1.5682349015682349,1.714689489155058,1.467910213402982,188.58292474531532,165.83221769063113,167.66209685720733,214.213236868288,178.65202097521524,176.7848363837389
1.6016016016016017,1.721290380532181,1.4512176588954018,188.86665023295384,165.81545099680358,167.62538804811606,214.02344713953497,178.64636273061575,176.8941458208724
1.6349683016349683,1.7009717788239689,1.365760523013896,189.19596469980644,165.94313110583133,167.56342254247775,213.80313708648345,178.68990779867883,177.00534226628528
1.6683350016683351,1.6702230158053024,1.2768443526047997,189.5546770171208,166.1022414086857,167.4982958085885,213.5589894457147,178.7413441897202,177.13787773876393
1.7017017017017018,1.6346798587921303,1.182807390549041,189.8860229576512,166.4953046289277,167.43027182780233,213.32341735117063,178.8036465205982,177.28001271457126
1.7350684017350684,1.5962341946370655,1.0819510961460026,190.2805393554017,167.11731455478738,167.36502983273564,213.11588628754683,178.8696037560435,177.41837321292033
1.7684351017684352,1.5487206568228091,0.9849735735823912,190.5116614274075,167.82466649208504,167.29488323613313,212.9489744709349,178.92764234331875,177.50989240968917
1.8018018018018016,1.4922864495716717,0.8986481796449302,190.6795912930925,168.67643174421548,167.21090535809398,212.81548603614743,178.99172446678992,177.56449231491476
1.8351685018351689,1.4235293239501277,0.8337462115396491,190.78961760459325,169.66159254869652,167.1127797087878,212.70169358592904,179.065815021259,177.61008735630907
1.8685352018685355,1.3354979498443822,0.7804559401767027,190.8480153510128,170.7108443512693,167.00701875144193,212.68094179968773,179.1383743752353,177.558905614707
1.901901901901902,1.2356758598632789,0.7212839773149475,190.7204230728076,171.70499323962864,166.9047531561946,212.68535961521133,179.20300746426676,177.47758743253806
1.9352686019352687,1.142493661219733,0.6543451582254374,190.4260166159771,172.69202378605937,166.81200063154776,212.70742073556747,179.2492150422375,177.38194228271814
1.968635301968636,1.0623511880944625,0.6241879234544212,190.1092672818471,173.76839178147958,166.76549355376295,212.7903177102103,179.26179018382214,177.24372060442977
2.002002002002002,1.0081957635195706,0.6246677989106684,189.7860455441508,174.91175742494164,166.7072506381162,212.8544152122961,179.2782759318435,177.1058718846036
2.035368702035369,0.9653081228754892,0.6535743836198672,189.580621466182,176.0415983507113,166.62451292577896,212.89811475229172,179.30133261513942,176.96877137400406
2.0687354020687354,0.9329658095369116,0.7091710037043262,189.36188259779848,177.08383554903702,166.52490786088163,212.92848329174345,179.3332993948233,176.8260689872981
2.1021021021021022,0.928631893095968,0.7901547038950907,189.3257129203612,178.02940621838,166.42647782615745,212.9479795323857,179.34955923108978,176.6777580240691
2.135468802135469,0.9472228060361286,0.8885306665435877,189.3178345351664,179.00421017892066,166.34518868138747,212.9556371056326,179.33544133435635,176.5170588632349
2.1688355021688355,0.9729506147742352,1.012121235234669,189.2075827508878,179.87662789608174,166.24254703492926,212.92074394938132,179.31170405209053,176.39944870372884
2.2022022022022023,1.0047824155958067,1.1515200951249889,189.2021360474064,180.625052632528,166.12019693251122,212.83062417201805,179.28898366126816,176.3154142932745
2.235568902235569,1.0166641506094314,1.3011562409290482,189.27603130368007,181.3061609995416,165.9889139458179,212.72714466775736,179.27871588060594,176.24769471748996
2.2689356022689355,1.0710615928826237,1.3011562409290482,189.36139818696884,181.90598111415983,165.84643386764185,212.5989580405232,179.26803708757515,176.18892368516822
2.3023023023023024,1.1717026121959742,1.3011562409290482,189.4673627811128,182.42516790063496,165.7040358728804,212.46685910022205,179.24548049214914,176.12583667835264
2.335669002335669,1.3031578318120869,1.3011562409290482,189.5182471329564,182.89275885615012,165.55108176393475,212.32938627891227,179.23975499382237,176.068860770179
2.369035702369036,1.4436731314307387,1.478469006381135,189.6077859351469,183.22342942889685,165.3937672692825,212.2316970028882,179.24364099346462,175.9813856400851
2.4024024024024024,1.4436731314307387,1.478469006381135,189.65662060128625,183.47674434175832,165.25273637378055,212.15257738720788,179.24039738352707,175.90961134720965
2.4357691024357693,1.4436731314307387,1.478469006381135,189.5800981133396,183.65078598939667,165.1151134352648,212.061449861572,179.2277765315118,175.8726248616587
2.469135802469136,1.6039702784074807,1.478469006381135,189.51572287904352,183.80185095205889,164.97363457638866,211.9580141974421,179.21787029214948,175.8211758138235
2.5025025025025025,1.6039702784074807,1.478469006381135,189.5111749313119,183.99724043446545,164.84992888762818,211.85988292860773,179.2070314293555,175.7406874217134
2.5358692025358693,1.6039702784074807,1.478469006381135,189.5361076398725,184.07255799849875,164.75211714182316,211.7665047274692,179.17113309221935,175.6420592877599
2.569235902569236,1.6039702784074807,1.681832721926133,189.5369256904712,183.9737680592272,164.665331119441,211.6599446200874,179.12830549818344,175.51971957089316
2.6026026026026026,1.6039702784074807,1.681832721926133,189.5739885800533,183.84621855966068,164.57671161049947,211.55059224120424,179.07667111481646,175.3713329017969
2.6359693026359694,1.7907546544777282,1.681832721926133,189.6264805383529,183.66390109886612,164.4967119891398,211.4138205356378,179.02647998834487,175.2122241712356
2.669336002669336,1.7907546544777282,1.681832721926133,189.72975655993687,183.55751361834973,164.4495198026115,211.2701129238777,178.96098775672098,175.0481106988629
2.702702702702702,1.7907546544777282,1.681832721926133,189.87492836394287,183.50637656724456,164.4120425037589,211.0977355408616,178.89523021973997,174.87898171794208
2.736069402736069,1.7907546544777282,1.681832721926133,189.92184662534387,183.36815023261275,164.35101218032835,210.8876128231276,178.84668031425957,174.7352535570233
2.7694361027694363,1.7907546544777282,1.897408508325385,190.08378272574475,183.26644438391983,164.29890525433078,210.65867216569245,178.80740922461678,174.59888703952967
2.802802802802803,1.7907546544777282,1.897408508325385,190.26013341899943,183.11909763249645,164.27599594875866,210.4436228998142,178.73995930293626,174.47043892802833
2.836169502836169,1.9788963804136035,1.897408508325385,190.3746052314766,183.1627803370544,164.26556771023843,210.26148002576625,178.667956130146,174.32266236664373
2.8695362028695364,1.9788963804136035,1.897408508325385,190.5353453875968,183.22437716189285,164.28311335627822,210.09850996261204,178.58121420710756,174.17261763505493
2.902902902902903,1.9788963804136035,1.897408508325385,190.4499334802831,183.2327034385393,164.30143428396988,209.898306636988,178.5120578348139,174.03619302014658
2.9362696029362696,1.9788963804136035,1.897408508325385,190.49556533406525,183.30722897132603,164.33272298438868,209.70789000072432,178.45074544485686,173.92459212180862
2.9696363029696364,1.9788963804136035,1.897408508325385,190.5020407069696,183.44785886969933,164.35679906623884,209.5528272891202,178.44893402035376,173.81010297329104
3.003003003003004,1.9788963804136035,2.118326874068372,190.37573952704668,183.6217310215244,164.4078164532644,209.44277599717992,178.43216685954957,173.67487570968277
3.0363697030363697,2.162456550969309,2.118326874068372,190.12354416330385,183.8731288219944,164.4903827359488,209.2816008759468,178.3915606809701,173.60875210058748
3.0697364030697365,2.162456550969309,2.118326874068372,189.91419635218804,184.25577313462605,164.6079243194458,209.1319421367553,178.33576653333589,173.5694941307522
3.103103103103104,2.162456550969309,2.118326874068372,189.87174258943787,184.67797261363023,164.7414316471382,208.9873029000812,178.27330671791975,173.55170657218656
3.1364698031364697,2.162456550969309,2.118326874068372,189.87504025756309,184.96400606710063,164.83554595607666,208.7851784632809,178.22376070613058,173.60131572691972
3.169836503169837,2.162456550969309,2.118326874068372,189.9169750350053,185.2727565437916,164.93429509553022,208.5884851160481,178.15000554261957,173.692257506062
3.2032032032032034,2.35146874242238,2.118326874068372,189.81822883800703,185.57306803969416,165.04056791746163,208.4144495902728,178.04548549821843,173.80543071124566
3.2365699032365702,2.35146874242238,2.3758972877906586,189.9021560293397,186.0081309030846,165.17668986035457,208.25392856506457,177.89367753416954,173.9427138898685
3.2699366032699366,2.35146874242238,2.3758972877906586,189.82086123460536,186.38213982932248,165.3204253531683,208.1061601589388,177.7149022939862,174.1090990599426
3.3033033033033035,2.35146874242238,2.3758972877906586,189.7407340196088,186.7200743319505,165.4336262502469,207.94474753780943,177.53648169906873,174.32308826210024
3.3366700033366703,2.35146874242238,2.3758972877906586,189.81976770728284,187.15011220679216,165.52537762418544,207.8015964448613,177.34707557378843,174.532273109433
3.3700367033700367,2.505981871901516,2.3758972877906586,189.8112050366,187.75437285144025,165.62415266932192,207.69429898945515,177.15022577335438,174.7268261139102
3.4034034034034035,2.505981871901516,2.3758972877906586,189.9008430735824,188.36977272107475,165.71457524684155,207.60508209538065,176.94603938973856,174.9100330768837
3.4367701034367704,2.505981871901516,2.3758972877906586,190.10144704130164,189.03425743701607,165.80670868425622,207.5526993407105,176.74997921839972,175.07017153520155
3.4701368034701368,2.505981871901516,2.3758972877906586,190.45498836805984,189.7804040746497,165.89452319349013,207.5450984659448,176.59382548833426,175.18837173413127
3.503503503503504,2.618732881748507,2.6321058483884427,190.8688869086831,190.61811638291425,165.99520948700652,207.6031445157716,176.43804372774304,175.23711269757445
3.5368702035368704,2.618732881748507,2.6321058483884427,191.2473868485612,191.5690237598182,166.1145268830705,207.68532915008927,176.2666467386685,175.2689085650459
3.5702369035702373,2.618732881748507,2.6321058483884427,191.60909480700155,193.03434532313727,166.2641091934005,207.7773952517444,176.0679583972976,175.28629144734072
3.603603603603604,2.657404491902517,2.6321058483884427,191.95259158602136,194.35237904189648,166.44555984191516,207.8867258641324,175.86293511429926,175.28512947896712
3.6369703036369705,2.722635126901886,2.6321058483884427,192.3437172606754,195.57662401562348,166.69152210524115,208.04280035211843,175.61439869424916,175.2525340924288
3.670337003670337,2.722635126901886,2.6321058483884427,192.6145509411963,196.67356936421567,166.9663230868935,208.20060624848688,175.34070694839988,175.23545707682848
3.703703703703704,2.7779731262917102,2.8679002355730177,192.89188534996225,197.84512342576625,167.24230566249614,208.37898969588105,175.08595788905603,175.20199355620434
3.737070403737071,2.803961355734905,3.075738769613307,193.10206717222368,199.27829393308744,167.5132031986992,208.526897201086,174.8522632215037,175.17580770324716
3.770437103770437,2.803961355734905,3.25130442032013,193.2159366968977,200.6497699602235,167.76956909616723,208.61732531352564,174.6452313570784,175.18451963243604
3.803803803803804,2.8710638560012143,3.400343442018525,193.3042261587035,202.98941999624049,167.99935808810685,208.64366684118616,174.47585106542272,175.23928739887623
3.8371705038371706,2.933839673779816,3.4905727143953262,193.2603383982318,204.531205849356,168.23377425038262,208.57316873466868,174.31636968268938,175.35489518141856
3.8705372038705375,2.933839673779816,3.5124453931659207,193.14400288015003,205.87133271085483,168.46348664184717,208.42557117431963,174.16670682084649,175.50965070680274
3.903903903903904,2.949791718821442,3.464244406295004,193.1724910752561,208.66588379635616,168.66686280070286,208.2219088614961,174.032902616519,175.67017640325062
