Time,Left Shoulder Angle,Right Shoulder Angle,Left Elbow Angle,Right Elbow Angle,Left Hip Angle,Right Hip Angle,Left Knee Angle,Right Knee Angle
0.0,20.1621046664537,37.05871796872536,161.11759061040397,176.06274759930764,150.29681859881447,158.60610933260048,200.6282641686229,194.7184606046052
0.0333667000333667,20.14196028608977,36.87349706069112,160.7746207238318,175.31255750619593,150.2112446646887,158.1892311339559,201.08918269445653,194.56299973285832
0.0667334000667334,20.149056366949345,36.73387734432868,160.52188758172355,174.6940332777895,150.11348731819402,157.8336753014193,201.5181649136444,194.41806050380512
0.1001001001001001,20.18228755650028,36.63621606090596,160.3551354164568,174.19953578020483,150.0053271367346,157.53707520248304,201.91457927127323,194.2829184565649
0.1334668001334668,20.24054850221043,36.57687045169087,160.27010846040906,173.8214258795584,149.8885446977147,157.29706420463944,202.2777942124304,194.1568491302568
0.1668335001668335,20.322733851547643,36.55219775795131,160.2625509459579,173.5520644419667,149.7649205785386,157.11127567538082,202.60717818220263,194.03912806400012
0.2002002002002002,20.42773825197977,36.55855522095522,160.3282071054809,173.38381233354633,149.63623535661057,156.97734298219956,202.90209962567727,193.92903079691425
0.2335669002335669,20.554456350974668,36.592300081970485,160.46282117135556,173.30903042041368,149.50426960933487,156.892899492588,203.1619269879412,193.82583286811823
0.2669336002669336,20.70178279600019,36.64978958226504,160.66213737595942,173.3200795686853,149.37080391411573,156.8555785740384,203.3860287140815,193.72880981673143
0.3003003003003003,20.868612234524186,36.727380963106775,160.92189995167004,173.40932064447767,149.2376188483574,156.86301359404314,203.5737732491852,193.63723718187305
0.333667000333667,21.053839314014507,36.82143146576362,161.237853130865,173.5691145139073,149.1064949894642,156.91283792009455,203.72452903833943,193.5503905026624
0.3670337003670337,21.256358681939005,36.92829833150348,161.60574114592183,173.7918220430907,148.97921291484033,157.00268491968504,203.8376645266312,193.46754531821853
0.4004004004004004,21.47506498576554,37.04433880159427,162.02130822921805,174.06980409814432,148.85755320189008,157.13018796030684,203.9125481591474,193.387977167661
0.4337671004337671,21.708852872961955,37.1659101173039,162.48029861313125,174.39542154518472,148.74329642801771,157.29298040945233,203.9485483809753,193.3109615901089
0.4671338004671338,21.956616990996107,37.28936951990028,162.9784565300389,174.76103525032838,148.63822317062747,157.48869563461383,203.94503363720185,193.2357741246814
0.5005005005005005,22.21725198733585,37.41107425065134,163.5115262123186,175.1590060796918,148.5441140071236,157.7149670032837,203.9013723729141,193.16169031049787
0.5338672005338673,22.48965250944903,37.52738155082497,164.07525189234795,175.5816948993915,148.4627495149104,157.96942788295428,203.8169330331991,193.0879856866776
0.5672339005672339,22.77271320480368,37.63464866168941,164.66537780250565,176.02146257554537,148.3959102713933,158.2497116411191,203.6910840631455,193.0139357923412
0.6006006006006006,23.073988288205545,37.77024850423755,165.29471898045412,176.4950797352651,148.39271704567605,158.5112816101526,203.39985011498183,192.92644294641264
0.6339673006339673,23.37789702129181,37.91343222470706,165.90029950175426,177.00051912800248,148.34177890552849,158.80313226082217,203.1980969664004,192.84820350637685
0.6673340006673341,23.702157226275567,38.00651096769799,166.48273843664683,177.467424766987,148.29199043039972,159.13401081604664,202.99339659320145,192.77102330985807
0.7007007007007008,24.03599214238001,38.11189929439716,167.07387691608568,178.0132729218941,148.33056451192547,159.486422340756,202.69669990569955,192.6968614648899
0.7340674007340674,24.37624137778082,38.15260236422431,167.69509883722685,178.49526513160455,148.41864219526104,159.86051578890846,202.33613167537445,192.6070046901393
0.7674341007674341,24.754596291290994,38.13451544440108,168.36002597999334,178.8747680479847,148.53382959328368,160.2170522572813,201.934932326566,192.53284273018048
0.8008008008008008,25.135309539268107,38.01904280964016,169.03657886429602,179.13023289291485,148.6726819521964,160.59131737173738,201.4698232282572,192.45857099606147
0.8341675008341676,25.52131997804162,37.80349461546612,169.7111722991438,179.26813413877366,148.79795069764347,160.96552702411716,200.9597494532349,192.37856376030985
0.8675342008675342,25.893921321379253,37.487037745114186,170.3790447657534,179.28662018507802,148.92641614658135,161.36011843926894,200.4078600900684,192.28283619290409
0.9009009009009008,26.2393908586672,37.112584092026495,171.04254154438848,179.23651398034045,149.08349567200003,161.77850601826614,199.79942873797847,192.16175093490585
0.9342676009342676,26.53961404380333,36.6511139496684,171.68713364236388,179.07187784441288,149.28047116378744,162.22881278437146,199.1416312063056,192.01760708552428
0.9676343009676344,26.811185472297066,36.148118956552445,172.23382639237033,178.82870531331022,149.5012566380111,162.694627496032,198.42572219051524,191.85547791975068
1.001001001001001,27.038727212287544,35.595466711214755,172.74615114706418,178.51151579492537,149.753209277749,163.18605696472665,197.68739671420497,191.6779291330357
1.0343677010343677,27.223993573504536,35.08241916969797,173.21139261022856,178.25056108528958,150.02302403342617,163.72379325623956,196.9837248080835,191.48019462341
1.0677344010677343,27.38143009083907,34.50022360044815,173.7215280283328,177.87384197686634,150.33607955885486,164.28279579504903,196.26548642416407,191.27260258256783
1.1011011011011012,27.474582048735567,33.87048472241446,174.25923800861713,177.38701981345517,150.8101967507737,164.8668760887578,195.40039712716563,191.04748931225288
1.1344678011344678,27.537618300656938,33.16081066033023,174.8586591402453,176.7985685963315,151.3362854192542,165.46220317368056,194.48253278583584,190.8312131416513
1.1678345011678346,27.575530793477046,32.44093611416569,175.4568153626169,176.20885460915613,151.89964615139888,166.00637786615297,193.54980996117024,190.6583964629345
1.2012012012012012,27.568263670772065,31.66923467439412,176.02549386117977,175.55016770195266,152.4469801104293,166.5107194905884,192.6630923451326,190.520327253398
1.234567901234568,27.55751992629266,30.97841927036092,176.54300891415755,174.9521026983056,152.87964660242125,166.96320500835003,191.8839043860602,190.41517037229843
1.267934601267935,27.51280412407713,30.189930071231053,177.04531255386914,174.22220540341095,153.22353253869383,167.40546919942378,191.21883116466947,190.3181020642172
1.3013013013013013,27.45909792833702,29.35023243344019,177.48783709185463,173.4660662936871,153.47686553607082,167.81013931575862,190.7020260225183,190.2410016645832
1.334668001334668,27.389898258798027,28.41412838484856,178.0013080588057,172.56765117543267,153.6586968594247,168.21755188163655,190.28580185158668,190.1506818711692
1.3680347013680347,27.39263178470897,27.489061874070863,178.56952161690094,171.73863284450644,153.84584034852463,168.65476619899917,189.9216490582041,190.02031373367467
1.4014014014014016,27.33446127099252,26.45752440517534,179.14957259029657,170.72175764208023,154.0036735709574,169.0887835560273,189.6462392307685,189.8662166725984
1.4347681014347682,27.14826670955773,25.41674804549298,179.50999146056304,169.58015508394757,154.13886044148603,169.52514855905068,189.45748819590435,189.687878265432
1.4681348014681348,26.83645530947662,24.30902564140591,179.85950095311128,168.33440575227328,154.2437425147565,169.97989788818296,189.35359374161652,189.48991962275488
1.5015015015015016,26.62156347520157,23.145880586321496,178.15512673054826,166.86517648408525,154.33385966204236,170.4137819797432,189.33107259687432,189.2898542371876
1.5348682015348682,26.320958597288968,21.912446275409632,176.83788909396674,165.23605531704098,154.37480181164833,170.80289209677974,189.32005236895367,189.11294125202232
1.5682349015682349,26.085797097738485,20.61556173272844,181.2965124410385,163.47935239122927,154.3321307463014,171.12647784517554,189.36008745556123,188.9655417193355
1.6016016016016017,25.66471641529057,19.280808521038928,184.77852746602912,161.60249779277638,154.19714924858218,171.3983956054802,189.45926841680344,188.8299171576075
1.6349683016349683,24.724270420770257,17.958027693081746,186.9937809450269,160.56939032113388,153.9449233356286,171.6101908290839,189.63700249159547,188.70621871426923
1.6683350016683351,23.62886976948919,16.643583687223412,184.6114102980897,159.70070070100823,153.5940016468426,171.77309154532318,189.9045310340628,188.5988126161371
1.7017017017017018,22.25311354682153,15.378798666068244,183.281838230154,159.47108734085754,153.0912975956411,171.89200872771644,190.27851777011992,188.50893622480385
1.7350684017350684,20.97175704923993,14.042567722068156,182.33235309274176,158.74031686531615,152.49890967654247,171.99226750901798,190.75095711457453,188.430242596674
1.7684351017684352,19.843930173480384,12.553419716984209,184.82795156054945,157.99987773833462,151.8814503883169,172.0452946827101,191.2853929816396,188.3602704680872
1.8018018018018016,18.86969359211438,11.08885731142789,186.7980010684151,156.69498618977914,151.2984266064115,172.0499501278686,191.77280035315457,188.2959979994478
1.8351685018351689,17.98823779189599,9.735064932541784,189.1088536716437,154.61745261460644,150.73530928053165,172.0790390613025,192.15733116423849,188.2373530958941
1.8685352018685355,17.28352921388304,8.508260561685526,190.7914992759181,151.9573574733309,150.15678011471516,172.08322265895106,192.4919189546749,188.18995574046272
1.901901901901902,16.92613281186254,6.737571970014887,191.42582613546423,150.9365779746425,149.62524188778406,172.00235011960922,192.83387031798625,188.16197255984864
1.9352686019352687,16.562805189923626,5.262473195931439,191.4692481978019,149.62262136171256,149.0697774665235,171.89135647361243,193.224069498215,188.12010028901904
1.968635301968636,15.895957446102502,4.099724060046201,191.05995904479727,147.90634486938723,148.47981511094176,171.7201564851153,193.65453915775595,188.09298471880768
2.002002002002002,15.13419690197085,3.2279505474311008,189.7272458810968,145.10260994823855,147.90127029896232,171.52662204709264,194.1081159906,188.06157325165856
2.035368702035369,14.516802207484018,2.425944304373746,187.14032700194048,141.441588730578,147.2656459628124,171.3244109912694,194.57125406465468,188.0295035436602
2.0687354020687354,13.611672130227507,1.887539946866388,183.5071938952253,136.48886351503327,146.6566889945602,171.1010966871151,195.0577451956892,187.99451390525425
2.1021021021021022,11.737461804748817,1.575693751310168,178.38822361304383,130.85121987819113,146.14322351958873,170.84294978030513,195.5347392501344,187.9467750940846
2.135468802135469,9.8800395071138,1.6054577890685455,172.71344682372788,124.84350993521936,145.72513406786956,170.57498057601572,196.02554829377044,187.88727936483625
2.1688355021688355,8.558676801544312,1.88677261882694,167.05958398627075,118.47201600668778,145.3444508509031,170.2401794230023,196.5120998786585,187.82456891961093
2.2022022022022023,7.641162665759946,2.3916911047984515,161.34459971115703,111.7669131837628,145.0167786428129,169.84523948292437,196.9415160915872,187.77368975283588
2.235568902235569,6.778716985491813,2.3916911047984515,155.25069391288656,104.83933058337118,144.7535657537693,169.42992836308656,197.31454663910733,187.7386723998856
2.2689356022689355,6.358889455527893,2.3916911047984515,149.14592788352442,97.84234908065204,144.40579044535554,168.98784823889537,197.8091465612254,187.73758544893167
2.3023023023023024,6.358889455527893,2.3916911047984515,143.01951453560477,90.79750519044404,144.03890859459852,168.51882747021116,198.32523627929416,187.7673665947645
2.335669002335669,6.358889455527893,2.3916911047984515,137.22646711908837,83.78295709784554,143.62397508392937,168.09233899979415,198.933964581503,187.7882008072706
2.369035702369036,6.358889455527893,2.3916911047984515,131.69675898546316,76.86484169453873,143.2274703270378,167.7102478843532,199.6499938365642,187.7935042881487
2.4024024024024024,6.358889455527893,2.3916911047984515,126.68616444370362,70.09948039351255,142.84715981106902,167.38327459791782,200.42205621101184,187.7793526694093
2.4357691024357693,6.358889455527893,2.3916911047984515,122.22118936459968,63.720033520272914,142.4199433357175,167.1055149794138,201.24838092150503,187.75587695920424
2.469135802469136,6.358889455527893,2.3916911047984515,118.37283514952182,57.7051109260946,142.0080336395096,166.8959021552223,202.05947775065007,187.70496059050524
2.5025025025025025,6.358889455527893,2.3916911047984515,115.10713029603954,52.20494885832816,141.62121270889295,166.7492085483239,202.8241800019381,187.6338294292826
2.5358692025358693,6.358889455527893,2.3916911047984515,112.39064235284836,47.04432002903089,141.20557782845353,166.61755877063842,203.5818264099352,187.58579666182865
2.569235902569236,6.358889455527893,2.3916911047984515,110.26651557068382,42.44238993226415,140.802492469442,166.51292362623823,204.30013331183665,187.55819184516304
2.6026026026026026,6.358889455527893,2.3916911047984515,109.00040926372054,38.42638378875822,140.36763579884266,166.40592804026923,205.00558228812883,187.5581248668165
2.6359693026359694,6.358889455527893,2.3916911047984515,108.64937903752823,35.10999988718943,139.94342571653115,166.3129847286474,205.6921780102984,187.5850262769212
2.669336002669336,6.358889455527893,2.3916911047984515,111.78928927545348,32.72633505927442,139.44719254857273,166.25462011031357,206.3920119189378,187.61748319477488
2.702702702702702,6.358889455527893,2.3916911047984515,116.76328550702964,31.410137530302205,138.8436210458797,166.23478490503285,207.1155913956742,187.6464181802553
2.736069402736069,6.358889455527893,2.3916911047984515,116.55128309999252,31.212725994877903,138.19381453016868,166.24861324089306,207.82304653862727,187.6651858514997
2.7694361027694363,6.358889455527893,3.101822738534886,116.15630306898198,32.46129991230151,137.55218427165866,166.30431675709417,208.46407933862267,187.63352915097053
2.802802802802803,6.358889455527893,3.101822738534886,116.14948152917358,33.77565111053219,136.92277932454004,166.37778501045327,209.03633465693096,187.59632247689487
2.836169502836169,6.358889455527893,3.101822738534886,121.53608026043604,35.72278670445596,136.29695897384312,166.5314886526874,209.56059000898736,187.54180798454345
2.8695362028695364,6.358889455527893,3.101822738534886,127.6693380673634,37.349668717742695,135.75670143902158,166.67968127215966,209.99878051846727,187.4931612914825
2.902902902902903,6.358889455527893,3.101822738534886,134.84748163375426,39.194628722230206,135.28573540865335,166.90018305496912,210.31559380607143,187.3519578688427
2.9362696029362696,6.358889455527893,3.101822738534886,139.10696741565354,40.88018357820088,134.83552055002275,167.0776986348061,210.54325717029496,187.25306384577564
2.9696363029696364,-1.687262953194743,3.101822738534886,143.58090687323386,44.2159281465664,134.28329213167072,167.21889141428693,210.69301146906983,187.2372280891418
3.003003003003004,-6.546194798857019,3.101822738534886,147.39602590347326,47.32414768942532,133.7520842836007,167.19888320800084,210.8509511945209,187.30164222429715
3.0363697030363697,-8.316484436117976,3.101822738534886,150.4279223400073,49.54184351979831,133.18324298007127,167.09230180081084,211.10472049760207,187.38350532319103
3.0697364030697365,-7.418804989765407,3.101822738534886,153.27168381317702,49.916358591646016,132.593429958841,166.89524021492173,211.41899191424807,187.53137451908736
3.103103103103104,-3.9548813065877386,3.101822738534886,152.42553665306374,49.95567017543618,132.03913188618455,166.54721284012822,211.75796119746923,187.735001777809
3.1364698031364697,1.7529479610214898,3.101822738534886,149.79648387992705,49.35701991167235,131.56892022794543,166.16062903000588,212.11687020645857,187.97581441148373
3.169836503169837,1.7529479610214898,3.101822738534886,147.8533919566692,48.686032934153054,131.21604465354645,165.82849073772658,212.4142970780624,188.06490984143448
3.2032032032032034,1.7529479610214898,3.101822738534886,146.29101791525824,47.88246508358294,131.07545333347687,165.4349720893523,212.6387550489902,188.20331579452812
3.2365699032365702,9.50000375007068,3.101822738534886,145.4831278110944,46.04677058201476,130.7864173951505,164.96094311284529,213.0917632059442,188.35612641862767
3.2699366032699366,18.964262788555672,3.101822738534886,145.7048438531612,45.23724858005286,130.5227283840912,164.3943971120633,213.51905151718515,188.65469889500085
3.3033033033033035,29.947223109928377,3.101822738534886,147.63492179424358,44.75548859239117,130.4002503484226,163.90876812008415,213.836060022844,188.9881912309717
3.3366700033366703,42.346119002877714,3.101822738534886,149.32711280983327,44.88211491257023,130.51878288431976,163.42378750899817,213.9488059200449,189.47658005047404
3.3700367033700367,55.82875974020189,3.101822738534886,150.95530678071472,45.14657840963938,130.99950347642806,162.94872055608514,213.60401323298512,190.12872127046217
3.4034034034034035,70.0777654178763,3.101822738534886,152.89906648609275,45.92924366236322,131.66035515282377,162.42242195601452,213.06548528615332,190.91943895283052
3.4367701034367704,85.1443819691976,3.101822738534886,155.2098612235436,47.01357292359539,132.40356037600495,161.78919205557622,212.3865020874211,191.80627630902376
3.4701368034701368,100.64075078162642,3.101822738534886,157.721660241374,48.70428364398255,133.26805513086245,161.0913463276172,211.64683584279555,192.8047438668929
3.503503503503504,116.53666181126287,3.101822738534886,160.04671137698605,50.48003838286683,134.4805302591601,160.5580059280233,210.56596887803536,193.97780767157823
3.5368702035368704,133.1132288858231,3.101822738534886,162.55767654990527,53.06744771352565,135.65966146731606,159.97144402983386,209.4366410315238,195.2037230755938
3.5702369035702373,149.75631088530972,3.101822738534886,166.52926814261087,56.03456153330744,136.788377389732,159.17116077832964,208.28038327156872,196.52290775314492
3.603603603603604,166.74526035071045,3.101822738534886,170.30440936686608,59.4853469640026,137.88328153428554,158.25170484356622,207.17330295360136,197.8615224503196
3.6369703036369705,183.6280860574528,4.126930297987348,173.87263234139695,62.815325747558646,138.91547072917555,157.25488154664447,206.28335544303008,199.3107479945428
3.670337003670337,209.1802625796958,4.126930297987348,176.84333194464594,66.74178498630499,140.0250733816849,156.31254611440295,205.30692080475447,200.6914142138972
3.703703703703704,232.1178882680928,4.126930297987348,178.77569614259642,71.64381801384697,141.1364807740332,155.38311467024965,204.3670748305472,201.96275130029125
3.737070403737071,251.94767848253332,4.126930297987348,180.27765011988768,77.09135865544032,142.21101509895567,154.5276600730315,203.463282014388,203.12532933890589
3.770437103770437,268.60470135615265,4.126930297987348,181.65622428084112,84.76258147521588,143.26170660169086,153.7561617453925,202.3695364898764,204.3429182239111
3.803803803803804,281.28479137594525,4.126930297987348,182.79275863349812,92.21238131000436,144.21163535839713,153.12483122449206,201.40428560544603,205.48505043499992
3.8371705038371706,289.84593641357804,4.126930297987348,182.87897641373385,100.7973851596447,145.0447773982051,152.6850155557087,200.5725076813248,206.42722629585649
3.8705372038705375,294.7081703502384,4.126930297987348,182.30693278764576,108.66521323521896,145.89667973521657,152.36528638660158,199.72786307544644,207.1121048109932
3.903903903903904,295.9690622507866,4.126930297987348,180.62648988436405,115.93330941947066,146.76025597434025,152.45062628034856,198.81620255746304,207.56162227313487
3.937270603937271,292.92985427642725,4.126930297987348,178.39417600214247,122.16187449905154,147.56764928839368,152.606285342259,197.91155128047183,207.83451239099605
