Time,Left Shoulder Angle,Right Shoulder Angle,Left Elbow Angle,Right Elbow Angle,Left Hip Angle,Right Hip Angle,Left Knee Angle,Right Knee Angle
0.0,23.57964514328206,29.228822203380453,153.39185157435318,157.07785763535733,147.18473244518148,143.55186499099733,201.15963677417173,202.9200686939693
0.0333667000333667,23.86398287525492,29.200124896564105,153.1709950988945,156.38512618276593,147.0731667365796,143.54101594170112,201.133860681681,202.90116572507307
0.0667334000667334,24.119739796443017,29.181616865203043,152.95045677201432,155.74985805324,146.97080874157692,143.5219121402113,201.10976852270872,202.89974252610867
0.1001001001001001,24.348918202662613,29.172822564680683,152.7328391590095,155.17080432859478,146.87732879126176,143.4956772767571,201.087265010932,202.9145835463868
0.1334668001334668,24.553520389729968,29.17326645038043,152.52074482517702,154.64671609064558,146.79239721672246,143.4634350415678,201.06625486002767,202.9444732352182
0.1668335001668335,24.735548653461336,29.182472977685705,152.31677633581384,154.1763444212077,146.7156843490473,143.42630912487263,201.0466427836729,202.9881960419136
0.2002002002002002,24.89700528967297,29.19996660197992,152.1235362562169,153.7584404020964,146.64686051932463,143.38542321690088,201.02833349554484,203.0445364157835
0.2335669002335669,25.03989259418113,29.22527177864648,151.94362715168316,153.39175511512698,146.5855960586427,143.34190100788177,201.0112317093204,203.1122788061388
0.2669336002669336,25.16621286280206,29.2579129630688,151.77965158750956,153.07503964211477,146.5315612980898,143.29686618804453,200.99524213867664,203.19020766229016
0.3003003003003003,25.27796839135203,29.29741461063029,151.63421212899303,152.80704506487498,146.48442656875432,143.25144244761847,200.9802694972905,203.27710743354825
0.333667000333667,25.377161475647288,29.343301176714387,151.50991134143052,152.58652246522297,146.44386220172447,143.20675347683283,200.96621849883925,203.37176256922373
0.3670337003670337,25.465794411504096,29.39509711670448,151.40935179011902,152.412222924974,146.40953852808866,143.16392296591687,200.9529938569997,203.4729575186273
0.4004004004004004,25.545869494738703,29.45232688598398,151.33513604035542,152.28289752594338,146.3811258789351,143.1240746050998,200.94050028544905,203.5794767310698
0.4337671004337671,25.61938902116737,29.51451493993631,151.2898666574367,152.19729734994635,146.35829458535216,143.0883320846109,200.9286424978642,203.69010465586177
0.4671338004671338,25.688355286606352,29.58118573394488,151.2761462066598,152.15417347879824,146.3407149784281,143.05781909467945,200.9173252079223,203.80362574231395
0.5005005005005005,25.754770586871903,29.651863723393102,151.29657725332166,152.15227699431435,146.32805738925128,143.03365932553467,200.9064531293004,203.91882443973705
0.5338672005338673,25.82063721778028,29.7260733636644,151.35376236271924,152.19035897830992,146.31999214890996,143.0169764674058,200.89593097567536,204.0344851974418
0.5672339005672339,25.88795747514793,29.8033391101424,151.4503041001507,152.26717051260152,146.3161895884937,143.00889421052324,200.885663460726,204.1493924647405
0.6006006006006006,26.007041914721142,29.88846266356833,151.72209211129234,152.37734238853076,146.30338767048755,142.99732843178873,200.84609828322755,204.26944275601443
0.6339673006339673,26.1209435844608,29.98952447878543,151.9219888625633,152.5660022316377,146.27986977081463,143.0353392051784,200.84843551098547,204.3797678932152
0.6673340006673341,26.22648255268114,30.06628137383125,152.15825975841832,152.78327120835658,146.2757449506934,143.10829972371607,200.8686477556274,204.486143226414
0.7007007007007008,26.37243281895319,30.134933814367507,152.5165138249052,152.95878337873532,146.31021471955762,143.20044272304835,200.8929090493033,204.5800359953835
0.7340674007340674,26.516534941677044,30.212058572114497,152.94288353708086,153.17674170956283,146.3677725322545,143.30671621945518,200.8780225479317,204.6543909677896
0.7674341007674341,26.696831233205604,30.303056076659026,153.47726561015932,153.48643719302152,146.4108143158104,143.4030462378803,200.89381378506195,204.7472700305147
0.8008008008008008,26.88775854076534,30.390591304155475,154.06486625842612,153.83677463193018,146.43714866010703,143.49339533733064,200.9195428476002,204.8426262872402
0.8341675008341676,27.04680488159626,30.53009887139281,154.61715289305388,154.27065839531326,146.4942354544491,143.57193006422065,200.9300796188299,204.94655584855377
0.8675342008675342,27.23394229356653,30.66673410327792,155.22048055280942,154.7721780510583,146.51355211431007,143.64728603381752,200.9206146653448,205.0365755167533
0.9009009009009008,27.38324073395803,30.82388202132176,155.69423128042064,155.32085247616783,146.59929128823208,143.6496763003242,200.77778867492285,205.12710913143923
0.9342676009342676,27.53665823829419,30.95273241397452,156.19021362972137,155.83911342892378,146.67115990745594,143.66414357102585,200.61629484527333,205.1901109329184
0.9676343009676344,27.713117692636832,31.05442664412421,156.77128146623795,156.35947695857115,146.76049264634443,143.74196692643832,200.4292869530585,205.17537496478585
1.001001001001001,27.906215790122115,31.122021555861416,157.42923074718132,156.85234743091326,146.8023123468068,143.87110325484895,200.2560206574802,205.10938016504312
1.0343677010343677,28.154437273875686,31.19768057283312,158.27184534615523,157.41972755647703,146.82824736539862,144.0159670323546,200.0732274467512,204.9900842495539
1.0677344010677343,28.415257528767608,31.29492808418569,159.2267818753214,158.049042702752,146.80437384810912,144.19172442378976,199.9132387663309,204.8323807246885
1.1011011011011012,28.710883190461523,31.31510722565433,160.1843640380299,158.40422023777816,146.73527920225845,144.3854039351914,199.7734618323208,204.66195776763868
1.1344678011344678,28.98829733981744,31.27002708876853,161.15419981381103,158.62644418569454,146.61470709658025,144.60285985989208,199.66541123458148,204.47936449522817
1.1678345011678346,29.28791343424719,31.42122292162426,161.6293349578043,159.34354628826915,146.41564998194187,144.8095695799254,199.63236303098327,204.2890288467985
1.2012012012012012,29.568818350648144,31.445519263817115,162.2241785323531,159.91663389400986,146.1868235178748,145.0563424366827,199.65904289221663,204.0673776368
1.234567901234568,29.95610299462417,31.34345844113864,163.50231402386137,160.2672894587731,145.9401732875371,145.36114158118318,199.7162245176655,203.8271657516745
1.267934601267935,30.290611992717857,31.08528334307478,165.09533992531297,160.33903953844015,145.65831581021737,145.7443169574403,199.798319707998,203.5637899361086
1.3013013013013013,30.66373841109887,31.034162824478315,166.8559359199332,160.60919498512243,145.36851296314703,146.1657134835391,199.8692725861864,203.28022643384435
1.334668001334668,30.9300945743738,30.840100570736425,168.54875992335135,160.63322580435408,145.05159827977351,146.61725164494155,199.94899566155263,202.98641755934813
1.3680347013680347,30.91693808547681,30.423880491481714,169.61718821740175,160.80466211330958,144.6570846123212,147.1002040061412,200.06050988282925,202.66882124525523
1.4014014014014016,30.70955190673382,29.83487955653179,170.09054564599134,160.55436811571408,144.2330292546143,147.58054110852132,200.23428645141456,202.36202216871487
1.4347681014347682,30.386814333180887,29.249680029228102,170.63783168779486,159.90883741589087,143.84679035155327,148.04657183693462,200.46108065737,202.06399474544372
1.4681348014681348,29.920360389738303,28.417978933352668,171.0821847114239,158.99117492264094,143.48246276384842,148.53025653397316,200.7033105315577,201.7671107187306
1.5015015015015016,29.1890589197064,27.512400145544625,176.5077314055508,158.05789548619768,143.13341556508016,149.03963755669403,200.9406551411737,201.47533993273217
1.5348682015348682,28.321515035833443,26.4653534742086,180.241287400138,156.82026922147017,142.79317356592776,149.56885329229846,201.18664656219468,201.1823860640684
1.5682349015682349,27.632088030617734,25.00179590124315,180.34398512847275,155.74852423551786,142.44471561214445,150.13425912773906,201.4691673802592,200.8712014890432
1.6016016016016017,26.84183611000818,23.455372177758367,179.3403009220707,154.25062940291713,142.09728983178562,150.70417743458313,201.76958212220623,200.56140058219663
1.6349683016349683,25.86064876995788,22.012029089985937,177.30673152367316,152.41212045393746,141.791872489239,151.25876844304165,202.07535661416463,200.26466979156967
1.6683350016683351,24.65405171655847,20.59387478246963,174.667910761216,150.12336849912364,141.53543619775073,151.87280021319393,202.3572260084569,199.94834063255536
1.7017017017017018,22.555010966549585,19.04686940322164,170.95466614297047,147.49086333013454,141.296508097184,152.50581264222407,202.60016807059984,199.63703670009485
1.7350684017350684,20.687709528074272,17.348166992422453,167.20257709516684,144.3822535246244,141.08972322814856,153.14492009612667,202.81538761512576,199.3234318572524
1.7684351017684352,18.99079686463998,16.1531432214127,163.15134058704078,141.37641935040853,140.9419157605045,153.77097865992224,203.0377957788442,199.01715407278428
1.8018018018018016,17.699109377951824,14.752580631624516,159.44624721712472,138.1383233733582,140.84470417120943,154.35603575071156,203.2690501823454,198.72462927578883
1.8351685018351689,16.746745573076733,12.948348883144307,155.68037333449968,133.50175696915127,140.78366816899924,154.91032141527035,203.5005512998333,198.4446393575976
1.8685352018685355,15.555782655034845,11.306322033832028,151.20218691914053,128.8192995448761,140.72996873728394,155.42392705084958,203.725119065171,198.1830552165611
1.901901901901902,14.10524280080942,10.160613324195443,146.45741689054933,127.22914442580957,140.72323968132818,155.88675066104244,203.93832402910627,197.94271737082863
1.9352686019352687,12.725452388732018,8.957663334739758,141.61859550895952,125.3388986323761,140.7596102219825,156.293588351918,204.0675580856366,197.7084992947507
1.968635301968636,11.5807931655824,7.961579553599146,137.1926461357897,123.044504767353,140.86703263736217,156.64121314867756,204.1046720719695,197.4858993827872
2.002002002002002,10.828454576093396,7.130236635475804,133.15639485942123,119.9692910392064,140.98063865117533,156.94192353104324,204.07468820931336,197.2351375476864
2.035368702035369,10.219669466219983,6.376548787919438,129.46254070739153,115.30166644525777,141.11863472462443,157.1915129030539,204.00812538045005,196.96531588419936
2.0687354020687354,9.952154532273727,5.812835776769634,126.13698933581335,110.16064097782264,141.17829810986626,157.48744182107265,204.05392935737848,196.6431590920523
2.1021021021021022,10.017706708401883,5.468867977312484,123.2151107173826,104.46580138174927,141.2084450105524,157.76701333684326,204.1398989181196,196.29714528625547
2.135468802135469,10.467233140151148,5.427329859850614,120.5981529148435,98.67031625289624,141.1812283808087,157.98786837573118,204.27893355320296,195.9776633867086
2.1688355021688355,11.218246284011627,5.489010711991625,118.3842667338582,92.79943297431691,141.1502843823034,158.15062367382225,204.4293229624656,195.683950784869
2.2022022022022023,12.367622266727292,5.842535043018588,116.49446582828546,86.94026443941718,141.09962115863294,158.28930622479413,204.60734322004225,195.4307163012684
2.235568902235569,13.948161999833497,6.42743600639642,115.12480172962324,81.16832804401577,141.0410713354722,158.3837403648219,204.80976385998105,195.217362605258
2.2689356022689355,15.83601199120868,7.422106190276374,114.15424938769956,75.87345218157044,140.9695650383771,158.45524566752843,205.05264773208657,195.0179059459481
2.3023023023023024,9.637407435737664,8.70684801300515,113.25563386665652,70.66810605708612,140.89039228794104,158.48468271143565,205.3259395772969,194.8444681616987
2.335669002335669,6.493432934714511,10.057050156455166,113.59506869165314,65.208540595961,140.84920528663068,158.52667242854946,205.57590794264053,194.690132954904
2.369035702369036,6.2672972310238215,11.673499044346508,114.85546179188076,59.99375747294982,140.85407117777007,158.5702681372629,205.79229826861527,194.5563671581729
2.4024024024024024,6.2672972310238215,13.597342768850728,116.37822383112228,55.362935492248106,140.868328499068,158.58874536601544,205.9879045909651,194.44165756827627
2.4357691024357693,6.2672972310238215,15.753162512708876,117.97866979852245,51.34104542160979,140.88809008532488,158.56937164013314,206.15418748740623,194.34380599347887
2.469135802469136,6.2672972310238215,17.80599604044025,119.8976851644638,47.5618237319364,140.8843835837295,158.52651819585913,206.33516930870465,194.2751417857329
2.5025025025025025,6.2672972310238215,19.90324007264754,122.2624507111396,44.35161630427667,140.85813946171314,158.4371453717644,206.520569762079,194.2574396653736
2.5358692025358693,8.344928570251685,22.16788563224062,125.664709446639,41.30612803261941,140.88806873726517,158.32063439018089,206.6879204506298,194.2842444505076
2.569235902569236,12.860462245618276,24.45203868233968,130.29024583700777,38.77909531907032,140.94694909103262,158.1792704444296,206.8335589872632,194.34937740391737
2.6026026026026026,19.129542546848683,26.64604750161517,135.56989222161695,36.943046624560544,140.9838365075088,158.0573019918322,206.94907848672304,194.41750692374208
2.6359693026359694,27.09287791254184,28.98174300557736,141.7653918519708,35.890400227412854,141.02080971926114,157.96198804517525,207.0093069221473,194.4781643765948
2.669336002669336,36.633506948376926,31.32529285371988,142.01373183536904,35.28033966191139,141.0665993794235,157.8888943904982,207.04678463791743,194.52841705071384
2.702702702702702,47.52524737088065,33.62140201941758,141.47160309280835,35.27525146760459,141.137690180516,157.85529255039714,207.04806608011287,194.55487261685315
2.736069402736069,59.477497462167975,36.2871689292972,142.6683114071772,35.276538588978035,141.24511306503675,157.83745584518792,207.0083023201108,194.5733893226813
2.7694361027694363,72.38953968308515,38.925554022729735,143.71112651801525,35.61327201478621,141.39058931988026,157.8348544641642,206.9189073422588,194.57885421406235
2.802802802802803,86.11923530358268,41.46251191013928,144.79805786890935,36.29913989358506,141.5360774906053,157.8617260173507,206.78931664537345,194.5604246558519
2.836169502836169,100.418075092641,43.919533495677655,145.7198067726362,37.58245262826491,141.70056213203117,157.90786260782127,206.6155151511905,194.52819585448765
2.8695362028695364,114.75492395321216,46.46994690816706,147.20053157849108,39.35705420512669,141.90491121953363,157.98037039071278,206.44560534479533,194.4672049157846
2.902902902902903,129.210780682178,41.61545597055103,148.32203654582824,41.82792925199503,142.09768004092376,158.05172280612288,206.28157382431337,194.3980089470812
2.9362696029362696,143.6324010176173,38.5690415044306,149.4708882121828,44.37976659230803,142.27871861233618,158.14258300182183,206.1001962053481,194.3161570015477
2.9696363029696364,157.94276449541002,37.81668751943762,150.09416204205672,47.22183772386099,142.46440258840676,158.26519380408146,205.89529238506688,194.21147056993783
3.003003003003004,172.91209095670305,39.53398096672253,150.45835870376936,51.88517548034872,142.64717054886376,158.39870451221438,205.6847506840125,194.08191734272245
3.0363697030363697,187.61246777766715,43.196396026846514,151.24784930470156,57.49831614845583,142.82424539170057,158.54181402822633,205.4744131945218,193.9309192037729
3.0697364030697365,201.8193299427939,48.125710745169634,152.3550254472395,60.0506414039339,142.96886650587695,158.68650528536963,205.26998375074547,193.7625988205997
3.103103103103104,215.04519121814465,54.74145130806552,153.75079856368498,61.904182143908486,143.0939802617818,158.83878512525754,205.0885236617514,193.5757122858406
3.1364698031364697,227.06556583786016,62.62420758737112,154.9362380181904,62.96925882428357,143.18772380070098,158.99661847033414,204.9547062740286,193.3599261932816
3.169836503169837,238.2939100907508,71.6401152008243,156.1354024167274,63.49431761805332,143.29703455731746,159.16051307095327,204.8234347238916,193.12729625250228
3.2032032032032034,248.78383449419428,81.74926986315822,157.01676942973023,64.59548228145947,143.41923980724093,159.3240586860207,204.70384704285527,192.88106203611653
3.2365699032365702,258.18826946621783,92.69280068428478,157.72356179250548,65.52450628456215,143.54178159817636,159.46407906038957,204.5876734355413,192.63677533632
3.2699366032699366,266.2828050205,104.3379706945374,158.2832396353908,66.57958273325701,143.68243466213983,159.60701583171635,204.47915692262416,192.3850169276182
3.3033033033033035,272.7480664289059,116.48172009570446,158.63063622264875,67.42741516999367,143.85066425603003,159.74729047623129,204.38058111117817,192.12588435899428
3.3366700033366703,277.7892338704422,129.24094187491482,158.73321552478683,68.17250300692845,144.01593281075554,159.8868606330022,204.3245128994664,191.8577985300468
3.3700367033700367,281.2242971002065,142.2794346355386,158.67172514529736,68.71130447151499,144.2169591619668,160.0555010194933,204.25093731645867,191.5597122012813
3.4034034034034035,282.8680433238395,155.50203742892728,158.18876101562986,68.94504992325707,144.421918760331,160.24568536934885,204.2164945954509,191.24412321948577
3.4367701034367704,282.64055349016303,168.6912901271237,157.47315369930567,68.82918744602131,144.66166587541176,160.46717300909484,204.13134746234093,190.90241999516925
3.4701368034701368,280.5400225047993,181.8596203243024,157.0414101531042,68.8348221601207,144.8687307710493,160.69655555398924,204.11318625039723,190.56372778298385
3.503503503503504,276.2473149736026,194.7434086894028,156.57616673631716,68.73198891638042,145.05214432864773,160.96401823728004,204.13106698108777,190.1578275871699
3.5368702035368704,269.6173527709703,207.2485500281701,156.064502695478,68.6653635625785,145.16881452895063,161.21304546828856,204.2090324021691,189.7791232294809
3.5702369035702373,260.6059312134376,219.10586506782028,155.63203373228671,68.50623923003516,145.21924392225077,161.42778002547055,204.3656680366651,189.44393133881104
3.603603603603604,260.27102227250884,230.42436578949105,155.46208565365416,68.35795733539155,145.1890606862607,161.57890352447652,204.6343815717022,189.2051924790161
3.6369703036369705,260.0215680195581,240.8771948641368,155.26642704919269,68.15200433011643,145.06812960426134,161.70061526651153,205.02884946999123,188.9743534959268
3.670337003670337,259.7433809527988,250.5598849009341,155.0122275982391,67.91693297272944,144.8697954849236,161.78617024141633,205.5321896863167,188.80342519706923
3.703703703703704,259.45416763185347,259.12378197777593,154.52032502036323,67.68600006080402,144.63152072192443,161.8899207570161,206.0756322591659,188.62624036215144
3.737070403737071,258.96710221030406,274.5202054399637,154.01508285243452,67.55804287129482,144.35535633624391,161.96741764803147,206.6739906725371,188.52939245384948
3.770437103770437,258.63083638147697,286.63077813158577,153.47652193329606,67.46980841683043,144.06126412107716,162.0391949611365,207.35445276992536,188.48019961614145
3.803803803803804,258.374227573727,295.2248436205991,152.9569993027947,67.22609579643287,143.73339934876233,162.04761114241387,208.09518179669448,188.5571592570261
3.8371705038371706,258.2659608246271,300.49063333512606,152.55299070498134,67.150995320197,143.3831572374424,162.05581837912723,208.87848408208825,188.630476949916
3.8705372038705375,258.26129132000204,302.2302921098295,152.11137778330377,66.99421856126517,142.99449239559834,161.96897861178613,209.70094546651805,188.84723391833248
3.903903903903904,258.2971095826492,300.6353866542123,151.809255021249,67.03336330374579,142.63647556891598,161.93934391581467,210.51847282522272,188.95928081852915
3.937270603937271,258.361226091423,295.5212422009273,151.5987743727127,66.94729317340153,142.26969282593186,161.7940785804201,211.3560840895413,189.2800215351344
