Time,Left Shoulder Angle,Right Shoulder Angle,Left Elbow Angle,Right Elbow Angle,Left Hip Angle,Right Hip Angle,Left Knee Angle,Right Knee Angle
0.0,23.43265772647638,38.90145948694324,153.02955318641892,161.37763156970527,135.61755245146605,133.78385186915028,202.70268723894952,207.34093830496727
0.0333667000333667,24.67011449332935,39.00112842208001,153.99648423752402,161.50111568327932,135.21217058744182,134.0371760791687,202.6060952787848,206.6548970893936
0.0667334000667334,25.802942476016703,39.02284979986646,154.91580391992102,161.57174985705697,134.8564722207375,134.32563379386332,202.5043843728892,205.98310491946955
0.1001001001001001,26.83449472259684,38.96933414584963,155.78974504313754,161.58927006951583,134.5471742423005,134.64751859858643,202.39934088052692,205.3248594793197
0.1334668001334668,27.76812428112813,38.84329198557656,156.6205404167013,161.55341229913353,134.28099354307835,135.00112407869014,202.2927511609624,204.67945845306875
0.1668335001668335,28.60718419966902,38.647433844594296,157.41042285013998,161.46391252438764,134.0546470140185,135.38474381952662,202.18640157345973,204.0461995248413
0.2002002002002002,29.35502752627788,38.38447024844988,158.16162515298123,161.32050672375578,133.8648515460684,135.7966714064481,202.0820784772833,203.42438037876204
0.2335669002335669,30.015007309013097,38.05711172269034,158.87638013475276,161.12293087571555,133.7083240301755,136.23520042480675,201.9815682316973,202.8132986989555
0.2669336002669336,30.59047659593309,37.66806879286274,159.55692060498225,160.8709209587446,133.5817813572873,136.69862445995471,201.8866571959661,202.2122521695464
0.3003003003003003,31.084788435096243,37.22005198451409,160.20547937319736,160.56421295132048,133.48194041835126,137.1852370972442,201.799131729354,201.62053847465927
0.333667000333667,31.50129587456096,36.71577182319145,160.82428924892577,160.20254283192082,133.40551810431478,137.6933319220274,201.7207781911251,201.03745529841885
0.3670337003670337,31.84335196238564,36.15793883444186,161.41558304169516,159.78564657902325,133.3492313061254,138.22120251965646,201.65338294054385,200.4623003249497
0.4004004004004004,32.11430974662867,35.549263543812344,161.9815935610332,159.31326017110533,133.30979691473055,138.76714247548355,201.5987323368745,199.8943712383765
0.4337671004337671,32.31752227534846,34.892456476849965,162.5245536164676,158.7851195866447,133.28393182107772,139.3294453748609,201.5586127393812,199.3329657228238
0.4671338004671338,32.4563425966034,34.19022815910175,163.04669601752605,158.20096080411898,133.26835291611434,139.90640480314067,201.5348105073284,198.77738146241632
0.5005005005005005,32.53412375845189,33.44528911611474,163.55025357373614,157.56051980200573,133.25977709078788,140.49631434567505,201.52911199998024,198.22691614127865
0.5338672005338673,32.55421880895233,32.660349873435976,164.03745909462566,156.8635325587826,133.25492123604582,141.0974675878162,201.54330357660112,197.6808674435354
0.5672339005672339,32.51998079616336,31.83812095661279,164.51054538972346,156.1097350529285,133.2505022428367,141.70815811491738,201.5791715964569,197.1385330533129
0.6006006006006006,32.43945680662484,31.00103748911889,165.0645608260453,155.39187750464924,133.2343107592245,142.38579286643233,201.69906368209703,196.54165026296067
0.6339673006339673,32.28913751779467,30.103345911741386,165.5095243454253,154.54904402295347,133.20412112010482,143.0695410829657,201.85209019987207,195.9182812511544
0.6673340006673341,32.03786344097543,29.195008404947856,162.8765558744827,153.88839284279524,133.15391962563834,143.72263014275703,202.0278766990561,195.3215649029692
0.7007007007007008,31.77794132970852,28.235887502308938,161.03848592311647,153.10246321627784,133.07601776946603,144.3677861030855,202.2334254727425,194.74115769886205
0.7340674007340674,31.57423046756721,27.46030397489239,160.90428789325654,152.2956601740443,132.98468528535574,144.99628383304355,202.4620263914468,194.18355128536325
0.7674341007674341,31.34638800640601,26.5800241288679,161.98862289703928,151.15439115580318,132.84987668095104,145.61012103401964,202.7331733604925,193.64094607833937
0.8008008008008008,31.145382092092618,25.62308809081248,163.46094201879492,149.86857810564862,132.6956413358016,146.19592718716845,203.0399072367535,193.13686533357503
0.8341675008341676,30.88170274886309,24.57928270321316,165.3172679268209,148.36698583900434,132.51141610733453,146.77688820889225,203.35630074293613,192.64444422889392
0.8675342008675342,30.698324057873226,23.44383548044957,172.34862278844466,147.0376950635562,132.33765437038906,147.3447806519854,203.647349545126,192.18231256055577
0.9009009009009008,30.50663784242493,22.229418555965783,178.3253798692022,145.49240860862037,132.14551257926183,147.9132754447336,203.9179251714316,191.70899763725944
0.9342676009342676,30.19914697771797,21.04664179381353,183.31390302561823,144.0272294012207,131.90862264324844,148.44473933055363,204.1873888815455,191.26033241003643
0.9676343009676344,29.78013108334573,19.76855506602193,187.8380540514566,142.31261728149963,131.6493721515081,148.99195709918874,204.4490881691353,190.80997169052816
1.001001001001001,29.432128919773472,18.30094428935781,193.2698694966557,141.02333228248145,131.39074155861394,149.52332088465337,204.66916428553048,190.397436041788
1.0343677010343677,29.031051801396384,16.743271902968665,196.47480774351817,139.37306847625268,131.13906349652703,150.04860924200045,204.85126614517327,190.03155955286803
1.0677344010677343,28.54869219428181,15.289188168685682,196.46022732773469,137.5500605521445,130.89578091318384,150.54456942453172,205.02347875390387,189.68918908906693
1.1011011011011012,27.925931026739416,13.904944536667228,194.8850789490489,135.25284629223114,130.68218455031752,151.03128894564236,205.17978421161024,189.3833648029652
1.1344678011344678,27.202224453302367,12.50112400926867,194.7974566009508,132.90967178968947,130.47672566188191,151.48471326996184,205.3335554876652,189.1292942112855
1.1678345011678346,26.302277455414824,11.196288508323764,193.9239474619219,130.10172888690218,130.29766463497597,151.93876193068715,205.4731885419976,188.89569837339755
1.2012012012012012,25.348465473026607,9.920845216102444,191.3264605466481,127.39542382836878,130.1412939849756,152.36695256247523,205.5965617612985,188.7147976317412
1.234567901234568,24.34780932935618,8.706633495778759,187.25797455756583,124.09277049750553,129.9990695471444,152.7817446225782,205.7247050323332,188.50722231309751
1.267934601267935,23.74117719563635,7.572844502904788,181.61623715986025,120.63895156299412,129.8609404631453,153.15955358943796,205.8392584492346,188.3060777199262
1.3013013013013013,22.91049396931199,6.6413827920003685,174.545262668254,116.76224401010644,129.73420072783773,153.4600658137207,205.9566924006444,188.20977822184088
1.334668001334668,21.974223886474768,5.834784568795444,166.06018580652048,112.678675488516,129.63166542573484,153.6965750904412,206.05182458215967,188.19634107103656
1.3680347013680347,20.967199544805883,5.253148014752515,156.86822830497698,108.1507848746243,129.5588935394824,153.92591831342793,206.1200581921681,188.18876923556184
1.4014014014014016,19.798363796735146,4.902540626907979,147.31557256267106,103.57906949036771,129.47401952399656,154.13950674018386,206.1640359884318,188.20791158949348
1.4347681014347682,18.60817433231493,4.674173317348287,137.36689241657805,98.5319852536512,129.41854290183298,154.3272274001309,206.1916464272276,188.26164439311745
1.4681348014681348,17.08193651578824,4.658418474047306,125.22782622027545,92.8019355943303,129.40008682266927,154.4426249098812,206.21399908788885,188.3482336884444
1.5015015015015016,15.593036772347682,4.658418474047306,113.28474385568096,86.855619713886,129.4402788856347,154.54837965410022,206.23434152596948,188.38448541670311
1.5348682015348682,14.04142020019142,4.658418474047306,101.55524672956724,80.7299962845209,129.5608927949088,154.60294347211996,206.23982207792704,188.403143773262
1.5682349015682349,12.574914540996916,4.658418474047306,90.25539917274288,74.52791533785756,129.7287927044102,154.65951987572413,206.2900892416858,188.3659032893713
1.6016016016016017,11.23376721246077,4.658418474047306,79.47904404576737,68.30563063361816,129.94040919323845,154.678849718951,206.36114663820592,188.32156630902747
1.6349683016349683,10.095321563116402,4.658418474047306,69.35375947900815,62.25096499676333,130.15338010511974,154.70118790121222,206.48596763104217,188.2915987763604
1.6683350016683351,8.79536343901618,4.658418474047306,59.52892599288598,56.42069395035574,130.4271052262632,154.73652547647174,206.65238999308824,188.2803333876245
1.7017017017017018,7.882961731435341,4.658418474047306,50.55493237254446,50.727705160756415,130.68830091593995,154.76131213148864,206.86490424418355,188.29242606995112
1.7350684017350684,7.223133940203617,4.658418474047306,42.33702116895109,45.29619009895698,130.94052661792193,154.7685438361007,207.1240040922532,188.3393331029104
1.7684351017684352,6.9378193237775285,4.658418474047306,35.22978687597912,40.13656868076746,131.18267897477588,154.76271415686392,207.36676574229352,188.4272708661873
1.8018018018018016,-1.7988101502391856,4.658418474047306,29.29661098899033,35.39381250153975,131.38987974924504,154.75513526239456,207.59317292237745,188.5456025692048
1.8351685018351689,-1.7988101502391856,4.658418474047306,28.71263521467837,30.862980606965145,131.57522499177293,154.76676266080858,207.81117041258247,188.66831388372
1.8685352018685355,-1.7988101502391856,4.658418474047306,30.72710589272574,26.80844854741676,131.73988305591377,154.78557528769107,208.0078102202602,188.7931341204292
1.901901901901902,-1.7988101502391856,4.658418474047306,34.45976576832534,23.174784724613723,131.87202786759113,154.7965116914454,208.18363815257624,188.934130125092
1.9352686019352687,-1.7988101502391856,4.658418474047306,39.939483119925605,20.21741080105201,132.00227594964167,154.79405845654853,208.33870527512823,189.09109222066283
1.968635301968636,-1.7988101502391856,4.658418474047306,47.8797621503736,17.9315199951883,132.10661357612392,154.7753502699029,208.465024545686,189.25410704152267
2.002002002002002,-1.7988101502391856,4.658418474047306,58.35750557831744,16.378373373946364,132.2034165797102,154.7368122250054,208.566580505057,189.4226636675137
2.035368702035369,-1.7988101502391856,4.658418474047306,65.05165617416469,15.1881904523854,132.24579950020174,154.68617058219823,208.6658832934347,189.5685177553605
2.0687354020687354,-1.7988101502391856,4.658418474047306,72.66050522908502,14.670387860979272,132.26834174561216,154.62367041460826,208.7442974924703,189.7083452803165
2.1021021021021022,-1.7988101502391856,4.658418474047306,80.9325272122293,14.542460390890216,132.27015671499836,154.55105103385588,208.79189670077787,189.826026147873
2.135468802135469,-1.7988101502391856,4.658418474047306,89.08386467612176,15.139646130559893,132.26832869954006,154.47381088954575,208.7766484993844,189.91157824643227
2.1688355021688355,-1.7988101502391856,4.658418474047306,94.90900120884916,15.644607651813798,132.23356855806895,154.3934405731546,208.7624070791802,189.9635005727392
2.2022022022022023,-1.7988101502391856,4.658418474047306,100.99256928320212,16.574766072194162,132.1694401111279,154.31706290122162,208.74507838295315,189.9961094727245
2.235568902235569,-1.7988101502391856,4.658418474047306,109.02525718684718,17.734980315848034,132.07261880549743,154.23748119508616,208.7332365851396,190.0512874810416
2.2689356022689355,-1.7988101502391856,4.658418474047306,118.03518289941968,19.38366460836068,131.92514091844973,154.17812582903184,208.7240269526993,190.0686399094198
2.3023023023023024,-1.7988101502391856,4.658418474047306,124.3631567870599,21.13350970530278,131.71657267068542,154.11755064832593,208.72623390443133,190.0515623689561
2.335669002335669,-1.7988101502391856,4.658418474047306,129.26918246289955,23.312408267353508,131.44407846723504,154.09977807737476,208.71713313064265,189.9285071672125
2.369035702369036,-1.7988101502391856,4.658418474047306,133.58392439299055,25.287784650763392,131.13311148300718,154.07008984001402,208.70837704750787,189.7848792912299
2.4024024024024024,-1.7988101502391856,4.658418474047306,137.12456643122755,27.47014737316065,130.76988889577865,153.99550024114836,208.73460251494225,189.6574280457815
2.4357691024357693,-1.7988101502391856,4.658418474047306,140.2181391621667,29.38236795259182,130.3970129368801,153.87727106194797,208.7956156850649,189.5766982568323
2.469135802469136,-1.7988101502391856,4.658418474047306,142.90537318399993,31.291365711961657,130.0452737280065,153.72434451302735,208.84630304794504,189.52308088881
2.5025025025025025,-1.7988101502391856,4.658418474047306,145.52039026609808,32.940641069855566,129.6941752435408,153.51950899604194,208.94097064460408,189.52117728422465
2.5358692025358693,-1.7988101502391856,4.658418474047306,147.67095212348232,34.60518918646539,129.3275314261234,153.37041682131496,209.10431571331367,189.4195868479368
2.569235902569236,-1.7988101502391856,4.658418474047306,148.88879654231616,35.710811621822145,129.00127616523827,153.15842104469456,209.3311288772339,189.34069989787977
2.6026026026026026,-1.7988101502391856,4.658418474047306,149.60161074899997,36.64670963190966,128.7265688168596,152.95541400785933,209.5541854125192,189.22821235626483
2.6359693026359694,-1.7988101502391856,4.658418474047306,151.6054147966894,37.68308775663908,128.48083538908395,152.6811985941404,209.80794071835032,189.21272771160992
2.669336002669336,-1.7988101502391856,4.658418474047306,154.36425961915634,38.683750752579385,128.21782169550187,152.38636923202682,210.124354882047,189.1648068616788
2.702702702702702,-1.7988101502391856,4.658418474047306,156.62639340099494,39.61544424072952,127.9573845034512,152.02720126407692,210.48957368156383,189.2623398859296
2.736069402736069,-1.7988101502391856,4.658418474047306,158.54188173870918,40.744200664221474,127.6814802796228,151.69534141183226,210.86797963066024,189.2801190566731
2.7694361027694363,-1.7988101502391856,4.658418474047306,159.59547852634495,41.30022909610968,127.40529570684792,151.3070345065054,211.2843942553752,189.4978578717528
2.802802802802803,-1.7988101502391856,4.658418474047306,161.86728003190828,41.01918393936279,127.18664047597235,150.94644037485327,211.7429530185866,189.8091099600391
2.836169502836169,-1.7988101502391856,4.658418474047306,163.42654254821795,40.513951984136085,126.94227852088471,150.47674320927658,212.22621730053217,190.3721424302564
2.8695362028695364,-1.7988101502391856,4.658418474047306,163.9219513400541,38.30940546939196,126.64630015674416,149.94684593673506,212.7887120164077,191.00780998307783
2.902902902902903,-1.7988101502391856,4.658418474047306,162.9251300684109,36.32275719602153,126.34720087078053,149.2979375477379,213.3504183817141,191.8991736698606
2.9362696029362696,-1.7988101502391856,4.658418474047306,158.61703036440014,33.727499277131564,126.04399077016386,148.56868387624274,213.9603878539412,193.014114345501
2.9696363029696364,-1.7988101502391856,4.658418474047306,153.96130815278505,31.694851324047107,125.8030290426158,147.75399953579426,214.53997527473143,194.3637618933444
3.003003003003004,-1.7988101502391856,4.658418474047306,143.56333720957934,29.703904208858223,125.59362106956914,146.8624529310617,215.07398789507155,195.97764332097017
3.0363697030363697,-7.138622382778065,4.658418474047306,133.0775996061385,28.3826057852296,125.48861119789548,145.9226306699085,215.52221264991368,197.7757381694548
3.0697364030697365,-9.17355852036374,4.658418474047306,125.87074685127725,27.18775439604679,125.40793945217015,144.92236172807594,215.8585570964349,199.7347756523673
3.103103103103104,-8.39906667591347,4.658418474047306,119.7506548162977,26.7017099786012,125.437007293595,143.90994187888109,216.0794751257744,201.7938526251042
3.1364698031364697,-5.019206358101438,4.658418474047306,114.40916328673204,26.35457324324216,125.54122175083064,142.87683861123512,216.21757807804715,204.0521686249714
3.169836503169837,0.6439259218118467,4.658418474047306,109.85616059261012,26.8588033298098,125.80404171511564,141.89047229578784,216.2169287474454,206.34450091917
3.2032032032032034,0.6439259218118467,4.658418474047306,106.21402075964458,27.8028122679605,126.05101691681756,140.77408174456417,216.29165108361832,208.76223584309392
3.2365699032365702,8.381388160937508,4.658418474047306,103.3975805235621,29.58261381777172,126.33544763478172,139.66690603673123,216.32004781851697,211.1355513290564
3.2699366032699366,17.88059324517963,4.658418474047306,101.43381028818628,31.728410831967366,126.6050682757042,138.64320089035232,216.2133697720338,213.47592909229803
3.3033033033033035,29.05323210946112,4.658418474047306,100.32539076676224,34.65269389473507,126.9923409682553,137.7237482293336,216.00174945444897,215.67192399973936
3.3366700033366703,41.889458694066015,4.658418474047306,100.3602314920094,37.98624043561407,127.45915902433588,136.67604393231113,215.6443470828152,218.30979922999853
3.3700367033700367,56.20478278686952,4.658418474047306,101.49312864079646,42.334719104352345,127.88029223675592,135.95791876221514,215.35727686654067,220.3036737873098
3.4034034034034035,71.48583265492483,4.658418474047306,101.9509767612483,46.94645593538037,128.4637005613663,135.30365017214902,214.85208469021885,222.21244041119004
3.4367701034367704,87.57089067458621,4.658418474047306,103.46767763743352,52.25977464600339,129.08416806780903,134.86990489385568,214.26765969561995,223.7178233687173
3.4701368034701368,104.25601913226176,4.658418474047306,108.30526909214944,59.22924199873402,129.92881185999642,134.9681521568815,213.84892516900075,224.5983224272952
3.503503503503504,121.44837734487253,4.876441450664182,113.29529375693669,67.10975160900742,130.95195990844982,135.2108581583609,213.29996347751168,225.18733653673
3.5368702035368704,138.98704349702035,5.219558910711855,118.6212421851154,78.09171145097598,132.05126978927845,135.62906938922404,212.72332724352736,225.55457983607505
3.5702369035702373,156.75290429451277,5.780161460166283,122.83088915732516,90.2248873770908,133.3034823334489,136.07999726176018,211.9495797011496,225.6884095469724
3.603603603603604,174.4222156804946,6.5658522973824125,130.7815392137631,101.51504080051458,134.54575046611268,136.53095373069746,211.19897658638047,225.66275088564387
3.6369703036369705,191.816793297449,7.629901457483861,136.21098604294124,111.79105031453754,135.9002557024438,137.06501992904907,210.2712260347928,225.34556670814013
3.670337003670337,208.1524427297504,8.93227791444376,142.788051380386,119.74866833713192,137.27271727791867,137.6963355642229,209.2571921090853,224.70308693681105
3.703703703703704,223.77546926258825,10.354161818711454,148.56114101429594,126.1280191544829,138.71340855232518,138.30571873147937,208.0614213873169,223.8648279568401
3.737070403737071,238.36178823798343,11.93866089614173,153.03068919510224,130.17344462731722,140.19162648223008,138.92822501663647,206.75217318625545,222.7869541177164
3.770437103770437,251.55178086669645,13.647716707159551,156.5046945046802,133.66401467035368,141.67322994588366,139.5085362005104,205.378518146776,221.5370018610768
3.803803803803804,263.4677963866596,15.43828646659773,159.77123091636562,135.132114463657,143.13741461882805,140.2004735721642,203.9529420432236,220.02525388217856
3.8371705038371706,273.4497258312948,17.317298951284272,160.0418118472201,135.0949774407218,144.64473345275155,140.84896913289276,202.39742540869943,218.4644173700776
3.8705372038705375,282.3093282152864,19.27627116034773,158.51778519338214,133.2430753970035,146.17648742607938,141.6068978642566,200.71639844264712,216.71245639064384
3.903903903903904,299.51383858386407,21.06415889905941,154.65138865198494,128.21068740362236,147.74103115088,142.28402016964003,198.98449369029788,215.09423904324785
3.937270603937271,312.4132106421077,22.852545108044563,149.5661820013633,122.95037050997928,149.30085288136962,143.03142237814745,197.25833283424527,213.39672419578056
