Time,Left Shoulder Angle,Right Shoulder Angle,Left Elbow Angle,Right Elbow Angle,Left Hip Angle,Right Hip Angle,Left Knee Angle,Right Knee Angle
0.0,23.94755497733972,31.06104794146788,142.69786870816088,150.84871799477023,132.3174470663148,134.99993971212876,200.3421709709999,198.4121275638142
0.0333667000333667,22.865289679349274,31.42039315964778,145.80160547009189,151.7957222492069,132.30891131149562,134.82484579853252,200.26989251953188,198.23197974298705
0.0667334000667334,21.93388140777621,31.74602796678616,148.5264449636735,152.67190560693172,132.3039291467161,134.69072252292543,200.17904369758568,198.08084213412732
0.1001001001001001,21.145545340154563,32.037375604802484,150.89305830269893,153.47715173143672,132.30219418607462,134.59465158765158,200.0716821170132,197.9570768249224
0.1334668001334668,20.49249665401836,32.293859315616224,152.92211660096132,154.21134428621394,132.30340004366954,134.53371469505498,199.94986538966648,197.8590459030592
0.1668335001668335,19.96695052690164,32.51490234114686,154.63429097225386,154.8743669347555,132.30724033359925,134.5049935474797,199.81565112739733,197.78511145622485
0.2002002002002002,19.56112213633844,32.699927923313844,156.05025253036976,155.46610334055336,132.31340866996214,134.5055698472698,199.67109694205777,197.7336355721065
0.2335669002335669,19.2672266598628,32.848359304036656,157.19067238910216,155.9864371670996,132.32159866685654,134.53252529676936,199.5182604454997,197.7029803383912
0.2669336002669336,19.077479275008752,32.95961972523477,158.07622166224425,156.43525207788633,132.33150393838088,134.58294159832244,199.3591992495751,197.69150784276604
0.3003003003003003,18.984095159310336,33.03313242882764,158.72757146358924,156.81243173640553,132.34281809863347,134.65390045427307,199.1959709661359,197.69758017291812
0.333667000333667,18.979289490301586,33.068320656734755,159.1653929069303,157.11785980614926,132.35523476171275,134.74248356696532,199.030633207034,197.7195594165347
0.3670337003670337,19.05527744551653,33.06460765087557,159.4103571060606,157.35141995060957,132.36844754171705,134.84577263874326,198.86524358412137,197.7558076613027
0.4004004004004004,19.204274202489216,33.02141665316957,159.48313517477328,157.51299583327852,132.38215005274478,134.96084937195096,198.70185970925,197.80468699490925
0.4337671004337671,19.41849493875368,32.93817090553621,159.4043982268616,157.60247111764818,132.39603590889428,135.08479546893244,198.54253919427168,197.8645595050415
0.4671338004671338,19.690154831843955,32.81429364989497,159.1948173761187,157.61972946721056,132.40979872426396,135.21469263203178,198.3893396510385,197.9337872793865
0.5005005005005005,20.011469059294075,32.64920812816531,158.87506373633775,157.56465454545773,132.42313211295215,135.34762256359306,198.2443186914024,198.01073240563144
0.5338672005338673,20.37465279863808,32.44233758226672,158.46580842131195,157.4371300158817,132.43572968905727,135.4806669659603,198.10953392721515,198.0937569714633
0.5672339005672339,20.77192122741018,32.193105254118926,157.98772254483566,157.23703954197595,132.44728506667877,135.6109075414787,197.9870429703305,198.1812230645709
0.6006006006006006,20.87709537314753,31.885258758246657,157.50908817448175,156.9586006779625,132.4985784876015,135.72585573726556,197.92340677309616,198.2947407567448
0.6339673006339673,21.174157083677404,31.51858640344465,157.15286999668098,156.59155732683462,132.51315423126113,135.80333401998013,197.8865988434772,198.3990512636053
0.6673340006673341,21.5855562725602,31.06878100025827,156.82482002965256,156.08637877930815,132.49970760366176,135.86751614485988,197.8677924398084,198.487310489264
0.7007007007007008,22.040592766887656,30.566055828622453,156.5616459297249,155.50578469212337,132.47853572722485,135.91437823124102,197.8705270366912,198.5623965889322
0.7340674007340674,22.47704265500625,29.96095635701364,156.33132122778977,154.74295970960637,132.46005976853854,135.97604633630772,197.8707075997896,198.5827947628323
0.7674341007674341,23.02411593370239,29.30127092172221,156.10349664440915,153.87667692289344,132.45605892448805,136.02788261421358,197.8634828500247,198.5901330594561
0.8008008008008008,23.49945434249585,28.56008875197178,155.7118273381953,152.89639428736146,132.47401378204594,136.06295286613755,197.8619739168038,198.59078695504456
0.8341675008341676,24.005545791485467,27.779563541174728,155.25907137638524,151.87053240929632,132.4625039371328,136.057671412974,197.90507820007048,198.5748403035156
0.8675342008675342,24.61011088739876,26.9939775031417,154.78194859402143,150.75021567844476,132.4134670369616,136.0060741663909,197.99737778898788,198.54708792233947
0.9009009009009008,25.00831105450913,26.242436272049744,154.28967015959014,149.66635419271455,132.34438037412474,135.90953509728809,198.1209439009137,198.5484340186774
0.9342676009342676,25.26823118733461,25.61864032221504,154.36503303814956,148.6824079042954,132.30648957500563,135.7753057284805,198.2211958543662,198.5808541457088
0.9676343009676344,25.39004468419496,25.06752089345917,154.6558315373377,147.81457206497208,132.2848809926343,135.61700450865317,198.3155326600593,198.63942452098
1.001001001001001,25.462305435842744,24.671876937123145,155.12045226356184,147.2222270456894,132.2726381098262,135.4546416431566,198.3894475999428,198.7098648247077
1.0343677010343677,25.303956813165865,24.30263656636261,155.7658722924755,146.73569505541613,132.22793711985332,135.29525267714612,198.505739791024,198.7955684290204
1.0677344010677343,24.94602364179829,23.78312303174288,156.58312204816949,146.05238395112684,132.13313968730148,135.09378855815137,198.7117310557241,198.89509286434568
1.1011011011011012,24.8133974489315,23.21546221148655,156.66858696215053,145.36415492718558,131.99262857043954,134.87771843950864,198.97014855155368,199.0220618426911
1.1344678011344678,24.73659364797513,22.6578386186701,156.61330384707108,144.59253281710224,131.83038671257538,134.6465153224815,199.24599398004105,199.1685514124406
1.1678345011678346,24.796855404782228,22.08516486264722,156.7908387936627,143.90286141749658,131.61785264623728,134.41290194002497,199.55013071475835,199.334784039966
1.2012012012012012,24.953221174370466,21.56577840182204,157.00208044310435,143.2523639289712,131.31224217496768,134.2017275997519,199.8550241112289,199.5347615931162
1.234567901234568,25.05508270026432,21.175486672373456,157.29004862073293,143.0614659608719,130.99402714191535,133.96078302052234,200.26327487018287,199.7522821842032
1.267934601267935,25.07514766860819,20.86170823907327,157.41034501371917,143.0785982422674,130.73441686045163,133.63473929373032,200.61266022173163,199.98474556094763
1.3013013013013013,24.97865728815124,20.62652532391684,157.41738042068437,143.2775952011503,130.4895410322318,133.37270135269313,200.9553186167821,200.22360051809585
1.334668001334668,24.79663872624017,20.548308194537903,157.31787209336136,143.6087822076752,130.2552175283303,133.14018764237744,201.1961821728184,200.4788300726993
1.3680347013680347,24.634967119838382,20.48871312147377,157.4661323184394,143.970585886653,130.0329826071768,132.96940970526603,201.48478378307053,200.72862190902103
1.4014014014014016,24.56343642269884,20.47408482054644,157.62175141391037,144.3568031622514,129.76554828706955,132.874581513669,201.9114627183688,200.96837694780092
1.4347681014347682,24.51744320650931,20.51479252965752,158.06244471561382,144.90920570708892,129.5051144797137,132.87496483908444,202.3747687830252,201.2000827630673
1.4681348014681348,24.48947748938762,20.64776897937153,158.7813131084529,145.6820833945842,129.41094364537264,132.97901811727627,202.62372824229092,201.3669095089205
1.5015015015015016,24.46506022085716,20.700907495428847,159.77380808408645,146.25374253504464,129.38282810338407,133.17423854762697,202.7700901638828,201.5101886781953
1.5348682015348682,24.451732217551413,20.927314987359505,160.66662890269282,146.8940173905296,129.27320270831228,133.41738316630875,203.013593423326,201.66799235024487
1.5682349015682349,24.42895787967421,21.1088963936946,161.82234786269763,147.47991715213925,129.14134901963916,133.7007248321379,203.29148405853385,201.8158205853416
1.6016016016016017,24.47829868216953,21.54059951189769,163.20504492922927,148.2966638748332,128.7985262833309,134.01644391068874,203.7852571240599,201.8619487199492
1.6349683016349683,24.55230085277168,21.942771801470226,164.96364184668113,149.0437989704704,128.4465319295973,134.38005447252445,204.2483747511968,201.88048844295253
1.6683350016683351,24.663143450033523,22.321596115811527,166.89021733432023,149.66130706329963,128.11581459438918,134.7260768399276,204.68407861597584,201.93192893211827
1.7017017017017018,24.76627576975595,22.45764907364917,169.04086802825069,150.10124524703502,127.81016523545117,135.14801780609665,205.0722559698508,201.953789520564
1.7350684017350684,24.969321922301635,22.304684998554286,171.47736539435093,150.26980401523738,127.51180257831447,135.6436199250693,205.41713866541147,201.9621447608185
1.7684351017684352,25.13207424629213,21.900500638750525,174.15186171346886,150.13873296348805,127.2382831891952,136.19901571977942,205.73192857741137,201.9387878110844
1.8018018018018016,25.29803435492656,21.367957798467167,177.1625165231465,150.22244846787476,127.0501703488791,136.80152112923892,205.98388107018147,201.92623567287632
1.8351685018351689,25.293138590277064,20.625274850028624,180.0384023207197,150.13415505040817,126.89021444417722,137.44757724129357,206.22862120096607,201.86641458308208
1.8685352018685355,25.084050901346785,19.8088985702886,182.45185039484832,149.8289376047404,126.7260981291805,138.1409753892093,206.42293580588444,201.72988844961407
1.901901901901902,24.71229220847701,18.92701479123193,184.79147853650247,149.36143814674116,126.51917815041156,138.83282992911865,206.6354431992897,201.561200120217
1.9352686019352687,24.36386752612099,17.753272498584863,186.88910685649705,148.61867898602733,126.35890165328549,139.5279409167877,206.86104446492223,201.339056671112
1.968635301968636,23.993116605332343,16.61503491392761,188.9173581423305,147.79021434124252,126.20519315060052,140.22358812203308,207.09919191275728,201.05440414312608
2.002002002002002,23.61345696169268,15.441535617836454,190.9728930164548,148.6850238725854,126.05335300974288,140.9322788777043,207.3005667726204,200.7348132321976
2.035368702035369,22.967098122681488,14.409581691788658,193.03296349416087,149.94612969186906,125.9248585680483,141.656328128308,207.46056206507373,200.3952634774927
2.0687354020687354,22.098782729559247,13.369127040906951,194.57635960775409,150.42653579609495,125.82499171969708,142.3836062852859,207.60004068221133,200.01199105278047
2.1021021021021022,21.16145714639788,12.319043145820762,196.07121229795823,150.16072662193892,125.6876802895036,143.1022027482174,207.78607972565905,199.5875599620157
2.135468802135469,20.00594949890633,10.9745774434441,199.9190521549729,149.3738607347492,125.54706017155168,143.77950023527097,208.00443498862128,199.1282179166403
2.1688355021688355,18.88945532685768,9.566094225798432,202.9090353418076,147.7265114332288,125.35316919438208,144.37578056870262,208.31203387384176,198.66752625461265
2.2022022022022023,17.357268942254027,8.121363812101281,204.80772578767488,145.44415296423557,125.07745760772173,144.86805460827554,208.7152664405928,198.2077406520569
2.235568902235569,15.867527786115362,6.925459349146867,205.8486391903824,142.7778503636291,124.7684526136456,145.3158919657387,209.14715335915884,197.76755535840823
2.2689356022689355,14.053231372524944,5.722820822089807,205.74978615209017,139.97441975443064,124.43877879421436,145.72019061299682,209.60063124828,197.359042633598
2.3023023023023024,12.421700725380248,4.883167499797231,204.8547382099604,136.87051781674475,124.09516715304105,146.06141116671225,210.0878918468749,196.9866558067942
2.335669002335669,10.879158179968746,3.590096272757749,203.55858909721505,132.74885290124377,123.76627617055324,146.3509779028168,210.5949180119237,196.64625429222943
2.369035702369036,0.2000007770455405,2.96133260221203,201.56444468256572,128.9768135700047,123.53768881828864,146.56287826013494,211.10201420665013,196.30853057951592
2.4024024024024024,-6.93544081170291,2.96133260221203,198.9460630183156,125.30766610548184,123.37725218183438,146.7105469928851,211.47236843227017,195.98434991586203
2.4357691024357693,-10.795712411695437,2.96133260221203,195.9659542474204,121.03422148616858,123.20555798936918,146.88844319893258,211.8193283656157,195.6789429760919
2.469135802469136,-11.478348469898638,2.96133260221203,192.66389690167296,117.37961119565978,123.0690094549836,147.03290594879994,212.1237382629526,195.39675557585
2.5025025025025025,-9.425689351005442,2.96133260221203,189.3088041474652,112.0660079213982,122.9452214890947,147.16460796512607,212.5423431562536,195.11215129483548
2.5358692025358693,-4.868221460209551,2.96133260221203,185.76067405101148,105.23332698224,122.85024854748988,147.25750600955524,212.9543838148544,194.840847098652
2.569235902569236,1.895216064898624,2.96133260221203,182.42501556037547,98.46394837174743,122.84044814957076,147.30717532850514,213.22070930092144,194.5794652590164
2.6026026026026026,1.895216064898624,2.96133260221203,178.95567871071674,91.72985012741638,122.86044276828898,147.28678153275146,213.3773080355058,194.3401480458744
2.6359693026359694,1.895216064898624,2.96133260221203,175.452215145519,85.26051779445437,122.7094231153646,147.1823633465163,213.70802255450812,194.1793134682113
2.669336002669336,1.895216064898624,2.96133260221203,172.16496124293766,79.28362327796782,122.4167936529112,146.9870842393155,214.18952942287785,194.0717321299672
2.702702702702702,1.895216064898624,2.96133260221203,169.4048407741434,73.65895476033664,122.1117568531086,146.76088962531463,214.6554072774512,193.95390239862647
2.736069402736069,11.019517363870731,2.96133260221203,166.98642013168757,68.49609152464063,121.8058214428182,146.5026227689087,215.07759636569813,193.8297550089225
2.7694361027694363,21.97372916788901,2.96133260221203,164.8766928429057,63.857106390178565,121.71103966787663,146.2257845625177,215.26376674172613,193.8057501701676
2.802802802802803,34.517273175058584,2.96133260221203,162.97060265388157,59.64806476051895,121.6838488048048,145.9143395319571,215.41311441131936,193.8626000637607
2.836169502836169,48.45338728198153,2.96133260221203,161.4578391591878,56.03499123934075,121.69271503498268,145.67455552116192,215.5648747625464,193.90609594135503
2.8695362028695364,63.66024715450281,2.96133260221203,160.22353163688953,52.67623754408204,121.71875031119238,145.42175095769448,215.70675318159857,193.9965747873773
2.902902902902903,79.77375010500411,2.96133260221203,159.14454417217576,50.1649965323935,121.77948622443036,145.19955119083508,215.8620947238373,194.0677448849803
2.9362696029362696,96.736832985742,2.96133260221203,158.29859079782415,48.70927018691374,121.90783240036644,145.01561457483493,216.00689685817585,194.1297458323877
2.9696363029696364,114.21248922941196,2.96133260221203,157.40549936071884,47.779744862854805,122.0192214908596,144.93362056160137,216.18428348528408,194.0468925941891
3.003003003003004,132.12421060498772,2.96133260221203,156.5697829086278,47.6957139254416,122.1388512553076,144.98128889147554,216.3443191784152,193.7972082293328
3.0363697030363697,150.02008320041108,2.96133260221203,156.27002872755793,48.49607247650443,122.28035214441928,145.14000118437232,216.56330832355167,193.4213620133389
3.0697364030697365,167.7779432482489,2.96133260221203,156.31457760510946,50.0938351152365,122.48059862160105,145.35890337629684,216.81163064100488,192.9486603009826
3.103103103103104,185.1382106060924,3.202042173427889,156.9322545085999,52.78368633931322,122.66140300292136,145.64582614378833,217.05329093082332,192.39738290444345
3.1364698031364697,202.021954550692,3.202042173427889,158.03115324299017,56.72371047691803,122.84486354985172,146.0065648692267,217.2926672053856,191.77334148715929
3.169836503169837,218.2144788705891,3.202042173427889,159.51959023350238,59.52814622595569,123.02106046515637,146.42923033206168,217.5847337492609,191.0881435127458
3.2032032032032034,233.5617181307435,3.202042173427889,161.56812582916208,61.72374667482595,123.14424949632404,146.8435157350806,217.9319986758589,190.39450199655693
3.2365699032365702,247.65750967974563,3.202042173427889,164.5793532778231,64.22325234893995,123.21584576908758,147.30331551763803,218.3327519660312,189.65363371151096
3.2699366032699366,260.40567905901275,3.202042173427889,168.40800131794325,67.06718756352677,123.20450189011817,147.79341693658617,218.80919881029692,188.8475248094224
3.3033033033033035,271.4279269962081,3.202042173427889,169.628338346333,69.9794901538027,123.12587911416163,148.35627887279458,219.339036116726,188.014688716814
3.3366700033366703,280.76517341653346,3.202042173427889,170.6439940443665,73.75142811558506,123.03690498481504,149.03092733255153,219.898213141161,187.07855384250223
3.3700367033700367,288.3111164064526,4.018175536844887,171.53792773244544,77.41481134029489,122.99227868472563,149.79673233852657,220.41590836384145,186.16116584286505
3.4034034034034035,293.63185985605605,5.212957849772909,171.87060517333694,81.2715918034939,122.92194620932555,150.70213114962124,220.9508982275904,185.1667950318904
3.4367701034367704,296.9487606141199,6.717215532404257,172.38083869190436,84.6030111573549,122.85574529586071,151.62242878056674,221.47022051633783,184.2363161420964
3.4701368034701368,297.7211437527748,8.557678284126615,172.89098918639377,88.60837008220042,122.63914003505894,152.413635399812,222.05905155398835,183.40669197588608
3.503503503503504,296.6430814633706,10.68349992383667,173.11702466337513,92.38844216928337,122.42727279207512,153.09907470220116,222.5813605997359,182.7188120292797
3.5368702035368704,293.14175317723715,12.892714112734907,171.07323732120926,94.10460918702914,122.0284024907485,153.79833532894108,222.9709563160409,182.09454760808745
3.5702369035702373,287.7376775794835,15.26839905107529,172.31861138546776,94.8025134007074,121.6539069188741,154.6426903302385,223.1721085418164,181.5899420926656
3.603603603603604,288.712685320943,17.81609663566132,169.8862614791899,94.2516193429146,121.7617435566343,155.2283403829928,223.41752907704085,181.09952934525376
3.6369703036369705,284.75976485777875,20.42025168338023,168.19788583888018,91.41876462800003,121.9578405793107,155.6632473157252,223.72594012449568,180.84430013231253
3.670337003670337,289.388368992494,23.1868971172514,170.81126267381757,84.50819570772073,122.13657287829945,156.44079945287007,223.64259251470008,180.89799309066288
3.703703703703704,291.3612485333671,25.9182733096482,173.2083426891467,79.90740075062268,122.39799626971612,157.0011919445516,223.58871867181395,181.27236053482852
3.737070403737071,291.7912733683093,28.590577353903505,176.0445356538929,77.30248989339236,122.60380151271036,157.38181698862158,223.7875719866844,181.86700386832013
3.770437103770437,289.6676067960217,31.139440206611305,178.25783195387453,75.7413646620887,122.90812291944312,157.58394247923033,223.9996481475692,182.68743892221687
3.803803803803804,285.3971569168345,33.21971535608169,179.18494584175386,75.77938126215547,123.54146408594156,157.65321742032336,224.13291698423825,183.55238149773072
3.8371705038371706,279.13471585075195,27.13385918980325,179.0660023423688,76.55638010235675,124.2584303650768,157.57969245139384,224.2292343278932,184.59236964190123
3.8705372038705375,271.11090039256464,32.04893197536588,178.72796818429666,77.32358477427304,125.111655474024,157.23007034188174,224.4212730412664,185.95032276471744
3.903903903903904,261.00368452412744,36.81175814313977,178.35691240776276,79.30865261709329,125.69747679071786,156.66344940813252,224.76930430358888,187.5085531119973
3.937270603937271,248.5776986924297,41.4102424760742,177.9602308308441,81.0934549915075,126.25899808482276,155.89678029887358,224.95503471416384,189.2727380873249
