Time,Left Shoulder Angle,Right Shoulder Angle,Left Elbow Angle,Right Elbow Angle,Left Hip Angle,Right Hip Angle,Left Knee Angle,Right Knee Angle
0.1001001001001001,4.818372463008026,6.168475661321854,197.01008052073496,163.1510185793681,166.54418185111513,208.8539957396729,177.986804265548,172.36844801134728
0.1334668001334668,4.580412357819664,5.49120208049678,195.36365972109908,165.04792993026425,166.0111839109971,209.12970687280944,179.01957482319295,171.79303811495816
0.1668335001668335,4.321798989097303,4.971311392695677,194.05617684602865,166.54368556545683,165.516579657216,209.40093493947057,179.93969379501146,171.2682106507823
0.2002002002002002,4.050163516192169,4.601374259939839,193.06550878686733,167.66882317927048,165.05987788016765,209.66645069226084,180.75286146887385,170.79163170705598
0.2335669002335669,3.7731370984554897,4.37396134425056,192.36953243495927,168.45388046602977,164.64058737024777,209.9250248837848,181.4647781326503,170.36096737201552
0.2669336002669336,3.49835089523849,4.281643307649136,191.94612468164823,168.92939512005938,164.2582169178522,210.1754282666468,182.0811440742112,169.97388373389722
0.3003003003003003,3.233436065892396,4.281643307649136,191.773162418278,169.12590483568394,163.91227531337665,210.41643159345145,182.6076595814268,169.62804688093735
0.333667000333667,2.9860237697684333,4.281643307649136,191.82852253619257,169.07394730722802,163.60227134721688,210.6468056168032,183.05002494216745,169.32112290137218
0.3670337003670337,2.7637451662178294,4.281643307649136,192.0900819267357,168.80406022901633,163.32771380976868,210.8653210893065,183.4139404443033,169.05077788343803
0.4004004004004004,2.57423141459181,4.281643307649136,192.5357174812513,168.34678129537343,163.08811149142784,211.07074876356583,183.7051063757048,168.8146779153712
0.4337671004337671,2.4251136742416004,4.281643307649136,193.14330609108333,167.732648200624,162.8829731825901,211.2618593921858,183.9292230242421,168.61048908540792
0.4671338004671338,2.324023104518428,4.281643307649136,193.89072464757552,166.99219863909263,162.7118076736512,211.43742372777083,184.0919906777856,168.43587748178456
0.5005005005005005,2.278590864773518,4.281643307649136,194.7558500420718,166.15597030510395,162.57412375500698,211.59621252292536,184.19910962420545,168.28850919273737
0.5338672005338673,2.278590864773518,4.281643307649136,195.7165591659161,165.2545008929826,162.46943021705314,211.736996530254,184.25628015137204,168.16605030650263
0.5672339005672339,2.278590864773518,4.281643307649136,196.75072891045207,164.3183280970532,162.3972358501855,211.8585465023611,184.26920254715563,168.06616691131669
0.6006006006006006,2.278590864773518,4.281643307649136,197.836236167024,163.3779896116404,162.3570494447998,211.9596331918512,184.2435770994265,167.98652509541574
0.6339673006339673,2.278590864773518,4.281643307649136,198.9509578269753,162.4640231310688,162.34837979129182,212.0390273513288,184.185104096055,167.92479094703617
0.6673340006673341,2.278590864773518,4.281643307649136,200.0727707816517,161.60696634966442,162.37073568005857,212.0954997334001,184.0994838249128,167.87863055441554
0.7007007007007008,2.278590864773518,4.281643307649136,200.02175250272305,161.861563601093,162.57779237494375,211.8605924039805,183.7620020424511,168.16554638663268
0.7340674007340674,2.278590864773518,4.281643307649136,199.9316049052544,161.9365692669794,162.7047445218201,211.82554451460103,183.68472040883708,168.08970788491985
0.7674341007674341,2.278590864773518,4.281643307649136,200.5511548966459,161.77442862284482,162.88157636903563,211.8341663729401,183.61121841984976,167.98497264722812
0.8008008008008008,2.278590864773518,4.281643307649136,201.7544654467252,161.5217872111188,163.05278593688803,211.65392672048665,183.54990034768807,167.9472201388891
0.8341675008341676,2.278590864773518,4.281643307649136,202.8961803966026,161.62695521060925,163.25498618794302,211.53200650828572,183.51058899407448,167.89048553223063
0.8675342008675342,2.278590864773518,4.281643307649136,204.0528175560592,161.92254900227954,163.446224295587,211.3296434476042,183.4880306439024,167.85563871669112
0.9009009009009008,2.278590864773518,4.281643307649136,204.17020745834296,167.71590388114706,163.6005847064529,211.02762782047355,183.5124308946688,167.81755152086413
0.9342676009342676,2.278590864773518,4.281643307649136,204.4164943366941,172.0634864120519,163.76791569572347,210.69990306402,183.5441680894974,167.8633709390659
0.9676343009676344,2.278590864773518,4.281643307649136,209.3772221901501,173.21581382149185,163.94855218964562,210.45504833452645,183.59602358120543,167.90808581914504
1.001001001001001,2.278590864773518,4.281643307649136,207.8949557263764,176.29307782851592,164.1452290292649,210.29904430468343,183.66551645357728,167.88476500065437
1.0343677010343677,2.278590864773518,4.281643307649136,206.24745239850705,178.12533531939405,164.35730147684023,210.1357370809965,183.7302988051691,167.80806728087995
1.0677344010677343,2.278590864773518,4.281643307649136,204.36090705207292,178.86075801766427,164.57321955347967,210.00641839284148,183.81839003207625,167.70124838300802
1.1011011011011012,2.278590864773518,4.281643307649136,203.63217067104776,178.0357401114514,164.80866176143326,209.9656461775048,183.8974050290601,167.5852078542876
1.1344678011344678,2.278590864773518,4.281643307649136,203.736053478953,176.3672035944711,165.04922341798004,210.16343148768976,184.00614669973044,167.51060324394604
1.1678345011678346,2.278590864773518,4.281643307649136,204.1466992024473,173.76383466163009,165.2874621451676,210.39639460636587,184.1076445605232,167.5406819994189
1.2012012012012012,2.278590864773518,4.281643307649136,204.21320653372325,164.2291496724217,165.5301127208509,210.5429693985284,184.16700606151463,167.67721484146793
1.234567901234568,2.278590864773518,4.281643307649136,205.74640753275563,161.31204385811822,165.76903175141712,210.58195259356285,184.21835806833616,167.81237351007942
1.267934601267935,2.278590864773518,4.281643307649136,208.49514768345867,151.53261154386,165.93970885448044,210.5284794044097,184.2629526967705,167.99514538717906
1.3013013013013013,2.278590864773518,4.281643307649136,217.09128735144932,143.01389043566755,166.13738180469863,210.4781060585001,184.2933367475713,168.09823017382854
1.334668001334668,2.278590864773518,4.281643307649136,223.5178752715688,140.4759899683404,166.28718057254744,210.45424576961108,184.3194944033888,168.1332388190702
1.3680347013680347,2.278590864773518,4.281643307649136,228.38287008843884,132.68834665496232,166.40857606147765,210.44003414145072,184.3128254645908,168.15825280263368
1.4014014014014016,2.278590864773518,4.281643307649136,231.77492752641004,126.42113061598047,166.47927065655347,210.4090933475489,184.2834433070392,168.1920510171281
1.4347681014347682,2.278590864773518,4.281643307649136,234.56324697355583,126.51087145267304,166.4532025246366,210.3985280683499,184.24117218450965,168.18537756306273
1.4681348014681348,2.278590864773518,4.281643307649136,236.16383581774363,121.63124845060402,166.4362944473209,210.41452175683065,184.18329059046252,168.096962011782
1.5015015015015016,2.278590864773518,4.281643307649136,235.51816835074368,117.20591363773173,166.4335524218602,210.5030025290204,184.1128492139734,167.92204949637164
1.5348682015348682,2.278590864773518,4.281643307649136,232.18213278052104,113.20212193309932,166.43334169719316,210.5940762872376,184.07960683467408,167.67452444143754
1.5682349015682349,2.278590864773518,4.281643307649136,228.24665475138536,109.44013836906964,166.42344253592725,210.62636084172365,184.0395240295203,167.4026029022136
1.6016016016016017,2.278590864773518,4.281643307649136,227.143493506864,104.95487579418136,166.44618755374157,210.6003989254633,183.9349078941352,167.11464915050408
1.6349683016349683,2.278590864773518,4.281643307649136,225.4444692041051,101.45924917871716,166.5214947903179,210.5354099474797,183.75860699762623,166.82170645927243
1.6683350016683351,2.278590864773518,4.281643307649136,223.1967482374571,99.40561183980628,166.6097691262105,210.43207953498447,183.5051081652896,166.570017195242
1.7017017017017018,2.278590864773518,4.281643307649136,218.7881574844952,98.4112476714016,166.6614479188726,210.2935436404261,183.2149448325137,166.31451605619526
1.7350684017350684,2.278590864773518,4.281643307649136,211.9473868494648,98.71873947116256,166.7373154401511,210.13195192192663,182.8756948766511,166.04137151280312
1.7684351017684352,2.278590864773518,4.281643307649136,205.037030582968,99.34229715739396,166.85760871307605,209.8849655890748,182.48738060680031,165.76345665854274
1.8018018018018016,2.278590864773518,4.281643307649136,197.7553609199097,100.6431838837533,166.97679386869763,209.5595780017092,182.06455041541707,165.50726031259393
1.8351685018351689,2.278590864773518,4.281643307649136,191.6623874794886,103.16093838158744,167.07473231620324,209.1132781034103,181.6598187942076,165.3279460018016
1.8685352018685355,2.278590864773518,4.281643307649136,180.0319147283367,106.8584167487635,167.11184653540914,208.6202819373996,181.27639939274383,165.1935392322435
1.901901901901902,2.278590864773518,4.281643307649136,168.55837836526206,111.21335197246984,167.07018593162454,208.01459999491087,180.90729742145487,165.11753851382394
1.9352686019352687,2.278590864773518,4.281643307649136,157.9169439477281,117.15695718773132,167.01880902827517,207.36460498258552,180.52785482048407,165.06916650944828
1.968635301968636,2.278590864773518,4.281643307649136,147.84875932780545,124.747697975852,167.00100448254474,206.8321979423561,180.12500073300532,164.99774056923968
2.002002002002002,2.278590864773518,4.281643307649136,138.32480874872144,133.55631314681207,167.00638435454766,206.3144658873336,179.68721297457705,164.9506385697185
2.035368702035369,2.278590864773518,4.281643307649136,128.79468812550977,142.80185582206445,167.0588993572478,205.75423735500743,179.23546789997516,164.93947324392195
2.0687354020687354,2.278590864773518,4.281643307649136,121.7995235481168,146.78497672534897,167.1552669160185,205.21450122330543,178.7702580320829,164.974768399307
2.1021021021021022,2.278590864773518,4.281643307649136,115.23037507381922,149.82274819603415,167.2987332145771,204.80075048833092,178.31221122025698,164.99558938577485
2.135468802135469,2.278590864773518,4.281643307649136,104.36984968155195,153.71188171692486,167.6692689380101,204.32025709509705,177.64775077816097,164.98119573236932
2.1688355021688355,2.278590864773518,4.281643307649136,99.24013034985168,157.70731333378794,167.79664186732202,203.92452229059185,177.19918673270735,165.06632448588334
2.2022022022022023,2.278590864773518,4.281643307649136,96.60238491992774,161.72315628362722,167.93849515094132,203.67255373599383,176.78603948281096,165.1792966907204
2.235568902235569,2.278590864773518,4.281643307649136,95.4127538830083,162.7696581279023,168.1502256066133,203.52344357825385,176.36560487070724,165.31095293258858
2.2689356022689355,2.278590864773518,4.281643307649136,95.26768784103854,163.36617767026237,168.3551611378634,203.4156611255177,175.9449572618802,165.49116125677165
2.3023023023023024,2.296448114358097,4.281643307649136,98.64066306394228,159.17962579631396,168.5561631206889,203.22959801540773,175.49247192490697,165.69299991118325
2.335669002335669,2.296448114358097,4.281643307649136,101.41490335817932,154.14910142125757,168.70926775506453,202.9830834180676,175.0420538793014,165.87944734064345
2.369035702369036,2.385226012623391,4.281643307649136,107.9759805659692,155.41654079150527,168.82951171353724,202.8239522584512,174.60597779640952,166.05858431970148
2.4024024024024024,2.385226012623391,4.281643307649136,115.58779655367884,149.3118264588679,168.94025964969336,202.7223266656733,174.15651879003207,166.2660746829887
2.4357691024357693,2.385226012623391,4.281643307649136,123.4006775732395,149.74438489339445,169.0789336119149,202.5862653671857,173.684508548422,166.52100449310635
2.469135802469136,2.552555718920626,4.281643307649136,125.35871921937265,150.992929100358,169.09385481414063,202.5068599518669,173.21759523891663,166.8060458149201
2.5025025025025025,2.552555718920626,4.281643307649136,125.38543201824233,145.96797980369217,169.09968993735566,202.4078126843285,172.7722943719681,167.10390852624795
2.5358692025358693,2.552555718920626,4.281643307649136,124.7213300482224,146.5120566340651,169.07658366924286,202.348801613752,172.41287270630227,167.37966639592213
2.569235902569236,2.552555718920626,4.281643307649136,123.13140427810076,147.3167839988951,169.11570478361205,202.3303058426364,172.11195807929465,167.6323226292073
2.6026026026026026,2.552555718920626,4.281643307649136,124.10068333171412,141.39656493878422,169.1932077112688,202.335720314352,171.88395571624346,167.8767094281481
2.6359693026359694,2.552555718920626,4.281643307649136,125.0484429561056,139.01468187837585,169.30823162930952,202.37634498337,171.64305029566955,168.1056687877454
2.669336002669336,2.552555718920626,4.281643307649136,125.69522338770544,136.60993429433654,169.49967010810693,202.40093309058355,171.3871128535351,168.31517272527597
2.736069402736069,2.8060683926010284,4.281643307649136,132.07153154455094,134.33837316698146,169.68928155128137,202.39546386360863,171.13272681788789,168.55885287917906
2.7694361027694363,2.8060683926010284,4.281643307649136,139.84236218430462,132.22837888198305,169.8627321789181,202.3577204939345,170.90160194664605,168.83025897523507
2.802802802802803,2.8060683926010284,4.281643307649136,143.29734072753683,130.02927457164537,170.07650746513437,202.400208076904,170.6442424525837,169.06574326214178
2.836169502836169,2.8060683926010284,4.281643307649136,145.46970825367765,128.02801734615718,170.24722974578185,202.5019104367676,170.45453950546946,169.28084481360517
2.8695362028695364,2.8060683926010284,4.281643307649136,147.72355787355804,126.66077446729408,170.46412723239695,202.71174854292647,170.23918958561296,169.45457493533303
2.902902902902903,2.8060683926010284,4.281643307649136,149.4189371220081,125.1908908353819,170.71191572807084,203.0045250848476,170.04682928722178,169.54721721489398
2.9362696029362696,2.8060683926010284,4.281643307649136,151.01850010305168,122.22350215396143,171.0128570042652,203.3570996545756,169.9514517461136,169.5562157547298
2.9696363029696364,2.8060683926010284,4.281643307649136,153.9931311679697,121.3988843392294,171.34501563566792,203.7215717617084,169.8872532075,169.48775783960895
3.003003003003004,3.153395193015794,4.281643307649136,154.18040002151514,122.1601676100097,171.68468335887744,204.1214141986873,169.94762847748436,169.36203511185658
3.0363697030363697,3.153395193015794,4.281643307649136,150.76826059884587,120.64922808096884,172.05461781197843,204.5673148547639,169.9679468944409,169.1751138099533
3.0697364030697365,3.153395193015794,4.281643307649136,151.43376556468982,119.14136331815676,172.4033851333116,205.0489361389993,170.20774004520212,168.9577378157739
3.103103103103104,3.153395193015794,4.281643307649136,154.33042387007907,120.05045843183404,172.8248985840655,205.58225746379932,170.5922129524702,168.6029464733007
3.1364698031364697,3.153395193015794,4.281643307649136,157.28821505556385,119.94267531519316,173.3055275931942,205.97252646660792,171.0597104699937,168.2132618293624
3.169836503169837,3.153395193015794,4.281643307649136,153.4660151583961,118.30320493650385,173.7955089053397,206.466427240734,171.61154938411627,167.81400948082307
3.2032032032032034,3.153395193015794,4.281643307649136,149.47541676238674,116.11253974392848,174.25649026108798,206.9670052682584,172.33402480140987,167.41318276263263
3.2365699032365702,3.153395193015794,4.281643307649136,147.08574686541309,114.62241430063322,174.76054866209773,207.6589315983828,173.1084941935692,167.04188246739363
3.2699366032699366,3.153395193015794,4.281643307649136,146.66215613335763,111.82448581720844,175.2599546428903,208.35425634672484,173.9808772856938,166.73503016658586
3.3033033033033035,3.153395193015794,4.281643307649136,147.4509816318894,107.69890443791424,175.67963273770405,209.12089207474853,174.98073259746957,166.3725752027012
3.3366700033366703,3.153395193015794,4.281643307649136,148.25234935918527,106.98126566153756,175.8137960228608,209.95258625808395,176.32320513119822,166.18186175311965
3.3700367033700367,3.153395193015794,4.281643307649136,150.54574568521247,104.78924509824854,176.14631380554096,210.6270197704164,177.5263123059995,166.08788835399662
3.4034034034034035,3.153395193015794,4.281643307649136,152.6665895833311,101.40502125810112,176.47677258400918,211.3285521645016,178.73378528428273,166.1722500763496
3.4367701034367704,3.153395193015794,4.281643307649136,156.12829961357534,98.76604246324872,176.7495282758801,212.1066575273176,179.93643440280215,166.3050080968034
3.4701368034701368,3.153395193015794,4.281643307649136,160.65619917662823,95.74336640120052,177.00084836004714,212.99805872728425,181.13311024006256,166.5586011636734
3.503503503503504,3.153395193015794,4.281643307649136,162.78992182272344,96.0389607401478,177.2249123621265,213.8678076240849,182.28651113985603,166.92532405091626
3.5368702035368704,3.85598749902964,4.281643307649136,167.0693677409554,96.3508484346224,177.4763838957607,214.77455747438552,183.35373360812565,167.31863513426677
3.5702369035702373,3.85598749902964,4.281643307649136,175.84552607262106,97.73325048855378,177.7736577051175,215.5378970987253,184.3695835032948,167.88362250024028
3.603603603603604,3.85598749902964,4.281643307649136,183.56001281026147,99.5639525202666,178.068590543187,216.3560078931088,185.317495470414,168.53943219443917
3.6369703036369705,3.85598749902964,4.281643307649136,188.6097970537541,101.43472307842492,178.2648613778533,217.366673502702,186.18814934646184,169.177761455038
3.670337003670337,3.85598749902964,4.281643307649136,190.5512691505249,103.95967649095536,178.6001715215544,218.3104340512082,186.96731438712595,170.08379982521234
3.703703703703704,3.85598749902964,4.281643307649136,184.7370648848279,106.29855061087488,178.9739483073149,219.1658393930284,187.64853654473063,171.25258665843512
3.737070403737071,3.85598749902964,4.281643307649136,181.1315023038944,108.7964087867954,179.50245227381288,219.9324527861216,188.1643282922202,172.63890658069292
3.770437103770437,3.85598749902964,4.281643307649136,179.92585882860885,111.61883229475907,180.07873352248316,220.5571326713689,188.53812539717973,174.2007060968151
3.803803803803804,3.85598749902964,4.281643307649136,177.770590697369,114.7386234354021,180.7148749972166,221.05600037470063,188.7272149858124,175.8929120215359
3.8371705038371706,3.85598749902964,4.281643307649136,173.17254002908575,118.14691804071326,181.39341965937768,221.4557538276718,188.8101116480226,177.74030291685858
3.8705372038705375,3.85598749902964,4.281643307649136,171.9097471458892,121.95312140068846,182.1028815731828,221.774294471108,188.76498474440493,179.6958286137026
3.903903903903904,3.85598749902964,4.281643307649136,174.98093198768728,125.85666763173604,182.93404830207092,222.00808798098137,188.5371379472791,181.7229524965262
3.937270603937271,3.85598749902964,4.281643307649136,176.99199457315447,129.86464815549684,183.968948610068,222.2966987366105,188.0956570330144,183.7330010532208
3.9706373039706375,3.85598749902964,4.281643307649136,173.62692110493157,133.6866978739445,185.0971246343638,222.56024298408929,187.5595830605478,185.7711392571733
4.004004004004004,3.85598749902964,4.281643307649136,177.89421129908274,137.02909321419236,186.26946040816816,222.78921216533715,186.9144302896923,187.8430872001885
4.037370704037371,3.85598749902964,4.281643307649136,180.39968124399428,140.11662100746688,187.44629349531616,222.87107077315068,186.29272342526812,189.9078339230708
4.070737404070738,3.85598749902964,4.281643307649136,182.51889678163027,143.17146520778314,188.6601140175541,222.83206241677715,185.66639448403217,191.9330455031165
