Time,Left Shoulder Angle,Right Shoulder Angle,Left Elbow Angle,Right Elbow Angle,Left Hip Angle,Right Hip Angle,Left Knee Angle,Right Knee Angle
0.0,28.29775077052716,31.71610918712214,155.24554840785382,158.9573749203675,131.15580952282306,134.77532149710532,205.2003837545374,204.45342607478327
0.0333667000333667,29.50146714037997,31.7207502072215,156.7865119561227,159.13560388550033,131.07588282434767,134.89239428533278,204.99900027021448,204.45764591175788
0.0667334000667334,30.55042984544627,31.80544276502581,158.13857796841984,159.39229506134862,131.02789768353793,134.99727612648135,204.82042724807545,204.48148395022125
0.1001001001001001,31.453188547134403,31.963524539588505,159.31230146748942,159.72067099738905,131.0101990018031,135.0906319561297,204.6624791366452,204.52335421447168
0.1334668001334668,32.21829290685271,32.18833320996305,160.31823747607555,160.1139542430983,131.02113168055257,135.17312670985643,204.52297038444863,204.58167072880747
0.1668335001668335,32.854292586009514,32.473206455202885,161.16694101692235,160.56536734795307,131.05904062119558,135.2454253232401,204.3997154400108,204.6548475175269
0.2002002002002002,33.369737246013166,32.81148195436146,161.8689671127739,161.06813286143003,131.1222707251415,135.30819273185944,204.2905287518564,204.7412986049282
0.2335669002335669,33.773176548272,33.196497386492226,162.4348707863744,161.61547333300584,131.2091668937996,135.36209387129298,204.1932247685104,204.83943801530967
0.2669336002669336,34.07316015419435,33.62159043064863,162.8752070604679,162.20061131215718,131.31807402857922,135.40779367711934,204.1056179384977,204.94767977296976
0.3003003003003003,34.27823772518855,34.08009876588412,163.20053095779855,162.81676934836074,131.44733703088966,135.44595708491718,204.0255227103432,205.06443790220652
0.333667000333667,34.39695892266295,34.565360071252144,163.42139750111048,163.4571699910932,131.59530080214023,135.47724903026509,203.9507535325719,205.18812642731848
0.3670337003670337,34.43787340802587,35.07071202580615,163.5483617131478,164.11503578983124,131.76031024374024,135.5023344487417,203.87912485370865,205.31715937260373
0.4004004004004004,34.40953084268566,35.58949230859959,163.59197861665467,164.7835892940515,131.94071025709903,135.5218782759256,203.8084511222784,205.44995076236063
0.4337671004337671,34.32048088805065,36.1150385986859,163.56280323437514,165.4560530532307,132.1348457436259,135.5365454473954,203.73654678680583,205.58491462088747
0.4671338004671338,34.17927320552919,36.64068857511855,163.4713905890534,166.12564961684552,132.34106160473016,135.5470008987298,203.66122629581616,205.7204649724825
0.5005005005005005,33.9944574565296,37.15977991695097,163.3282957034335,166.7856015343726,132.5577027418211,135.55390956550733,203.5803040978341,205.85501584144413
0.5338672005338673,33.77458330246023,37.66565030323661,163.14407360025965,167.42913135528866,132.78311405630805,135.55793638330664,203.49159464138464,205.9869812520705
0.5672339005672339,33.52820040472967,38.15163741302923,162.92927930227722,168.04946162907174,133.01564044960142,135.55974628770747,203.39291237499427,206.11477522866167
0.6006006006006006,33.23767414971475,38.43189296848142,162.62860640298427,168.41790370623946,133.22519250921042,135.60088704358677,203.2992821962272,206.1776816120732
0.6339673006339673,33.03126263056621,38.72941787374195,162.48056169684472,168.8209397364303,133.48573173383755,135.6366528544956,203.0989484072548,206.2511928227788
0.6673340006673341,32.846052803129744,39.01623101452795,162.38998468030098,169.18679895283677,133.76540137146927,135.65137061909573,202.83527418568767,206.32926006567592
0.7007007007007008,32.68628068687837,39.26986404669747,162.33888572665356,169.53797449413727,134.0445941617829,135.66107769496367,202.53570708033547,206.4059269277952
0.7340674007340674,32.5618844694169,39.48945818886459,162.30454752066515,169.8735424717446,134.31304805240174,135.66568593315986,202.2382573559496,206.51018363041857
0.7674341007674341,32.426721318658295,39.7068683821564,162.17143495735456,170.24570876159993,134.57180625567275,135.66250921430978,201.9334777287613,206.6190921966636
0.8008008008008008,32.31161953300356,39.90305179113796,162.01373856444965,170.53540148346102,134.8007350473977,135.64778477155895,201.66975909071363,206.7090754590762
0.8341675008341676,32.21898596235451,40.034715255948726,161.90410653980044,170.7622333841948,135.00842528083743,135.62495010637204,201.4396445974123,206.77926385119383
0.8675342008675342,32.147792599933105,40.09108607104167,161.83309178332044,170.94775493506003,135.18981794717487,135.60828975145526,201.20428277890005,206.82525479397245
0.9009009009009008,32.0933623083964,40.08825670258777,161.81549121186234,171.09129219009805,135.3737448420512,135.5862540726073,200.93724378448508,206.86280793596143
0.9342676009342676,32.0625944418248,40.07056095189088,161.86408692011742,171.214783827681,135.54878484220183,135.57274332499713,200.67238035982777,206.87346100048904
0.9676343009676344,32.058237610713235,40.02352700833293,161.9806469307652,171.31551924972908,135.68250541528548,135.5596970162154,200.4585882764273,206.85267247423457
1.001001001001001,32.10823667079136,39.89889417025022,162.18489451536593,171.38559823741758,135.75878580994365,135.57615309439075,200.32435491963537,206.78528827546285
1.0343677010343677,32.19111360889853,39.68777758867294,162.45253008307503,171.36736043471987,135.7833440064194,135.5773302117488,200.25840038915703,206.69707629433915
1.0677344010677343,32.327920806776625,39.37120891472882,162.78753469940756,171.27776885387573,135.78685916572064,135.59033027209617,200.16669820717547,206.5730290818809
1.1011011011011012,32.48190587254258,39.00983818372392,163.15504657027944,171.11617584553508,135.7469056648798,135.57402936990866,200.11832175927563,206.43620533650503
1.1344678011344678,32.60123202032969,38.60343948396649,163.5700560484985,170.9428067155865,135.74328217516972,135.60474431218165,200.08935030803843,206.261867957682
1.1678345011678346,32.68722912097468,38.16267300033049,163.96880236904943,170.69256593670727,135.7143982949167,135.61873479319385,200.11138247864528,206.10153179749025
1.2012012012012012,32.74654893651112,37.755437962537776,164.3352941442229,170.4500775145034,135.658698625145,135.60070211982483,200.1995946742772,205.95722674443093
1.234567901234568,32.81310695998078,37.416758291441255,164.72530183144949,170.27194143674066,135.5636238437638,135.5887018926093,200.3559784876668,205.7990961501456
1.267934601267935,32.90264089277336,37.05653616978751,165.14391327252227,170.02526385481897,135.38783888792278,135.54113796722223,200.59525686292127,205.63094555877475
1.3013013013013013,32.99260683423926,36.72772343084549,165.6026073222736,169.7667071118736,135.17674243527148,135.44422391902302,200.89229699501803,205.4651177547917
1.334668001334668,33.08339230282334,36.508232142049735,166.08509262570615,169.4820052632366,134.95050502855273,135.25980851980654,201.2581950159588,205.34159878601267
1.3680347013680347,33.13663852516883,36.31636233882613,166.53673160340003,169.1850879630707,134.69828812380305,135.07098750066615,201.6830468660755,205.21727680914745
1.4014014014014016,33.17594796284773,36.13663668722815,166.85554344097662,168.87713972057708,134.42276640932343,134.89379312881988,202.1267782527237,205.06540032648883
1.4347681014347682,33.18350597049972,35.94698271127219,167.16293329823966,168.56003357154117,134.14157370911116,134.75520018908986,202.58349056525412,204.8813372963576
1.4681348014681348,33.215482093202226,35.91982293172645,167.62705904569577,168.46343711812466,133.86948179553082,134.63477317245602,203.0496915899638,204.677122238034
1.5015015015015016,33.265669558570096,35.85522005862052,168.25465604538672,168.30353323905152,133.6073144982079,134.55765989568533,203.5035868486131,204.4604371391885
1.5348682015348682,33.25750841587896,35.7584294955447,168.8304205477528,168.10452429505378,133.35529927819772,134.53934605233866,203.9361644823421,204.23115398326803
1.5682349015682349,33.18047631998528,35.54424047823661,169.33123414861333,167.7740872462486,133.1242049136764,134.5485721778619,204.3514720064877,203.9990639326076
1.6016016016016017,33.098925092347734,35.39098264503045,169.7397735434474,167.52776356699755,132.90735279648845,134.56665884890924,204.75275325028863,203.775010697682
1.6349683016349683,33.00402414859043,35.1958496265246,170.1774337293225,167.24454611336571,132.687137161741,134.61733310801404,205.15582976286,203.554263452518
1.6683350016683351,32.8744975923089,34.98370502487624,170.5787254827317,166.8566777477138,132.44739689731358,134.6791968647463,205.5889210556526,203.3383136125642
1.7017017017017018,32.71079170058526,34.68153644912236,170.9840737635405,166.36370521112127,132.18047131060217,134.76669817463946,206.03108274138413,203.13890623662863
1.7350684017350684,32.582065368064164,34.33726383736121,171.50250202243834,165.8572517850837,131.90448783908087,134.8863740512057,206.4172589578067,202.95592509205608
1.7684351017684352,32.43014442187004,33.93728343590501,172.06327752757093,165.31589088928888,131.6306197313878,135.04245018295805,206.75887433558336,202.7911186774853
1.8018018018018016,32.326648730585184,33.57226683031678,172.77181689254354,164.7601979847449,131.2587322121463,135.21483679394362,207.11617811283148,202.6647354417625
1.8351685018351689,32.153177491674775,33.157494512326515,173.44393324388847,164.23338036723976,130.888533452064,135.42150679443867,207.4452888482652,202.5731039914024
1.8685352018685355,31.86749045462338,32.83916997559781,173.85201497619076,163.8778206149316,130.5455204728853,135.627880074451,207.74168230205817,202.5168200296609
1.901901901901902,31.476595422398315,32.46714645307503,174.15826598853596,163.51341271433492,130.24633235057928,135.86161012687288,207.98334331755635,202.44578121221664
1.9352686019352687,31.07329847969542,32.068318575634535,174.44631726544276,163.1233005035905,129.98800151923535,136.12148575855363,208.18847126286943,202.371948895904
1.968635301968636,30.70395560993321,31.51083584306021,174.91418407897098,162.71926388576796,129.79507053106903,136.3852450883726,208.3064578270713,202.35428425875656
2.002002002002002,30.2718046592846,30.763905668501607,175.17210745588872,162.17199480493932,129.7015880652742,136.717132888572,208.3331400030843,202.325595412275
2.035368702035369,29.77197105176485,29.890830596608705,175.4394434011132,161.56642831780525,129.68101098022197,137.10544702326345,208.3181053447462,202.28102206775137
2.0687354020687354,29.22203829613408,28.945255144361067,175.61104794973448,160.96688525247427,129.68372456675502,137.5648888358431,208.31085338376383,202.18364336344723
2.1021021021021022,28.603000660521143,27.827799201879987,175.8780270774309,160.30956889332342,129.6956640286055,138.07870346591304,208.31365207359616,202.0355370576048
2.135468802135469,27.947097258823856,26.632698352635245,176.07951462814916,159.61308473317166,129.76494744635676,138.64672833228212,208.28741483089152,201.8460563975435
2.1688355021688355,27.205771521651737,25.37262244432611,176.2897178333957,158.90431494390484,129.8873382317482,139.2244459058326,208.19925773758908,201.63469554742383
2.2022022022022023,26.47374470268523,24.04026365637208,176.5181370614846,158.1561843674565,130.04867750860444,139.8312048097839,208.0512172605301,201.38645704107088
2.235568902235569,25.64940414919637,22.670329232473645,176.94836706117349,157.38169517855655,130.22488357852208,140.43108855428122,207.9270062603272,201.1176681279303
2.2689356022689355,24.977200295958006,21.331854175623093,177.24062734804218,156.5816001582884,130.4622595946358,141.02447001391226,207.7956781362902,200.8365071082212
2.3023023023023024,24.191263405211,20.019242457563426,177.65742384582148,155.78695229562325,130.6624151656817,141.55389923897846,207.68039371864268,200.57646389345564
2.335669002335669,23.19409224007144,18.73927543507824,178.06130016766107,155.18177777309123,130.83199004300062,142.06728769226618,207.5907558467388,200.29041615914733
2.369035702369036,22.09182634242509,17.434931406600985,178.61972360648954,154.5916578229097,130.97197869559483,142.57966680636113,207.5013896163244,199.96893238594296
2.4024024024024024,20.75343056175158,16.16452836204435,179.2636045547817,154.03306643398213,131.05859968670327,143.0635633401545,207.42273155336136,199.6383644917004
2.4357691024357693,19.382408540528225,15.023121655275071,179.87998793254033,153.63613583816485,131.16543834314055,143.56038655139497,207.3329001813241,199.29915878187964
2.469135802469136,17.893123169242386,13.996307333150284,180.6666141693921,153.2825339617111,131.29041016769582,144.03714464468342,207.2349796382128,198.9602307757293
2.5025025025025025,16.417541702201532,12.955264610117194,181.4017397178678,153.04826531030824,131.40967570232937,144.56224972134956,207.112190590897,198.57003760283496
2.5358692025358693,15.115337441476822,11.938973293856824,181.37998686695133,152.95595063087538,131.5128999236718,145.0850038029716,206.97420836012924,198.1587127070433
2.569235902569236,13.950148167718114,11.015919286593462,181.37631184411129,153.0208118130424,131.60579507689457,145.59064555890652,206.86824287490336,197.75663980669268
2.6026026026026026,13.168789760481207,10.120556285418829,180.68891563757765,153.53571432465597,131.63692971173285,146.058173867036,206.79464757137487,197.3697624059361
2.6359693026359694,12.464331125640124,9.228320000398172,180.17380641958763,153.79358209572945,131.63524428618234,146.49890796410233,206.7527378602572,197.00459771119708
2.669336002669336,11.76812025733255,8.486925343873036,179.73628348100672,154.0063164461183,131.60359547160786,146.91062458857712,206.7250689297379,196.6591194023851
2.702702702702702,11.177440723345596,7.790393826880176,179.4902087580332,154.20953042734666,131.58720553979853,147.26044575880945,206.71191478188572,196.3385565846697
2.736069402736069,10.426861711715688,7.165969624570523,178.60679214565403,157.0864819611868,131.56500987906605,147.57927807420867,206.69686968592205,196.0356238992717
2.7694361027694363,9.777561410056032,6.549727217228303,178.08430770116138,158.542292518726,131.5575511444764,147.8685198953486,206.6659478175796,195.76269250460365
2.802802802802803,9.28808224533721,6.094678175947116,180.9403812375576,160.0405363998573,131.55154461156496,148.11543329471306,206.6328604200669,195.52300375763377
2.836169502836169,9.01562495131637,5.633249214917587,183.30798494560972,161.028532192053,131.56274525164457,148.3469628078403,206.55860488510305,195.3149204505111
2.8695362028695364,9.01562495131637,5.270569207984607,185.39935189606388,161.42162209162697,131.56917716270564,148.54642480812967,206.45300016971453,195.1486500729347
2.902902902902903,9.01562495131637,4.947925965167291,186.8612662790406,161.20616361368184,131.58779283731366,148.70677067305166,206.36590180978027,195.02819589056543
2.9362696029362696,9.01562495131637,4.461004374895138,187.868481206462,161.0845117250282,131.6146740948425,148.81252919063067,206.29973281559217,194.95203032361275
2.9696363029696364,9.01562495131637,3.9143062359304106,188.09415716530057,160.52150832894333,131.7819009564765,148.88848057476667,206.18635413127672,194.8989763990328
3.003003003003004,9.025254313247114,3.4275007970401403,187.92863832364176,159.10111394358591,132.00690922213423,148.9356269962608,206.0661186514001,194.86894771228185
3.0363697030363697,9.182432984280194,3.4275007970401403,187.3095849584548,156.81830286920422,132.27892723243144,148.98095418184954,205.9426959100068,194.8672752799355
3.0697364030697365,9.461720966829596,3.4275007970401403,186.11949528833907,154.22779368090977,132.6010437540183,149.0043022546402,205.8134882855817,194.89779833650505
3.103103103103104,9.753148973533191,3.4275007970401403,184.34371364689963,150.92497016050075,132.97092346830692,149.02066482371748,205.686226883178,194.9470721773452
3.1364698031364697,10.351842876749313,3.4275007970401403,181.77658439978543,146.32091761234793,133.3925147343141,149.0868097795592,205.55220591916407,194.944323363144
3.169836503169837,11.100861436053444,3.4275007970401403,178.59491540030604,141.15480189955753,133.8302408294798,149.15230491136998,205.4359967562511,194.9343784661936
3.2032032032032034,11.885373039252926,3.4275007970401403,174.2415140209305,132.39764216049394,134.28140198898785,149.21189880256568,205.3346172547568,194.9174679758238
3.2365699032365702,12.682227979293057,3.4275007970401403,169.746956290145,124.47993916808456,134.74755000565514,149.26512449147594,205.24282604458068,194.89719185598608
3.2699366032699366,13.42674211374182,3.4275007970401403,165.6557111015047,121.66484881595248,135.2045198464274,149.30897609528805,205.1552429015284,194.87648611517696
3.3033033033033035,13.908189746349237,3.4275007970401403,161.79158218112218,118.42895092519495,135.61985552248393,149.34676592105495,205.07446026154915,194.8536852389002
3.3366700033366703,13.792138263075405,3.4275007970401403,157.91766415097055,115.17682415323914,136.02134447017,149.37985073991862,204.9993103258867,194.83043519232243
3.3700367033700367,13.729473080369791,3.4275007970401403,154.2402775944576,111.71586319358796,136.41028108412513,149.40679907879613,204.92792430531875,194.80475733091785
3.4034034034034035,14.053091460040928,3.4275007970401403,150.54797850402645,108.15125851989136,136.77279222070266,149.42197137560223,204.86434100949543,194.78171960376784
3.4367701034367704,14.664427058776464,3.4275007970401403,147.13745259358336,104.5482125491305,137.0599030259619,149.4432754308856,204.8173579991348,194.7563296574104
3.4701368034701368,15.636574648289812,3.4275007970401403,143.36759497789905,101.06947001010802,137.2693625345304,149.46716001248907,204.78521520724564,194.73365777582137
3.503503503503504,16.797253300039717,3.4275007970401403,139.72525117821817,97.41697643401486,137.41617242405752,149.48372479608636,204.75404482982444,194.7128784620586
3.5368702035368704,18.167185499469472,3.4275007970401403,136.22598424636703,92.46451487981577,137.505516446584,149.5028717484268,204.73670044558628,194.6882524167572
3.5702369035702373,19.31822764514567,3.4275007970401403,132.86919107861212,87.72321856333676,137.56034979842963,149.52670950484008,204.72427832655032,194.65576870522617
3.603603603603604,20.09562044410326,3.4275007970401403,130.02792064351897,80.21799616322009,137.5585085048276,149.54588959976593,204.718760366904,194.6169484634884
3.6369703036369705,20.86905580069442,3.4275007970401403,127.2202594251236,74.93111197647464,137.4925015382678,149.56087480932086,204.72084642257724,194.5773027569673
3.670337003670337,21.67310655773096,3.4275007970401403,124.36779985325254,72.9518802167858,137.35781417051476,149.575671992257,204.73328587292588,194.5371624051336
3.703703703703704,22.73484878343309,3.4275007970401403,122.3234859367172,71.64907095215014,137.17738856797976,149.58979548257994,204.74387319249325,194.4953413374388
3.737070403737071,24.03175144864535,3.4275007970401403,120.46722223506312,71.18837626359148,136.96165991226167,149.6069327616843,204.7385725867816,194.44860789810565
3.770437103770437,25.65489421537379,3.4275007970401403,119.85432687642528,71.12196741964117,136.7788352074427,149.62744289858358,204.7021202037645,194.3973924308547
3.803803803803804,27.480256840593206,3.4275007970401403,120.46131314881228,72.02764545624301,136.60213299659588,149.6518399108077,204.64764737319263,194.33852490476843
3.8371705038371706,29.356635998096746,3.4275007970401403,121.79915834605004,73.78281366836269,136.45253792908915,149.67553166827983,204.5857564201904,194.2786831917425
3.8705372038705375,31.1056592549568,3.4275007970401403,123.50178115792936,76.36139681614937,136.30892150653733,149.7041745885599,204.511495617884,194.2214043677785
3.903903903903904,32.52186831358784,3.4275007970401403,126.7969364727685,76.47911851594472,136.17911098250823,149.72500574209198,204.4327662982841,194.1762448433634
3.937270603937271,34.16945003741297,3.4275007970401403,131.63983979935918,77.34358122897498,136.00427014801454,149.75240232990012,204.3763331112579,194.130960834591
