Time,Left Shoulder Angle,Right Shoulder Angle,Left Elbow Angle,Right Elbow Angle,Left Hip Angle,Right Hip Angle,Left Knee Angle,Right Knee Angle
0.0,-13.231458732699233,4.480020077802744,167.03586063094068,168.0771082332623,135.92122015193456,154.60510053185268,200.0998621924829,191.0738057410757
0.0333667000333667,1.3175257655825463,20.54246115252169,166.77710032929554,176.13758150814724,137.10848587447816,153.6287517477679,198.00348783625697,191.74470597878465
0.0667334000667334,12.836886567030271,33.26587486246442,166.72461429931698,182.79693814348707,138.0085837260792,152.87760015552527,196.34160093474875,192.2601108826192
0.1001001001001001,21.58107069576113,42.916089153423535,166.8537028025061,188.13623772341748,138.64459365911802,152.33342819703083,195.08353097115008,192.63320852601808
0.1334668001334668,27.80452517589232,49.75893197119159,167.13966610036397,192.23653983207424,139.03959562597498,151.9780183141905,194.1986074286528,192.87718698241991
0.1668335001668335,31.761697031541,54.06023126156117,167.5578044543917,195.178904053593,139.21666957903045,151.79315294891038,193.65615979044875,193.00523432526344
0.2002002002002002,33.70703328682438,56.08581497032485,168.0834181260903,197.04438997210943,139.1988954706648,151.7606145430964,193.4255175397297,193.0305386279872
0.2335669002335669,33.89498096585964,56.10151104327521,168.6918073769609,197.9140571717594,139.00935325325838,151.8621855386546,193.4760101596875,192.96628796403
0.2669336002669336,32.57998709276398,54.37314742620483,169.35827246850454,197.86896523667843,138.6711228791916,152.07964837749094,193.77696713351392,192.82567040683048
0.3003003003003003,30.01649869165456,51.16655206490628,170.05811366222233,196.9901737510024,138.20728430084478,152.39478550151145,194.2977179444009,192.6218740298273
0.333667000333667,26.4589627866486,46.74755290517214,170.76663121961533,195.3587422988668,137.64091747059828,152.78937935262212,195.0075920755401,192.36808690645915
0.3670337003670337,22.161826401863244,41.38197789279501,171.45912540218467,193.0557304644076,136.99510234083246,153.24521237272896,195.87591901012345,192.07749711016464
0.4004004004004004,17.379536561415712,35.33565497356743,172.11089647143132,190.1621978317603,136.29291886392772,153.74406700373797,196.8720282313428,191.7632927143825
0.4337671004337671,12.366540289423224,28.87441209328201,172.69724468885647,186.75920398506068,135.55744699226443,154.26772568755513,197.96524922238984,191.43866179255147
0.4671338004671338,7.377284610002851,22.2640771977313,173.19347031596112,182.92780850844449,134.8117666782229,154.79797086608647,199.12491146645644,191.11679241811007
0.5005005005005005,2.6662165472719224,15.770478232707848,173.57487361424637,178.7490709860474,134.07895787418354,155.31658498123795,200.32034444673448,190.8108726644972
0.5338672005338673,-1.5122168746524751,9.65944314400434,173.81675484521332,174.3040510020051,133.3821005325267,155.80535047491563,201.52087764641576,190.53409060515128
0.5672339005672339,-4.903568631653787,4.196799877413032,173.89441427036445,169.67380814045492,132.74427460563373,156.24604978902673,202.69584054869367,190.2996343135128
0.6006006006006006,-2.7538143065116474,3.113430854537472,173.59200351516793,165.8157456981393,132.28981118731278,156.65486397649374,203.72612584001604,189.7862711601494
0.6339673006339673,1.3716832950455773,12.542823397660978,173.63007348386807,163.90500062355682,132.176392676519,156.9957686661869,204.43772146420824,189.77896976969927
0.6673340006673341,1.3716832950455773,12.97720187558071,172.7599973664467,161.10761225028756,133.2984880070428,155.72473915148984,203.50059832633352,191.0427354120704
0.7007007007007008,1.3716832950455773,23.569692670601952,169.71150866753035,157.90357700820672,134.6985273695274,154.69950807125753,202.63236170042936,192.1316347324829
0.7340674007340674,1.3716832950455773,34.011486145296246,166.7343130517931,154.66837123851258,136.0452977649162,153.95225580337896,202.06818360677093,192.7467815310545
0.7674341007674341,1.3716832950455773,45.35231595252279,165.4029272726141,151.65672393274687,136.75954191051665,153.40682300998765,201.8315682738046,193.1085380357512
0.8008008008008008,1.3716832950455773,53.84223043283425,165.79943756415898,149.6293273954028,137.28333706355818,153.2961849031275,201.75500138615052,193.2728172418861
0.8341675008341676,1.3716832950455773,64.82058176915687,161.83961101651568,142.6134563200538,137.5821568168559,153.1978717854085,201.9911380180293,193.48608621856147
0.8675342008675342,7.329088087744983,74.54110216869262,157.5266266059878,136.68648968697607,137.80965697056834,152.66041118711416,202.3321713335822,194.00816244528832
0.9009009009009008,15.518801583720256,83.3866591303586,153.77778083342093,131.96165391090898,137.59462910371377,151.66215674248673,203.32676852276148,194.99704779954607
0.9342676009342676,25.0926130069316,91.16623719406394,150.29828977971536,128.17160859567488,137.30716356164788,150.52942596768582,204.39084831902383,196.22069398802049
0.9676343009676344,45.05115803558674,97.54214485032416,147.5042950010203,125.0276987986498,137.08400184450437,149.34062959474548,205.1913400164739,197.4854294991726
1.001001001001001,65.5697122434747,103.26886641208658,145.52909471006154,126.93722431156816,136.75374118824828,148.29564348798266,205.6879384836297,198.95866669350104
1.0343677010343677,84.23404431744231,108.1229526913327,144.14740372637672,128.65119758871205,136.5629528741771,147.34203136440576,206.01812630943152,200.02465015865732
1.0677344010677343,100.24223826157908,112.18730586551388,143.44447665143608,129.36247438401966,136.521289200982,146.73129099682237,206.019066439109,200.86666809420063
1.1011011011011012,115.2006082234299,115.28525537822624,142.4327373840219,129.3661729212543,136.67290283545384,146.24629157683398,205.62678737922468,201.4249485927299
1.1344678011344678,128.2830827178021,117.9951169952916,141.07783893470315,128.07528998921217,136.87790744120963,146.0057975655989,204.821853363436,201.8459269387836
1.1678345011678346,139.64652354832228,119.1815529004319,140.43007088602354,125.74114702550838,136.9903618039449,145.78561627585188,204.0305923788589,202.0262126471385
1.2012012012012012,149.0413662138842,109.52053455870174,138.34609122151718,120.58443467478868,137.07806851986902,145.62852867920344,203.23429858836928,202.0496876053797
1.234567901234568,156.7038783179204,102.11023326372069,135.83756326581607,115.34199009759942,137.05215808028848,145.62969246176982,202.3485907449689,201.88032416473249
1.267934601267935,162.8464913668265,96.30489190380024,133.42681257994954,111.1387655019142,137.1575149267223,145.8896252973866,201.2595402978548,201.44159562735496
1.3013013013013013,167.2440110511704,91.19575258866688,130.78089803148856,107.83288742535258,137.62314104525888,146.189094393085,199.72805320575048,200.87601475159445
1.334668001334668,169.50581742577114,86.61937809702427,129.08939328437816,106.40483915623192,138.20105105510683,146.8103592255492,197.93192316977024,199.99310008950377
1.3680347013680347,160.97898768912503,82.1539547626879,127.6808489695408,106.03426580892496,138.5889837126508,147.63191570469382,196.3802283552589,198.9752953191505
1.4014014014014016,154.64700593058134,78.31013361500658,124.63770093397429,107.28433144446954,138.8083452123794,148.6706703412227,194.8576957391157,197.7664008610948
1.4347681014347682,147.95470977440317,75.87717996880264,122.35040313186016,106.00169739153182,140.44488140648505,148.4226408280217,192.4481934646968,197.2619948906193
1.4681348014681348,141.76603794849026,74.90409987175924,120.10870775100834,102.82940305741486,141.4231262640639,149.30882195791258,190.9452134296777,195.95883116445765
1.5015015015015016,136.06918096476943,74.15547558973225,120.4417797693496,100.26578022260668,142.35663699845864,150.48157447653475,189.68507103922352,194.36332278886707
1.5348682015348682,130.1048824166378,73.47434988498335,118.52891446248796,98.49827100691463,143.24931112849086,151.90218357233184,188.73735481521933,192.43247090656084
1.5682349015682349,124.20342377534264,73.72487237933561,117.61963612618942,102.99974257100384,143.99177257645863,153.5334644979333,187.87790605168897,190.28404521107407
1.6016016016016017,119.07985016729684,74.12845883439448,115.11737927705332,103.40954555224994,144.5953368102193,155.3712250091323,187.2234965402,188.01472035738308
1.6349683016349683,113.04919955741909,85.94974237574422,112.18565698060256,105.61439997161116,146.77567151562124,156.61062647105072,185.0118802803485,186.04991853170745
1.6683350016683351,107.24090140472263,99.09162374924097,109.17929009013916,108.26467964440414,149.01943312947253,157.83451926625162,182.848899917594,184.13426338738145
1.7017017017017018,101.43841023755267,113.31662923097524,106.12521871436998,111.33522308930225,151.28668797141322,159.0344002415537,180.7799622419787,182.29429117797827
1.7350684017350684,96.32981944092752,128.3872850970377,103.05038296200308,114.80086882497945,153.53750236108442,160.2017662437769,178.85047404354643,180.55653815707285
1.7684351017684352,90.58258786215924,144.06611762351952,99.98172294174644,118.63645537010996,155.7319426181273,161.32811411974112,177.1058421123409,178.94754057824
1.8018018018018016,84.78948536644066,160.115653086512,96.946178762308,122.81682124336794,157.83007506218306,162.40494071626622,175.59147323840588,177.49383469505463
1.8351685018351689,94.87296911398818,176.29841776210571,93.9706905323958,127.31680496342742,159.79196601289277,163.42374288017214,174.3527742117851,176.22195676109158
1.8685352018685355,106.5508975280585,192.3769379263922,91.08219836071784,132.1112450489626,161.5776817898977,164.3760174582788,173.43515182252227,175.1584430299257
1.901901901901902,119.5613036263532,208.113739855462,88.3076423559821,137.17498001864757,163.14728871283887,165.25326129740603,172.88401286066124,174.3298297551319
1.9352686019352687,133.64222042657462,223.27134982540625,85.67396262689657,142.48284839115644,164.46085310135751,166.04697124437374,172.74476411624568,173.762653190285
1.968635301968636,148.53168094642456,237.61229411231616,83.20809928216923,148.00968868516333,165.47844127509478,166.74864414600188,173.06281237931938,173.4834495889599
2.002002002002002,163.96771820360544,250.8990989922829,80.93699243050813,153.73033941934244,166.16011955369186,167.34977684911033,173.88356443992606,173.51875520473143
2.035368702035369,179.68836521581954,262.8942907413969,78.88758218062117,159.61963911236782,166.4659542567898,167.84186620051898,175.25242708810953,173.89510629117453
2.0687354020687354,195.43165500076867,273.36039563574974,77.08680864121641,165.6524262829137,166.35601170402984,168.21640904704773,177.2148071139135,174.63903910186397
2.1021021021021022,210.9356205761553,282.05993995143245,75.56161192100183,171.80353944965404,165.79035821505312,168.46490223551646,179.81611130738173,175.77708989037467
2.135468802135469,225.9382949596816,288.75544996453584,74.3389321286854,178.04781713126314,164.72906010950078,168.5788426127451,183.101746458558,177.33579491028146
2.1688355021688355,240.17771116904967,293.20945195115087,73.44570937297517,184.36009784641493,163.132183707014,168.54972702555352,187.117119357486,179.34169041515926
