Time,Left Shoulder Angle,Right Shoulder Angle,Left Elbow Angle,Right Elbow Angle,Left Hip Angle,Right Hip Angle,Left Knee Angle,Right Knee Angle
0.0,30.780449680761656,9.130267919461552,143.38188697676085,137.08630617953884,127.08007830529996,132.60397589011367,201.8631732016359,203.336203890992
0.0333667000333667,24.70377251515316,21.45942112615368,143.73718095923093,144.19103613921448,131.18107201592233,135.12991835192688,199.0058936746877,202.2959916138821
0.0667334000667334,20.35619922933867,31.338025442191263,144.78146086991796,149.7321864323383,134.46481575214278,137.33092489046638,196.9192282390856,201.4738097753217
0.1001001001001001,17.607940228285457,38.95699683220441,146.43405522274423,153.81259208950004,136.99029443546448,139.22593299491598,195.54513320823293,200.85301224735943
0.1334668001334668,16.329205916960802,44.50725126082322,148.614292531632,156.53508814128944,138.81649298739055,140.83388015445942,194.8255648955329,200.416952902044
0.1668335001668335,16.390206700331987,48.17970469267781,151.24150131050348,158.0025096182962,140.00239632942413,142.17370385828048,194.7024796143889,200.148985611424
0.2002002002002002,17.66115298336628,50.16527309239827,154.235010073281,158.31769155111007,140.6069893830684,143.26434159556288,195.1178336782041,200.0324642475482
0.2335669002335669,20.01225517103097,50.65487242461471,157.5141473338867,157.58346897032075,140.68925706982648,144.12473085549038,196.013583400382,200.0507426824653
0.2669336002669336,23.31372366829332,49.83941865395722,160.99824160624294,155.902676906518,140.30818431120153,144.77380912724678,197.3316850943257,200.187174788224
0.3003003003003003,27.43576888012061,47.90982774505593,164.60662140427195,153.37815039029152,139.5227560286967,145.2305139000158,199.01409507343865,200.42511443687283
0.333667000333667,32.24860121148012,45.05701566254093,168.25861524189597,150.11272445223108,138.39195714381512,145.5137826629812,201.00276965112403,200.74791550046064
0.3670337003670337,37.62243106733915,41.47189837104231,171.87355163303727,146.20923412292635,136.97477257805997,145.64255290532677,203.2396651407852,201.1389318510361
0.4004004004004004,43.427468852664944,37.3453918351902,175.37075909161803,141.7705144329671,135.3301872529344,145.63576211623624,205.66673785582543,201.58151736064784
0.4337671004337671,49.53392497242478,32.868412019614674,178.66956613156066,136.89940041294304,133.5171860899415,145.51234778489336,208.22594410964803,202.0590259013445
0.4671338004671338,55.81200983158597,28.231874888945857,181.68930126678728,131.6987270934439,131.59475401058447,145.29124740048192,210.8592402156564,202.55481134517493
0.5005005005005005,62.13193383511573,23.62669640781388,184.3492930112202,126.2713295050594,129.62187593636642,144.99139845218568,213.5085824872536,203.0522275641877
0.5338672005338673,68.36390738798141,19.24379254084878,186.56886987878164,120.72004267837929,127.65753678879057,144.63173842918837,216.11592723784315,203.5346284304315
0.5672339005672339,74.37814089515085,15.27407925268053,188.2673603833956,115.14770164399432,125.7607214893609,144.23120482067495,218.62323078083,203.98536781595664
0.6006006006006006,69.24222653850455,12.334358262582873,186.8235802650185,108.61074731992672,124.66320997246342,143.6481975369792,220.1560604859613,204.2844567179986
0.6339673006339673,67.0754108757972,11.508025685346734,183.26318962418927,103.19002808401652,123.70246817997818,143.17492483663784,221.72090009536544,204.4363230029732
0.6673340006673341,66.29114523162811,12.952210732368895,180.04729778374747,98.39465656953956,123.07533341379848,142.8143743165201,223.010844005976,204.48961766722016
0.7007007007007008,66.96169091077785,16.52149219730369,176.03246366074936,94.32141646723296,122.6512890303952,142.64960960691477,224.1126235541661,204.2693598413041
0.7340674007340674,68.87056299955363,21.787204022064152,172.15442135876964,91.41513124748072,122.4242115384834,142.66369744210203,225.02995952984537,203.9581685174216
0.7674341007674341,71.94970711100723,28.689205957216217,168.27384869908306,89.76489405975654,122.74319279680648,142.76592975394968,225.4524433738306,203.5418800968812
0.8008008008008008,76.26462939410283,37.18215065534436,163.2817044341209,88.99539804132966,123.30821085974846,142.95038503451588,225.547261865603,203.00894574002376
0.8341675008341676,82.225558180246,46.977688874584615,158.83806999379695,89.39088469252906,124.53887897413718,143.2098752372462,224.78844204636505,202.38130046155376
0.8675342008675342,89.26801631842073,58.03349838192074,154.36503115645323,90.8912832175848,126.42225418504006,143.6471211728511,223.1291093080813,201.6490187175835
0.9009009009009008,97.16404241385116,70.2607807391637,149.6118851406122,93.48394336314664,128.90810317036616,144.2909216179409,220.6898726872049,200.74831877309032
0.9342676009342676,105.79916234115107,83.39221062323868,144.82201563383245,96.48523836242838,131.63508576467365,145.04555074659726,217.85467270603863,199.82788467663127
0.9676343009676344,114.96832458280976,97.2206840671903,139.92712576139115,100.50164430627798,134.65397422651253,145.94241149226357,214.68541565511512,198.8057878353625
1.001001001001001,124.44248920606346,111.40223846804412,134.8424613009544,105.50027010398878,137.96136343495758,147.1181614067595,211.17947012677948,197.68573962788705
1.0343677010343677,132.00146576102978,128.5054133762884,129.981031686604,111.9718659933982,140.94015441075408,148.5939081855742,208.5536227249461,196.1975815549464
1.0677344010677343,139.98976004580035,145.73777564672596,125.20436634908316,118.71595964332708,143.92543292396573,150.16355734152015,205.9346448446505,194.6498994211226
1.1011011011011012,148.42461587672204,162.86561245263633,120.55322409596006,125.60359057756162,146.87897577725252,151.81044915853516,203.3570580954901,193.0605018208366
1.1344678011344678,157.3232770701419,179.65521096730026,116.06836373480428,132.50579831988892,149.76255977327529,153.51792392055825,200.8553840870644,191.44719734851105
1.1678345011678346,166.7029874424071,195.8728583639978,111.79054407318536,139.29362239409608,152.53796171469506,155.2693219115284,198.4641444289727,189.8277945985685
1.2012012012012012,176.5809908098647,211.28484181600967,107.76052391867286,145.8381023239702,155.1669584041727,157.04798341538466,196.2178607308145,188.2201021654316
1.234567901234568,186.97453098886177,225.65744849661627,104.01906207883636,152.01027763329813,157.61132664436917,158.83724871606603,194.1510546021892,186.64192864352285
1.267934601267935,197.90085179574552,238.7569655790978,100.60691736124537,157.6811878458672,159.83284323794544,160.62045809751152,192.2982476526961,185.1110826272649
1.3013013013013013,209.37719704686305,250.34968023673497,97.56484857346948,162.72187248546427,161.79328498756232,162.38095184366017,190.69396149193463,183.6453727110804
1.334668001334668,221.42081055856133,260.201879642808,94.93361452307823,167.00337107587643,163.45442869588086,164.10207023845095,189.3727177295044,182.26260748939188
1.3680347013680347,234.04893614718765,268.0798509705976,92.7539740176412,170.3967231408908,164.77805116556192,165.7671535658229,188.3690379750045,180.980595556622
1.4014014014014016,247.27881762908905,273.7498813933838,91.06668586472792,172.77296820429447,165.7259291992665,167.35954210971505,187.71744383803457,179.8171455071933
1.4347681014347682,261.1276988206126,276.97825808444736,89.91250887190796,174.00314578987437,166.2598395996555,168.86257615406635,187.45245692819387,178.79006593552836
1.4681348014681348,275.61282353810543,277.53126821706866,89.33220184675088,173.95829542141755,166.34155916938977,170.2595959828159,187.60859885508188,177.91716543604983
1.5015015015015016,290.7514355979146,275.175198964528,89.36652359682621,172.50945662271118,165.93286471113035,171.53394187990267,188.220391228298,177.21625260318032
1.5348682015348682,306.56077881638737,269.67633750010583,90.05623292970354,169.5276689175422,164.99553302753813,172.66895412926567,189.32235565744165,176.70513603134242
1.5682349015682349,323.0580970098707,260.8009709970828,91.44208865295242,164.88397182969783,163.49134092127403,173.64797301484393,190.9490137521122,176.40162431495867
