Time,Left Shoulder Angle,Right Shoulder Angle,Left Elbow Angle,Right Elbow Angle,Left Hip Angle,Right Hip Angle,Left Knee Angle,Right Knee Angle
0.0,8.614583764777832,5.045277252331193,200.32622629681512,126.5138837816422,154.82367270177053,195.3111343813582,184.7225738820456,179.11068422425947
0.0333667000333667,7.804970970441914,4.052079182740795,202.38389523880508,127.78704519247414,155.21000281288968,195.25911969991807,184.11166539131665,178.87061583486562
0.0667334000667334,7.105304152119532,3.206979974018956,204.0272377995908,129.249047367158,155.53961793758472,195.2399874417841,183.5691386589444,178.60728964507658
0.1001001001001001,6.518709064651652,2.506247192624342,205.2830380204345,130.8889958366213,155.8169379778271,195.24992611882945,183.0914026986813,178.3242922141772
0.1334668001334668,6.048311462879246,1.94614840501562,206.17807994259843,132.69599613179162,156.04638283558822,195.2851242429271,182.67486652427985,178.0252101014523
0.1668335001668335,5.697237101643282,1.5229511776514548,206.73914760734485,134.65915378359654,156.23237241283942,195.34177032595025,182.3159391494926,177.7136298661867
0.2002002002002002,5.46861173578473,1.232923076990513,206.993025055936,136.76757432296358,156.37932661155216,195.41605287977185,182.0110295880721,177.39313806766523
0.2335669002335669,5.365561120144557,1.0723316694914602,206.966496329634,139.01036328082034,156.4916653336978,195.5041604162651,181.7565468537708,177.0673212651727
0.2669336002669336,5.391211009563736,1.0374445216129642,206.68634546970125,141.37662618809438,156.57380848124774,195.60228144730303,181.5488999603413,176.73976601799393
0.3003003003003003,5.548687158883232,1.0374445216129642,206.17935651739992,143.85546857571325,156.63017595617342,195.7066044847588,181.384497921536,176.41405888541377
0.333667000333667,5.841115322944017,1.0374445216129642,205.47231351399225,146.43599597460448,156.6651876604462,195.8133180405054,181.2597497511076,176.09378642671695
0.3670337003670337,6.27162125658706,1.0374445216129642,204.59200050074048,149.1073139156957,156.6832634960375,195.918610626416,181.1710644628084,175.78253520118844
0.4004004004004004,6.84333071465333,1.0374445216129642,203.5652015189069,151.85852792991443,156.68882336491873,196.01867075436363,181.1148510703911,175.48389176811295
0.4337671004337671,7.559369451983793,1.0374445216129642,202.4187006097536,154.67874354818824,156.68628716906125,196.10968693622144,181.0875185876081,175.20144268677535
0.4671338004671338,8.422863223419423,1.0374445216129642,201.179281814543,157.5570663014447,156.6800748104365,196.1878476838625,181.08547602821207,174.93877451646043
0.5005005005005005,9.436937783801186,1.0374445216129642,199.8737291745373,160.48260172061137,156.67460619101584,196.24934150915985,181.10513240595537,174.699473816453
0.5338672005338673,10.604718887970051,1.0374445216129642,198.5288267309986,163.4444553366158,156.6743012127707,196.2903569239866,181.14289673459064,174.48712714603795
0.5672339005672339,11.929332290766975,1.0374445216129642,197.1713585251909,166.43173268038666,156.68357977767374,196.3070824402176,181.19517802787183,174.30532106450147
0.6006006006006006,13.446649879286174,1.0374445216129642,196.5774819045004,170.99364928964496,156.7413902943958,196.2541601939592,181.1909396677232,174.2114845481489
0.6339673006339673,15.51077270403955,1.0374445216129642,195.3028039587254,175.40931456219698,156.802716543107,196.16599102576163,181.26278610964675,174.14962339377396
0.6673340006673341,17.384827695748676,1.0374445216129642,194.602099487181,178.9489468675611,156.8773535245077,196.07602274588965,181.371849752722,174.11768831371734
0.7007007007007008,19.38391287101294,1.0374445216129642,193.60061085259548,183.1321606891823,156.97165459807366,195.92497517130693,181.54339454478523,174.13380293934262
0.7340674007340674,21.4306338006608,1.0374445216129642,192.42800028403343,186.7571949197961,157.09365982935566,195.72548689877783,181.71760209886645,174.19265813275965
0.7674341007674341,23.83616071292657,1.0374445216129642,192.3236291340664,189.3879151070924,157.30601891667783,195.4277390157725,181.8601926589388,174.31317910485274
0.8008008008008008,26.546397258235977,1.0374445216129642,192.4523424727574,192.485740381807,157.59416834776175,195.10444999054093,181.9417233269184,174.47962495654406
0.8341675008341676,29.54576510036581,1.0374445216129642,192.58306759537805,195.3315792064142,157.97967787526875,194.75845920129683,181.93801822728125,174.67231818206392
0.8675342008675342,32.47998914413837,1.0374445216129642,192.6882886156048,198.07858998760392,158.45044386841803,194.403195137538,181.79574857404543,174.9174785037524
0.9009009009009008,36.43327878979599,1.0374445216129642,193.067962084377,198.2116426302433,158.98353823499556,193.96308205453613,181.6151761894512,175.23906726249058
0.9342676009342676,33.21809223297642,1.0374445216129642,193.13296282877533,199.05513936453644,159.533938249646,193.46500138995225,181.39731427162488,175.59002335366446
0.9676343009676344,37.36246417469721,1.0374445216129642,187.50290785430548,197.86109102884723,160.05360507570597,192.86986029166064,181.18389040200765,175.98051431724548
1.001001001001001,39.835544511802674,1.0374445216129642,184.47063094738127,195.4439605769653,160.50546642622837,192.2190010076846,180.9999629734956,176.3534681998542
1.0343677010343677,40.73096803450688,1.0374445216129642,186.59370981537992,189.4195727913015,160.6903928930757,192.0104062547684,180.84028005539795,176.76749004311327
1.0677344010677343,43.2528493517611,1.0374445216129642,186.4350540827268,186.4723158535589,161.10868758135746,191.0575963407348,180.6825693980138,177.202007530554
1.1011011011011012,47.20640873283213,1.124529199813689,187.80287746023475,182.6667345978856,161.30209412779283,190.6520573438389,180.25282127594707,177.7787171938611
1.1344678011344678,51.84897156000369,1.124529199813689,188.87214678695693,178.6161724524737,161.86313821160792,190.53523132922703,179.68831387564492,177.99604598787775
1.1678345011678346,63.532035620041526,1.124529199813689,185.8192576280869,178.18436715511945,163.06405621677118,190.04782940155505,178.9821710732383,177.98503997994183
1.2012012012012012,76.34732387762052,1.124529199813689,182.6049433476173,179.5098542229981,164.2343063487628,189.64509755097995,178.0694326719305,177.83096364174423
1.234567901234568,86.62528767220678,1.3298532705523003,182.5238203969216,182.91551143218524,165.26952103218667,189.38641755605053,177.30262833625528,177.47619977540404
1.267934601267935,95.71436332111652,1.3298532705523003,181.9041832384015,181.0513154062944,166.11429130614388,189.1846720265416,176.7937000406624,176.99306440248398
1.3013013013013013,103.98695751604949,1.3298532705523003,181.8683890947778,180.876690758656,166.70395095222048,189.0812356402912,176.64718225517342,176.5659527260838
1.334668001334668,111.8455585170228,1.3298532705523003,184.36365387719303,177.578586527863,167.1449523263696,189.1025154379169,176.69202976821697,176.07318620558465
1.3680347013680347,118.90484860067907,1.3298532705523003,188.6899225320251,172.95177903959905,167.49687802336638,189.4240757965094,176.8011549033198,175.63266188545967
1.4014014014014016,124.70874552353165,1.3298532705523003,192.11983028719,168.29027931220244,167.73329829856925,189.9580710473108,177.0625907647444,175.31219592327153
1.4347681014347682,127.95387463739652,1.3298532705523003,192.3111752360805,163.17927824750572,167.88650874589663,190.7180231690763,177.59930515206213,175.09476057681167
1.4681348014681348,130.031702274394,1.3298532705523003,192.3699100123009,159.20062324545506,167.94451439707106,191.7137979090512,178.21421139341777,174.90321600601615
1.5015015015015016,130.16236769443205,1.6496843002874677,191.2699340559643,154.47239094557943,168.06027162530282,192.81470626551,178.82726326512605,174.57283512815917
1.5348682015348682,130.04674576883474,1.6496843002874677,189.2387096703617,150.5921875828736,168.15049806239355,193.7193881714097,179.58018861803592,174.36495262608395
1.5682349015682349,129.37296603475158,1.6496843002874677,187.3877340506751,147.30768363592995,168.1995684849808,194.47097810653224,180.40157705691428,174.14486127289686
1.6016016016016017,128.7147643065242,1.6496843002874677,188.93171209360045,144.9571863850921,168.2116094360542,195.3907749198904,181.15674572654967,173.61631844527577
1.6683350016683351,128.1285295369628,1.6496843002874677,190.9723482456125,143.90350382275835,168.2878224986641,196.24030615729387,181.74625407375504,173.3164458912821
1.7017017017017018,126.59983893280734,1.6496843002874677,193.2677332540925,148.60998070195774,168.4034577135658,196.9925662141929,182.24471019296604,173.35341364618876
1.7350684017350684,123.87381764267792,1.6496843002874677,194.5069129875685,153.05265917779644,168.38087949069248,197.39314393377165,182.78709789783144,174.0054695538186
1.7684351017684352,119.87574853514344,1.6496843002874677,193.745695692404,158.088519318569,168.51977320749845,197.59516081017256,183.14001878396624,175.05040691327898
1.8018018018018016,109.236462266558,1.6496843002874677,186.96570289698064,160.15318751677728,168.6665325694094,197.7809815483741,181.88172666035493,178.15675832180216
1.8351685018351689,105.18056832752838,1.6496843002874677,183.59636418193327,163.693612481214,168.8250176704472,197.684650976489,181.06270997291824,181.18948370002693
1.8685352018685355,100.48524505949268,2.0802898554778526,180.23931829596933,168.04835595017948,169.11371494595323,197.3916762529772,180.6556077966621,183.9754943670476
1.901901901901902,93.67467077304056,2.0802898554778526,181.28888238557744,169.67657286025224,169.4571869949905,197.0745618777191,181.91996215057287,185.5438856172781
1.9352686019352687,78.54452735756223,2.0802898554778526,179.2766647156187,171.19160966775542,169.9198027487562,196.46006463017147,183.1903542417969,186.98927818718585
1.968635301968636,73.79647640781327,2.0802898554778526,182.19798708547776,172.36695929181653,170.41737764528796,195.6778544284564,184.27528554699725,188.5651625231652
2.002002002002002,68.31051364340054,2.0802898554778526,183.022523049438,172.58707993262882,170.9431718623729,194.83222668557588,183.9569349773801,191.57110648246595
2.035368702035369,62.4668675836401,2.0802898554778526,179.44314856819895,171.709810376937,171.40300516497666,193.93500944296656,183.72425366625723,194.4946601800993
2.0687354020687354,55.62529084264771,2.0802898554778526,169.94762405121682,169.75622652646308,171.92023521276312,192.84163121568508,183.67761559900472,197.16985852105364
2.1021021021021022,47.16663808787222,2.0802898554778526,161.75128404145988,167.35302090098946,172.5449465440483,191.6122227445721,183.77191452805772,199.58910810446443
2.135468802135469,46.93422318270453,2.0802898554778526,159.3207454363296,160.7146076082533,173.2875637746138,190.2494144751777,185.13986868933333,200.89341349950692
2.1688355021688355,47.2355322145109,2.0802898554778526,157.44272164823246,159.18888007161118,174.31604176183504,188.2593951945202,185.19010075697648,203.3360162010948
2.2022022022022023,47.90400324911317,2.0802898554778526,155.51011909928002,157.29038733854435,175.3738888076117,186.266023082174,185.29496216856583,205.58802856731083
2.235568902235569,48.80519249034765,2.0802898554778526,153.4605334014475,154.96661982579187,176.4480237556718,184.3098908236788,185.4725649470633,207.60302414480435
2.2689356022689355,49.80465614205147,2.0802898554778526,151.2315601667118,152.16506795009462,177.52536544974467,182.431591104576,185.74102111543192,209.3345764802264
2.3023023023023024,50.76795040806161,2.0802898554778526,148.76079500704998,148.83322212819337,178.59283273355962,180.67171661040712,186.118442696635,210.736259120228
2.335669002335669,51.56063149221518,2.0802898554778526,145.98583353443885,144.9185727768289,179.637344450846,179.07086002671358,186.6229417136356,211.76164561146007
2.369035702369036,52.04825559834899,2.6179375025821234,142.84427136085552,140.36861031274205,180.6458194453332,177.66961403903673,187.2726301893969,212.36430950057385
2.4024024024024024,52.09637893030043,2.6179375025821234,139.2737040982769,135.1308251526736,181.6051765607505,176.508571332918,188.0856201468821,212.49782433422013
2.4357691024357693,51.57055769190632,2.6179375025821234,135.21172735867998,129.15270771336432,182.50233464082729,175.62832459389887,189.0800236090544,212.11576365904995
2.469135802469136,50.336348087003785,2.6179375025821234,130.59593675404173,122.38174841155508,183.32421252929288,175.0694665075207,190.2739525988768,211.1717010217144
2.5025025025025025,48.25930631942995,3.2588948080589475,125.36392789633908,114.76543766398665,184.0577290698766,174.87258975932497,191.6855191393126,209.6192099688644
2.5358692025358693,45.204988593021824,3.999429338366988,119.45329639754904,106.2512658873998,184.68980310630783,175.07828703485308,193.33283525332493,207.41186404715103
2.569235902569236,41.03895111161643,4.835808659964911,112.80163786964856,96.78672349853532,185.207353482316,175.7271510196464,195.23401296387692,204.50323680322524
2.6026026026026026,35.62675007905068,5.764300339311372,105.3465479246146,86.31930091413408,185.59729904163024,176.85977439924642,197.40716429393183,200.84690178373808
2.6359693026359694,28.833941699161898,6.765642402285834,97.02562217442414,74.79648855093686,185.84655862798,178.51674985919448,199.8704012664528,196.39643253534047
2.669336002669336,20.526082175787,7.65204537058848,87.77645623105417,62.165776825684446,185.9420510850947,180.73867008503208,202.64183590440285,191.1054026046837
2.702702702702702,10.568727712763035,8.647959337680222,77.53664570648161,48.37465615511766,185.8706952567036,183.5661277623006,205.73958023074528,184.92738553841843
