Time,Left Shoulder Angle,Right Shoulder Angle,Left Elbow Angle,Right Elbow Angle,Left Hip Angle,Right Hip Angle,Left Knee Angle,Right Knee Angle
0.0,26.16770965344632,39.03138544897965,160.15379320010337,172.02077604731335,125.91753969111178,124.01495247672186,211.16782134116707,222.0212194038797
0.0333667000333667,25.88225326115615,38.95806191439583,159.83143189461447,172.02958399006604,126.1264723474977,124.15542851056756,211.17216654616345,222.15416612368463
0.0667334000667334,25.681527601149,38.90719701833353,159.62484841422662,172.0538136439884,126.3058779509161,124.2723634213101,211.1923967368872,222.27120028842327
0.1001001001001001,25.56051638795024,38.87756698704533,159.52769468901337,172.09304766210334,126.4577992061362,124.36751566471492,211.22657658754983,222.37325993163665
0.1334668001334668,25.514203336085256,38.86794804678382,159.53362264904828,172.1468686974338,126.58427881792716,124.4426436965474,211.2727707723631,222.46128308686576
0.1668335001668335,25.53757216007944,38.87711642380157,159.6362842244049,172.2148594030027,126.6873594910582,124.49950597257292,211.32904396553857,222.5362077876516
0.2002002002002002,25.625606574458185,38.90384834435115,159.8293313451568,172.296602431833,126.76908393029848,124.53986094855688,211.39346084128783,222.59897206753504
0.2335669002335669,25.77329029374686,38.94692003468514,160.1064159413775,172.39168043694764,126.83149484041724,124.56546708026464,211.46408607382247,222.6505139600572
0.2669336002669336,25.975607032470865,39.00510772105613,160.4611899431406,172.49967607136955,126.87663492618366,124.57808282346164,211.5389843373541,222.69177149875892
0.3003003003003003,26.227540505155584,39.07718762971668,160.88730528051963,172.62017198812163,126.9065468923669,124.57946663391324,211.6162203060944,222.72368271718145
0.333667000333667,26.524074426326404,39.16193598691939,161.37841388358817,172.75275084022687,126.9232734437362,124.57137696738484,211.6938586542549,222.74718564886547
0.3670337003670337,26.860192510508707,39.25812901891682,161.9281676824197,172.89699528070818,126.9288572850607,124.55557227964182,211.76996405604723,222.7632183273521
0.4004004004004004,27.23087847222789,39.36454295196155,162.5302186070879,173.0524879625885,126.92534112110964,124.53381102644958,211.84260118568292,222.7727187861824
0.4337671004337671,27.631116026009323,39.479954012306166,163.17821858766624,173.21881153889075,126.91476765665222,124.5078516635735,211.9098347173737,222.7766250588971
0.4671338004671338,28.05588888637841,39.60313842620324,163.8658195542283,173.39554866263788,126.8991795964576,124.47945264677898,211.9697293253312,222.77587517903743
0.5005005005005005,28.500180767860527,39.73287241990535,164.5866734368476,173.58228198685282,126.88061964529496,124.4503724318314,212.0203496837668,222.77140718014428
0.5338672005338673,28.958975384981063,39.86793221966508,165.33443216559775,173.7785941645585,126.86113050793354,124.42236947449618,212.0597604668924,222.76415909575863
0.5672339005672339,29.427256452265635,40.00709405173532,166.1027476705537,173.98406784877923,126.84275488914348,124.39720223053963,212.0860263489209,222.75506895942337
0.6006006006006006,29.955171057980305,40.06287716309785,166.93199625709548,174.15663688347362,126.82144809131412,124.43591386618536,212.0448654399675,222.73975339582788
0.6339673006339673,30.43313944930759,40.16738836260734,167.7554976071798,174.4073331230667,126.88006489500412,124.51592508408932,211.96874770823524,222.72438617017625
0.6673340006673341,30.87342242809828,40.30424587458363,168.56168845237167,174.70283062101328,126.96063259902346,124.60751728444852,211.8790175759545,222.70906727140647
0.7007007007007008,31.2901740276096,40.45283868134085,169.3491561225483,174.99961443371797,127.03997711317471,124.68504862382608,211.76752949226807,222.70029454725648
0.7340674007340674,31.67031779071015,40.5895398357321,170.14862235599173,175.16616764078938,127.1839713183864,124.67401175654253,211.64122854382512,222.73813281502848
0.7674341007674341,32.033712416807475,40.73187783938398,170.93094797830668,175.33247684249466,127.3296799453292,124.6415578084161,211.498030631692,222.80036471882627
0.8008008008008008,32.375955252784955,40.87977135395171,171.64860905786043,175.5118653605516,127.43714831913184,124.60837472700624,211.3529609919597,222.8705093186593
0.8341675008341676,32.70258854971109,41.03002878577582,172.3267375061857,175.71256068740905,127.51887394446968,124.59427904551931,211.19925655065856,222.9345886061722
0.8675342008675342,33.02712640104558,41.219220589376,172.95616086917195,176.0211163651284,127.54523455601816,124.58670396385716,211.04312979191872,222.99115901022924
0.9009009009009008,33.32590424487081,41.412880227527815,173.51441102769985,176.36487627263875,127.5242399028484,124.590505431791,210.8912451267853,223.0346718726916
0.9342676009342676,33.597390735084026,41.59797415249245,174.01964191897525,176.71126332965028,127.4742526777514,124.60093185065044,210.74375743098625,223.06837915203133
0.9676343009676344,33.80427009766177,41.76192014059257,174.40951428279922,177.04392295952206,127.3983199378182,124.6314699571055,210.59772894689527,223.0884777125856
1.001001001001001,33.92020441677814,41.99642311540257,174.6524231228531,177.4814439565785,127.31842016800388,124.66443975406531,210.40639727061537,223.08111858785352
1.0343677010343677,33.95066877486097,42.19847839644271,174.75616100370922,177.88677530685106,127.22345181112183,124.72011089644938,210.2153213814935,223.0552516844972
1.0677344010677343,33.90455679856769,42.33650730504999,174.73076934889272,178.22579883294068,127.1093362440014,124.80056354924533,210.0520352153125,223.02119942907865
1.1011011011011012,33.862404979522495,42.39522697473235,174.7176337431569,178.46295198069163,126.96088579771369,124.89727857034336,209.922721331603,222.9758298647456
1.1344678011344678,33.8593958683326,42.4628819293309,174.73037472384192,178.76893923876878,126.843856373277,124.9481967029919,209.679453737001,222.9529539667049
1.1678345011678346,33.89941519335746,42.44685509095543,174.84805905226233,178.95564907247936,126.7154638307903,125.02241166963866,209.45165312499023,222.920692874124
1.2012012012012012,33.94810074701042,42.32869298402121,175.00933039713297,178.98488862859392,126.5480331569706,125.12517276804974,209.3143770839669,222.8778191523179
1.234567901234568,33.98196607106684,42.13488685216463,175.16241288124064,178.8868019292911,126.33692766043065,125.24416361619352,209.2619736773321,222.8247378227869
1.267934601267935,34.04360086359694,42.05193265032116,175.1616905369368,178.8631705173476,126.0142133547786,125.34767503468134,209.34864512825683,222.74720756481832
1.3013013013013013,34.10444056179549,41.90815666861224,175.15393609240195,178.73045955368283,125.63718435520704,125.45868961660952,209.5165579149638,222.6564730760173
1.334668001334668,34.14688184805371,41.66132173214513,175.1933994289561,178.44425132170178,125.22706892341608,125.5810419996519,209.76132732315352,222.5651895390088
1.3680347013680347,34.14856852104673,41.30836045171076,175.2548404370339,178.00763399821085,124.80923243760716,125.71360917104305,210.0868244454929,222.4800707417016
1.4014014014014016,34.225644558083786,40.95709471092886,175.29092444615893,177.54273398940046,124.30394078917033,125.77238885512988,210.4995148052312,222.44823720318809
1.4347681014347682,34.25809425681279,40.51007640994094,175.40311561566497,176.95817183959812,123.86966203030904,125.8282687352451,210.9440355085699,222.45041953820493
1.4681348014681348,34.18387784765151,39.94342820273433,175.49942016993185,176.23990570724794,123.5279820308088,125.92271324559611,211.38149851280025,222.46025845103603
1.5015015015015016,34.060774414396576,39.28238429642863,175.67905764454295,175.4316244803677,123.20623724752808,126.08281367955485,211.85970191590908,222.48365115358493
1.5348682015348682,33.96598173038166,38.72345449448558,175.84911521504216,174.75274503825256,122.95484842464802,126.30797309546114,212.3307970634422,222.48659510490285
1.5682349015682349,33.865953800600174,38.075495749221766,176.18423663250965,173.94462144054054,122.75546018991916,126.59639292297246,212.81128482077315,222.461644915826
1.6016016016016017,33.73456370993244,37.306134984138055,176.65031509864784,172.9884397116633,122.5540586587056,126.9349155687106,213.339889851424,222.409084714798
1.6349683016349683,33.55710313048902,36.39786733727899,177.30699542504053,171.87300966631608,122.3981120218222,127.32949794207062,213.8694291783048,222.33585471082728
1.6683350016683351,33.32597449828798,35.45816954497547,177.68948533341654,170.86677020149867,122.35264981025831,127.76746804271644,214.28565727567664,222.2393317117914
1.7017017017017018,33.02251091047463,34.409337286124114,178.2200597596639,169.704084053932,122.37156579514924,128.25474880203083,214.67666657261947,222.12134542176915
1.7350684017350684,32.646083738917284,33.240431266822746,178.93377662411342,168.36181754673788,122.43265865470728,128.78424668597555,215.077260544214,221.98363645591104
1.7684351017684352,32.18509467821334,31.965587614478185,179.79552208634,166.8276212920418,122.47267087635092,129.3076938979504,215.51135528839268,221.84788884842584
1.8018018018018016,32.14712980097784,30.819373338709305,181.2804339856726,165.62045255376373,122.55941450924304,129.79805923713323,215.95244567000043,221.73538114207204
1.8351685018351689,32.164389327283814,29.607558666038887,183.4862402756501,164.197380277284,122.6612244631444,130.2641409282336,216.4145927406129,221.63442910768532
1.8685352018685355,32.00801500779271,28.299035368674502,185.9386439555132,162.4734821217363,122.76000803612826,130.71030778634486,216.90877471872537,221.5356778328144
1.901901901901902,31.62168771929906,26.923395292382416,187.9663407398833,160.74456410633283,122.75413627548612,131.2220986246681,217.4391165522875,221.39016436791812
1.9352686019352687,30.730170089407085,25.40886269280625,190.8894060274305,159.89569786162653,122.68734761087048,131.76333178009847,217.96405552853685,221.19182598564143
1.968635301968636,29.61277986154465,23.815425351430537,192.9343059106666,158.7785958780917,122.5724432275668,132.31678140400896,218.49002438465527,220.95630790983225
2.002002002002002,28.408920114370805,22.2073721989918,194.1904150937177,157.32073910003075,122.4030984841151,132.86337888017218,219.0419269113489,220.6975262824969
2.035368702035369,27.1462505248551,20.572615443867328,194.89320190355835,155.4428465629101,122.22861842949868,133.4016537793632,219.59546964925235,220.4172539908392
2.0687354020687354,25.603251961701904,19.06559255519957,195.29361522768028,153.6614883859006,122.03709547613076,133.8954322753575,220.12635709148643,220.14440230130288
2.1021021021021022,24.00722360192137,17.564412331546922,194.9657320744711,151.37870360229138,121.8327686678078,134.36178394778975,220.65003967489145,219.8581955988857
2.135468802135469,22.44071208946822,16.030665662422425,193.9333410012486,148.92369308266376,121.6345462890574,134.79365368524097,221.12137126670763,219.56092347231865
2.1688355021688355,20.89064223427599,14.4940691812895,192.0403923945955,145.95337552814163,121.40915771729904,135.20740948398907,221.61330139332924,219.2720916104775
2.2022022022022023,19.293810088382696,12.987611666999642,190.2376684797632,142.70541869843197,121.02467874629409,135.574336860749,222.1119185751053,219.01979673239936
2.235568902235569,17.94199361448149,11.51667788308712,188.03017582198592,138.98058119268077,120.63372349590396,135.8978022175575,222.59937824522547,218.78881981040297
2.2689356022689355,16.78019853589566,10.165141772851957,185.2931848522751,135.33043843662452,120.27613016683328,136.16690497615667,223.05673980104245,218.58769810190927
2.3023023023023024,15.770182607381928,8.91682328438057,182.10186540454063,131.575755691303,119.91100926808248,136.46568798631068,223.65808280168287,218.3616544070105
2.335669002335669,14.507499416627144,7.245786687159128,178.51829411425825,128.35340447320206,119.4941307848746,136.73630935390196,224.3427076594004,218.1676285496493
2.369035702369036,13.466418236318624,5.656955511246798,174.5084756592636,124.5786023323904,119.09041749748415,136.9891105511166,225.04813956688685,217.97010871916063
2.4024024024024024,12.701964848460031,4.439383463015262,170.11511212294928,120.660638944955,118.74301134116092,137.21072464755406,225.757784969588,217.76579240981343
2.4357691024357693,12.294067020845196,3.458981021735119,165.652586473423,116.38143667406024,118.51111083773498,137.42707075191865,226.4082272184644,217.58778574339075
2.469135802469136,12.11018742987895,2.428592849321312,161.31985989576538,111.94540567341572,118.2774278327932,137.6172622973444,227.00809712443169,217.43719189263973
2.5025025025025025,12.371760995951975,2.428592849321312,157.0333898726945,107.39625234467375,118.09453782502736,137.77631501394185,227.5729521620637,217.31442274145155
2.5358692025358693,13.09910258884967,2.428592849321312,152.76342817790507,102.8566737436448,117.99850329693496,137.88759999361255,228.08950816305605,217.2295300156701
2.569235902569236,14.086623249338247,2.428592849321312,148.668586558485,98.27186918045052,118.1225803021049,138.06079207533477,228.5253042237079,217.1272439095819
2.6026026026026026,15.678868630892744,2.428592849321312,145.01666635996332,93.78256620608408,118.358877996916,138.22281925066656,228.92663321930425,217.00943726396173
2.6359693026359694,17.245972695759264,1.8341332161739607,140.84928930513206,89.41026857835487,118.67747284382595,138.38768945682574,229.3098067615593,216.8662767252728
2.669336002669336,18.79613655377092,1.7788085045596116,136.5772651593879,85.07795395173954,119.08755082657434,138.56390904892112,229.6379903957432,216.6970674088309
2.702702702702702,20.86308511949498,2.140849664340317,133.0336166530658,80.76372860942188,119.51930341295584,138.7551972255858,229.9604566044006,216.5250216063392
2.736069402736069,24.662748300263136,2.947247958683386,131.64366249711392,76.68220263401446,120.05851039407106,138.96303323300523,230.26272772069424,216.363024365176
2.7694361027694363,27.92664323916025,2.947247958683386,128.87591125572752,73.09855673946474,120.67353047945122,139.18395682002938,230.49988601881088,216.19233367634905
2.802802802802803,30.59019387928346,2.947247958683386,125.98083750485355,69.9846399518691,121.3340381993368,139.41128315960665,230.658197374528,216.02150436795856
2.836169502836169,32.25288876279087,2.947247958683386,123.29086055505536,67.06854541552063,121.95099961698998,139.65427723691127,230.88241429432887,215.84992948766768
2.8695362028695364,35.34430896628614,2.947247958683386,124.591221778789,64.32977301144211,122.56713246186526,139.93969143329238,231.1090394524996,215.6594158581677
2.902902902902903,38.13500982735041,2.947247958683386,126.15276504742933,62.21910842354677,123.1780970545876,140.23622590849874,231.31542421236725,215.46508067148275
2.9362696029362696,41.02353997680604,2.947247958683386,127.66314069375136,60.85553299974856,123.78152262378671,140.52167353618592,231.4875597427323,215.2776122322292
2.9696363029696364,43.0622377049832,2.947247958683386,128.64870898207857,59.61771358776884,124.30748723302614,140.81808204983008,231.66052125330947,215.0690982248504
3.003003003003004,43.24123284700689,2.947247958683386,130.04880634070378,58.92638153836072,124.80667775639148,141.1236980241817,231.8009766506632,214.83563691141583
3.0363697030363697,43.08506766242241,2.947247958683386,130.91672043757788,58.95200963104288,125.25874339787016,141.41680442174885,231.91580234777103,214.5976720229077
3.0697364030697365,42.164680563950455,2.947247958683386,130.3725322033234,59.6053282655735,125.64419616190216,141.68614690524794,232.00676830949817,214.36523467237328
3.103103103103104,41.506188461056176,2.947247958683386,128.96060867913906,59.64795513734519,125.95442479799452,141.91898837552077,232.10851979005383,214.15903278395464
3.1364698031364697,32.17745569867658,2.947247958683386,124.89918614648728,59.84942805676224,126.21380379007913,142.11739048851092,232.18385996339444,213.9801102565285
3.169836503169837,25.72762268775051,2.947247958683386,120.63099762249117,60.356901012393934,126.40568877384992,142.2724494118201,232.23187226603247,213.83112322014009
3.2032032032032034,32.155074035739446,2.947247958683386,117.48757319994468,61.20063926620068,126.50651572128275,142.37456866256187,232.2843930349896,213.72228787007649
3.2365699032365702,38.00671073419994,2.947247958683386,114.08096015906534,61.77787656579529,126.51208977961682,142.45299619571543,232.3518789062808,213.6255431119393
3.2699366032699366,32.86878341843759,2.947247958683386,109.6011744570659,62.32201455433786,126.33313619797636,142.53296320189008,232.4090461777298,213.56180490679515
3.3033033033033035,29.80881171418246,2.947247958683386,105.8796476795646,63.00572576570077,126.05284189080768,142.59321218749955,232.47607943526427,213.51641213341728
3.3366700033366703,37.29718024381515,2.947247958683386,106.46077213954123,64.10331764704549,125.68129692669172,142.5957741300739,232.5423514639249,213.4974093568925
3.3700367033700367,45.66095428257007,2.947247958683386,104.53356058012209,65.44674930126948,125.4153750190712,142.55614908526468,232.58891192665808,213.49201446699195
3.4034034034034035,43.37349520937872,2.947247958683386,101.49025236625258,67.15091384157135,125.1232964390908,142.50065022504626,232.61892580108503,213.47562921987165
3.4367701034367704,43.41054615666714,2.947247958683386,99.3241257300186,68.9012522108273,124.67499365910464,142.3898583603141,232.63528336418372,213.4908191937432
3.4701368034701368,45.33605456242795,2.947247958683386,97.64317576198653,70.23348799531372,124.1631838926287,142.28785111273433,232.6293294948904,213.5442250311216
3.503503503503504,49.4919192239192,2.947247958683386,96.31437757423797,70.75370992224474,123.75565795467452,142.16000827954414,232.5973858944635,213.59452582323053
3.5368702035368704,55.35360876547841,2.947247958683386,94.4276101464023,72.51460821010215,123.64971950051972,142.11147342583314,232.53979990176973,213.4094565420943
3.5702369035702373,62.82160966288493,2.947247958683386,93.15703517397446,74.31049440374727,123.63304346918486,141.9573272138658,232.4727030879762,213.26321986071383
3.603603603603604,71.42481143345063,4.225489760812076,93.29843491399193,75.92825346327406,123.5585820078504,141.73253536059283,232.3870850370615,213.19800085425288
3.6369703036369705,81.56030685729763,4.225489760812076,93.92687440829796,77.30772295507157,123.54501579563085,141.41271309803886,232.3084323305777,213.26239220155563
3.670337003670337,101.8751198268788,4.225489760812076,94.61628802200964,77.3656729189345,123.47087272576364,141.0023491332838,232.40967683018096,213.48618019813125
3.703703703703704,120.60318472865234,4.225489760812076,95.85214229692316,76.38652066533025,123.39543550458056,140.76657501601574,232.4855721223157,213.83402868458728
3.737070403737071,137.4536315221516,4.225489760812076,96.8150018933294,76.2325608545676,123.373636403756,140.33893597303617,232.5090893305616,214.29543970653623
3.770437103770437,152.1480028044343,4.225489760812076,97.3156343009495,73.51535233441277,123.39108564798735,139.93964245247057,232.4533488765952,214.82536488721067
3.803803803803804,167.08185871979504,4.225489760812076,101.96355737984584,77.32290962490289,123.40001587544847,139.23262536438992,232.7117665404676,215.47487104749777
3.8371705038371706,180.34740600049824,4.225489760812076,107.1357256155956,80.81492954446318,123.41861720875195,138.43867223061963,232.90899992515023,216.1872119169291
3.8705372038705375,191.1246701950196,4.225489760812076,110.92348435509206,83.85442429169478,123.53854902475776,137.63823831643276,232.92522637952305,216.93962072625865
3.903903903903904,197.70565783425485,4.225489760812076,113.7995420540052,86.73963322514406,123.6208238062106,136.8699489695565,232.7142744295504,217.69792523138483
3.937270603937271,200.7880297670516,4.225489760812076,115.63762078120428,87.17632005050233,123.79638117640428,136.21868318943828,232.38740737371955,218.5371119020968
