Time,Left Shoulder Angle,Right Shoulder Angle,Left Elbow Angle,Right Elbow Angle,Left Hip Angle,Right Hip Angle,Left Knee Angle,Right Knee Angle
0.0,69.26527714415349,37.41789758404722,148.90974022013978,159.1207511148188,141.4641565003572,141.10053617961316,198.8839913544157,195.3947186249837
0.0333667000333667,44.33500219836228,33.64326761562138,153.2713382193837,165.9659462417849,139.94114162340267,139.36876169434356,198.86086360898025,197.2691372067364
0.0667334000667334,24.22961257159592,30.443612466710576,157.02829130738525,170.91194835927763,138.5036931808893,137.88645548911143,198.97345682602293,198.9298167424488
0.1001001001001001,8.672301554409948,27.79002084203057,160.21442796614576,174.08527481801778,137.14898438676053,136.63856747798428,199.2123549094956,200.3882890057009
0.1334668001334668,-2.613737562640125,25.65358144629716,162.8635766776666,175.61244296872607,135.8741884549598,135.61004757502957,199.5681417633496,201.6560857700729
0.1668335001668335,-2.613737562640125,24.00538298422611,165.00956592394914,175.61997016212334,134.67647859943057,134.78584569431484,200.03140129153653,202.74473880914496
0.2002002002002002,-2.613737562640125,22.81651416053321,166.6862241869947,174.2343737489303,133.55302803411627,134.15091174990758,200.59271739800835,203.66577989649696
0.2335669002335669,-2.613737562640125,22.05806367993425,167.92737994880466,171.58217107986775,132.50100997296028,133.69019565587527,201.24267398671643,204.43074080570915
0.2669336002669336,-2.613737562640125,21.701120247145003,168.76686169138034,167.78987950565644,131.5175976299061,133.38864732628542,201.97185496161248,205.05115331036149
0.3003003003003003,-9.905311488998734,21.716772566881254,169.23849789672315,162.98401637701716,130.59996421889718,133.23121667520556,202.7708442266481,205.53854918403408
0.333667000333667,-13.479226934110386,22.076109343858786,169.37611704683437,157.29109904467066,129.7452829538769,133.20285361670312,203.6302256857749,205.90446020030703
0.3670337003670337,-13.612290607419553,22.75021928279337,169.2135476237154,150.83764485933776,128.95072704878874,133.28850806484567,204.54058324294465,206.1604181327604
0.4004004004004004,-10.581309218370675,23.710191088400805,168.78461810936756,143.75017117173917,128.21346971757612,133.47312993370065,205.4925008021088,206.3179547549743
0.4337671004337671,-4.66308947640826,24.927113465396864,168.12315698579224,136.15519533259567,127.53068417418248,133.7416691373356,206.47656226721904,206.3886018405288
0.4671338004671338,3.865561909023242,26.372075118497328,167.26299273499075,128.17923469262803,126.89954363255126,134.07907558981802,207.483351542227,206.38389116300385
0.5005005005005005,14.72783822847937,28.01616475241798,166.23795383896447,119.94880660255704,126.3172213066259,134.47029920521538,208.5034525310844,206.31535449597968
0.5338672005338673,27.64693277251557,29.83047107187461,165.08186877971477,111.59042841310344,125.78089041034984,134.9002898975952,209.5274491377427,206.19452361303632
0.5672339005672339,42.34603883168749,31.786082781583183,163.8285660392443,103.23061747498916,125.28772415766755,135.35399758102605,210.5459252661552,206.0329302877556
0.6006006006006006,58.548349696550616,25.28229233166412,163.36971836667658,94.88373746502052,124.81784223425817,135.73958792214395,211.39684018353765,205.81244757979675
0.6339673006339673,75.97705865766038,31.169596567598955,161.3418723445301,89.23477614441828,124.09869765106612,136.0816233574194,212.3216213079838,205.5939017163942
0.6673340006673341,94.35535900557252,36.61193029835911,161.19021711039437,82.61785285368332,123.14921487206286,136.3233772889403,213.43255441773823,205.5276937564842
0.7007007007007008,113.40644403084308,41.06046666545405,160.22726664649173,74.96863801124253,122.20105854822744,136.37691077569335,214.86681288959144,205.64114453746376
0.7340674007340674,128.97332110211843,45.19577847478327,159.64366415408588,68.76950919588509,121.27971961440136,136.09284752786752,216.43102281718228,206.0880573562773
0.7674341007674341,155.62136693979625,48.63151902118992,159.69050292365233,63.17897663850258,120.5568449557823,135.77046670034468,217.6885623404945,206.59096600254884
0.8008008008008008,178.29323071137287,51.6160765855163,160.04742835193477,59.35041670370847,120.12916300038424,135.50293400368048,218.74823311122503,206.95291468378107
0.8341675008341676,197.71841284780623,45.8166195163575,159.52293071880553,59.70407303441904,120.1005029050372,135.45922725929913,219.40088463619347,207.2197229067816
0.8675342008675342,214.79301460905765,51.57322253762257,157.40522927741807,62.26853221339536,120.3269472226332,135.50940710165182,219.6406622253708,207.3725855596348
0.9009009009009008,229.9795676257052,53.86020564796938,158.36936726713262,61.9601782290391,121.051512778074,135.54014154793407,219.3587488358826,207.5616345526668
0.9342676009342676,241.9905430749901,57.95680318060302,156.33372181726395,64.0232381047404,122.10060797921942,135.6778154817454,218.75262877023107,207.64807518442512
0.9676343009676344,250.15228052700613,62.13474938012418,156.8531856391215,66.50894560642006,123.18355653970067,135.90281749930364,217.9844033458413,207.64499078330908
1.001001001001001,246.39558681447463,65.03711108281998,153.87801875706302,66.08561085634217,124.32196170606493,136.20239485872082,217.0208055529177,207.54139098627869
1.0343677010343677,242.650702892387,58.06132176635289,154.0869910917093,64.77759084367858,125.7294461314018,136.57144533173684,215.7587433074567,207.31749424286045
1.0677344010677343,247.4033904723236,53.408015512238535,155.14045180951817,64.6243927566413,127.17797188456052,137.01624088259456,214.29281999073285,207.02630044058407
1.1011011011011012,240.8636697333916,50.26198493055986,155.85192606359607,66.52068223962776,128.7587633501672,137.52935258144905,212.62950613993675,206.46895801062644
1.1344678011344678,234.96384144576209,51.00911921423547,157.48664883366382,66.66330746308688,130.56871033296497,138.0995874911062,210.71089360869283,205.67314357978728
1.1678345011678346,226.03766503805488,51.06219380985384,158.54034686514913,70.70815359967891,132.53544349852086,138.6213848520408,208.5798302580264,204.79638839436672
1.2012012012012012,216.6619224624358,52.48930560631565,156.82682081478617,75.99422000127872,134.52537477878474,139.1443333149657,206.43311234745389,203.8122194978158
1.234567901234568,206.57064214663623,54.69437554138969,155.41679448137023,80.12612226239155,136.637245040785,139.65760556399013,204.1469748963812,202.723018061407
1.267934601267935,195.24957937524908,59.47546402468807,152.87145153243404,83.96216696052085,138.49802307567398,140.19668083660318,202.06183026165544,201.3311862945893
1.3013013013013013,182.11697496208373,64.43297197106837,150.4640940542793,89.20927387441942,140.4582683428072,140.90510468651382,199.8339065648016,199.5886467766925
1.334668001334668,167.56270224712787,78.78671763537477,146.7671194477807,93.39991514460375,142.78096627170038,141.44797405307455,197.6621406323955,197.7044816553293
1.3680347013680347,160.47856286089913,93.0557082578446,142.6284506380993,98.30989004918447,144.76519795123104,142.12145953745937,195.40003079055413,195.90149496770624
1.4014014014014016,163.3927520224637,106.70925039137153,138.7193583885005,103.68399152262904,146.53914966971172,142.90758949643424,193.11575403355343,193.93661690132564
1.4347681014347682,165.02011631062945,118.96785849083376,134.33529630686752,108.80731351288154,148.2054379809343,143.75214173271036,190.80179776702028,191.90977801130333
1.4681348014681348,166.6306598662841,129.7425009573554,129.65436970496933,113.558915104682,149.80490207376735,144.6849603781589,188.58596703552905,189.7417002828405
1.5015015015015016,167.91620406799777,138.5926489598393,124.69530626424404,117.8401509536271,151.33379695055692,145.63342484450504,186.4305226310755,187.535536915656
1.5348682015348682,168.24058552778982,146.10651860718482,119.14410673264798,120.99591459249277,152.88192045120368,146.61777728400455,184.3591709980037,185.3191098271548
1.5682349015682349,168.1311067488875,152.17956072431002,112.8237019982272,123.7466762193075,154.2267911484264,147.41860778317078,182.53230855785057,182.9743907196951
1.6016016016016017,167.53795167893963,156.84118257741198,106.55444176445252,125.42452709841464,155.5499927187585,148.3183001085816,180.90476786528976,180.6736415580956
1.6349683016349683,166.49575790660364,167.06107158671347,100.20263308039976,128.57106774762588,156.01075443897014,148.94531882345242,179.90407566278736,178.55984737029866
1.6683350016683351,165.2867470093189,176.01903107568563,93.84267790375114,131.12585610514617,156.41282679339434,149.61014773959653,179.04199995311518,176.53291035480294
1.7017017017017018,163.66132164640635,183.4094806955014,87.53409792521535,132.9924483408194,156.78361913994237,150.32652485034615,178.31074048384465,174.61143394671507
1.7350684017350684,162.26159574459697,188.92684009733523,81.3364148355022,134.07440062449052,157.15054083652646,151.1081881490345,177.70249700254885,172.81402158114332
1.7684351017684352,167.24617447433778,192.26552893236143,75.30915032532154,134.27526912600445,157.5410012410589,151.96887562899474,177.20946925680084,171.15927669319598
1.8018018018018016,171.4458692894613,193.11996685175475,69.51182608538323,133.49861001520617,157.98240971145188,152.92232528356004,176.82385699417375,169.66580271798136
1.8351685018351689,174.54185409879264,191.1845735066896,64.00396380639707,131.6479794619406,158.50217560561777,153.98227510606358,176.53785996224062,168.35220309060773
1.8685352018685355,176.2153028111587,186.15376854834005,58.84508517907294,128.62693363605266,159.1277082814687,155.16246308983852,176.3436779085745,167.23708124618338
1.901901901901902,176.1473893353864,177.72197162788098,54.09471189412062,124.33902870738731,159.88641709691703,156.4766272282181,176.2335105807485,166.3390406198166
1.9352686019352687,174.0192875803029,165.58360239648664,49.81236564225006,118.68782084578946,160.80571140987496,157.93850551453545,176.19955772633568,165.6766846466157
1.968635301968636,169.51217145473504,149.43308050533167,46.05756811417096,111.57686622110413,161.91300057825475,159.5618359421238,176.23401909290916,165.26861676168895
2.002002002002002,162.30721486751006,128.96482560559025,42.88984100059325,102.90972100317616,163.23569395996873,161.36035650431626,176.32909442804197,165.1334404001447
2.035368702035369,152.08559172745487,103.8732573484372,40.36870599222672,92.58994136185056,164.80120091292906,163.34780519444607,176.47698347930717,165.28975899709116
2.0687354020687354,138.52847594339636,73.85279538504659,38.55368477978129,80.52108346697224,166.63693079504804,165.53792000584636,176.66988599427788,165.75617598763668
2.1021021021021022,121.31704142416189,38.59785936659321,37.50429905396668,66.60670348838619,168.77029296423797,167.94443893185036,176.90000172052714,166.55129480688953
2.135468802135469,100.13246207857804,-2.1971310557485424,37.28007050549279,50.75035759593724,171.228696778411,170.58109996579125,177.15953040562803,167.69371888995795
2.1688355021688355,74.65591181547202,-48.83775623080456,37.94052082506953,32.85560195947053,174.03955159547954,173.46164110100216,177.4406717971537,169.20205167195036
