Time,Left Shoulder Angle,Right Shoulder Angle,Left Elbow Angle,Right Elbow Angle,Left Hip Angle,Right Hip Angle,Left Knee Angle,Right Knee Angle
0.0,71.82560215041947,65.35921228762454,137.07511385989324,140.99547468796482,136.17481297092198,120.00574073201022,207.49083190185132,219.84285864100607
0.0333667000333667,41.22160952003607,45.07094238509504,145.77327658142235,152.4638644744553,135.85876433216092,124.07412521811388,205.4808019928145,213.39708250384007
0.0667334000667334,16.862532999155448,28.58863367681807,153.19247850170524,161.21623761982644,135.32596413969327,127.65350369133152,204.08436314317,207.9986633289676
0.1001001001001001,-1.686111950273414,15.65547353421514,159.40888891046984,167.44520308143552,134.6006667200215,130.77084842757392,203.25241689768168,203.5804306405235
0.1334668001334668,-1.686111950273414,6.014649328707748,164.49867709744402,171.34336981663998,133.70712639964813,133.45313170275188,202.9358648011133,200.07521396264303
0.1668335001668335,-1.686111950273414,-0.590651568282567,168.53801235235568,173.10334678279713,132.66959750507564,135.72732579277618,203.0856083982288,197.4158428194613
0.2002002002002002,-1.686111950273414,-0.590651568282567,171.60306396493274,172.9177429372644,131.5123343628065,137.62040297355765,203.652549233792,195.5351467351134
0.2335669002335669,-1.686111950273414,-0.590651568282567,173.77000122490304,170.9791672373991,130.25959129934324,139.15933552100702,204.5875888525668,194.36595523373447
0.2669336002669336,-14.858809866301542,-0.590651568282567,175.11499342199454,167.48022864055872,128.93562264118836,140.37109571103514,205.84162879931696,193.8410978394596
0.3003003003003003,-23.09004528697996,-0.590651568282567,175.71420984593507,162.61353610410052,127.56468271484432,141.2826558195528,207.3655706188064,193.893404076424
0.333667000333667,-26.81430275035966,-0.590651568282567,175.64381978645258,156.57169858538194,126.17102584681362,141.92098812247073,209.11031585579897,194.4557034687626
0.3670337003670337,-26.466066794491724,-0.590651568282567,174.97999253327492,149.54732504176033,124.7789063635988,142.31306489569977,211.0267660550585,195.46082554061067
0.4004004004004004,-22.47982195742715,-0.590651568282567,173.79889737613007,141.73302443059308,123.41257859170229,142.4858584151507,213.06582276134887,196.8415998161033
0.4337671004337671,-15.290052777216983,-0.590651568282567,172.1767036047458,133.32140570923758,122.09629685762664,142.4663409567343,215.1783875194339,198.5308558193756
0.4671338004671338,-5.3312437919122,-4.417241785334298,170.18958050885013,124.50507783505114,120.85431548787427,142.2814847963614,217.31536187407747,200.46142307456265
0.5005005005005005,6.962120460436111,-5.721933951025946,167.91369737817087,115.47664976539126,119.7108888089478,141.9582622099428,219.4276473700434,202.5661311057996
0.5338672005338673,21.15555544177697,-4.761540693935984,165.42522350243595,106.4287304576152,118.6902711473496,141.5236454733892,221.46614555209555,204.7778094372216
0.5672339005672339,36.81457661405938,-1.7928746426429143,162.80032817137447,97.55392886908132,117.8167168295832,141.0046068626126,223.38175796499948,207.02928759296543
0.6006006006006006,53.5046994392323,2.927251574274834,161.04377189638785,93.07687976293305,117.49894224756964,140.45842295418595,224.68086597141607,208.79040015593543
0.6339673006339673,70.79143937924458,9.142025328238716,159.42282613875625,87.58716904313967,117.57350315771328,140.00915696968067,225.5154863216828,210.3171277310909
0.6673340006673341,88.2403118960453,16.594633990670204,162.76919424206386,82.97341850211556,117.34770912071214,140.12508257792751,226.6764958145635,211.2198028425819
0.7007007007007008,105.41683245158433,25.028264932990936,161.2019427087101,78.8459358475479,117.70732336405074,140.15600017701138,227.1018735233897,211.73451883521616
0.7340674007340674,113.9139296773059,34.186105526622285,158.80423772673294,75.59832851038185,118.34746883127777,140.0042310585882,226.77933016813176,212.0414556253944
0.7674341007674341,120.99753251857952,43.81134314298592,156.06390894015303,73.48170192836602,119.29470584162894,139.6520654931524,225.97143038313,212.188400658872
0.8008008008008008,116.98292716744352,53.6471651535032,154.43897166730665,72.35076786941588,120.43096543295502,139.28283313468248,224.64556928865065,212.1439483211644
0.8341675008341676,114.45059151466444,63.43675892959621,153.28026446733256,72.68270120341859,121.65099318830876,138.99033156667076,223.1007654124119,211.8223602581306
0.8675342008675342,113.60320092643283,68.0407930346807,152.01658415343283,74.38289521695759,123.10706248745336,138.75798083166532,221.2989837160385,211.17786538769087
0.9009009009009008,114.25167994331942,72.67727687184822,150.34564328389996,77.47421565128083,125.03588561446334,138.74264244835726,218.96756809931048,210.07577476141952
0.9342676009342676,115.55083123147386,66.41606100448554,148.78554934565284,81.76818258738754,127.08389137099364,138.9049691939159,216.38266338446635,208.6899893259469
0.9676343009676344,117.78104262824192,63.39246024316586,147.306045221732,87.2176120128209,129.3382284632636,139.32158703294215,213.41315359495803,206.9709249206772
1.001001001001001,120.77210656830982,62.64771760375972,145.75583683021782,93.20352061786592,131.6549291754896,139.92483744339734,210.32565653345875,205.08524300248573
1.0343677010343677,124.2262014976634,63.767548157644704,144.0723467107918,99.4956706346312,134.0220900221941,140.6468358685637,207.20190419888624,203.00429507351168
1.0677344010677343,127.9882657376701,65.97057941583087,142.4083114169109,106.32831166570256,136.36055096190051,141.47936893786385,204.03402863794355,200.72781891097185
1.1011011011011012,131.75833556056006,69.29499675250902,141.34335928390274,113.08525239549373,138.62318769446554,142.46519458882776,200.8075856370172,198.24082744841965
1.1344678011344678,135.47287562244287,73.65732043270047,141.2143871858364,120.77367254098726,140.81732187658403,143.58213556275743,197.5279199274296,195.6520373155901
1.1678345011678346,138.9390201295425,78.85495824300042,142.26309347803374,130.95405803843695,142.983167528345,144.83928971595572,194.3269871496745,192.95116468507885
1.2012012012012012,141.79718283353483,84.59254862652226,138.77569837444884,140.21602696203828,145.05425115754537,146.16121075113315,191.04901214233047,189.9268664883511
1.234567901234568,144.02708272125471,90.48805502855376,135.0129503953516,149.00350543179758,147.08290650778108,147.53072352978043,187.91114001897228,186.9677389997359
1.267934601267935,153.12442525117095,96.49736721236478,131.01856786636776,157.11763817741394,149.0590924373367,148.9357285141347,184.95622144395207,184.1220861393714
1.3013013013013013,159.8179233581606,103.12914023371653,126.83626911312436,164.35956992858775,150.97276780449792,150.36412616643415,182.227107081624,181.43821182739725
1.334668001334668,168.0749829259487,110.00289036223614,122.50977246124845,170.5304454150194,152.81389146755035,151.80381694891705,179.7666475963419,178.96441998395304
1.3680347013680347,176.40074782972525,117.45951775495004,118.08279623636705,175.4314093664091,154.57242228477963,153.24270132382165,177.61769365245982,176.7490145291785
1.4014014014014016,184.62458229123752,124.70251757029196,113.59905876410714,178.86360651245724,156.2383191144715,154.6686797533862,175.82309591433176,174.84029938321328
1.4347681014347682,192.5758505322341,131.40001247562037,109.10227837009586,180.62818158286404,157.80154081491148,156.0696526998489,174.4257050463117,173.28657846619697
1.4681348014681348,200.08391677446355,141.50025499626108,104.6361733799602,180.52627930733,159.2520462443853,157.43352062544798,173.4683717127536,172.13615569826928
1.5015015015015016,206.9781452396745,152.00578380188455,100.24446211932714,178.35904441555533,160.5797942611786,158.7481839924218,172.99394657801153,171.43733499956983
1.5348682015348682,213.0879001496153,162.8280469072812,95.97086291382374,173.9276216372403,161.774743723577,160.0015432630085,173.0452803064394,171.23842029023825
1.5682349015682349,218.24254572603465,173.878492327242,91.85909408907706,167.03315570208525,162.82685348986618,161.18149889944635,173.66522356239125,171.58771549041418
1.6016016016016017,222.27144619068096,185.0685680765584,87.95287397071412,157.47679133979068,163.72608241833177,162.2759513639736,174.89662701022104,172.53352452023736
1.6349683016349683,225.003965765303,196.30972217002125,84.29592088436195,145.05967328005656,164.46238936725942,163.2728011188285,176.78234131428275,174.12415129984734
1.6683350016683351,226.2694686716492,207.51340262242192,80.93195315564759,129.58294625258355,165.0257331949348,164.1599486262493,179.36521713893043,176.40789974938383
1.7017017017017018,225.8973191314682,218.59105744855145,77.90468911019806,110.84775498707192,165.4060727596435,164.92529434847424,182.688105148518,179.43307378898643
1.7350684017350684,223.7168813665084,229.45413466320105,75.25784707364036,88.65524421322158,165.5933669196712,165.55673874774152,186.7938560073995,183.24797733879487
