Time,Left Shoulder Angle,Right Shoulder Angle,Left Elbow Angle,Right Elbow Angle,Left Hip Angle,Right Hip Angle,Left Knee Angle,Right Knee Angle
0.0,8.957207189441108,27.604491383739383,148.0622002789629,160.65050463786872,132.67549496188914,127.66412392256684,206.4822297765064,208.743370154062
0.0333667000333667,9.319279358702463,27.818405175458608,148.80482778479666,161.58522372053827,133.87306616101387,127.63492023162466,205.56804258593684,208.02535350631533
0.0667334000667334,9.74514265647274,27.974425220212865,149.59318713594865,162.33852275230612,134.86076932000057,127.6332571476195,204.79156400728905,207.3794088653489
0.1001001001001001,10.228834433675686,28.0748945334196,150.42365473964054,162.9214364025414,135.65117382099544,127.65916804539668,204.1453805374161,206.8008098111785
0.1334668001334668,10.764392041235054,28.12215613049625,151.29260700309388,163.3449993406132,136.2568490461447,127.71268629980152,203.6220786731712,206.28482992382013
0.1668335001668335,11.345852830074593,28.118553026860265,152.19642033353028,163.62024623589065,136.69036437759456,127.79384528567935,203.21424491140732,205.82674278328963
0.2002002002002002,11.967254151118054,28.06642823792907,153.13147113817138,163.75821175774286,136.9642891974912,127.90267837787556,202.91446574897785,205.4218219696029
0.2335669002335669,12.622633355289189,27.96812477912012,154.09413582423878,163.76993057553898,137.09119288798087,128.03921895123537,202.71532768273565,205.0653410627759
0.2669336002669336,13.306027793511744,27.825985665850848,155.08079079895407,163.6664373586481,137.08364483120974,128.20350038060417,202.609417209534,204.7525736428245
0.3003003003003003,14.011474816709477,27.6423539135387,156.08781246953885,163.45876677643932,136.954214409324,128.3955560408273,202.58932082622587,204.47879328976467
0.333667000333667,14.733011775806132,27.41957253760112,157.11157724321478,163.15795349828178,136.71547100446992,128.61541930675008,202.6476250296645,204.2392735836123
0.3670337003670337,15.464676021725468,27.159984553455526,158.1484615272034,162.77503219354463,136.37998399879365,128.8631235532178,202.77691631670305,204.02928810438328
0.4004004004004004,16.20050490539122,26.865932976519385,159.19484172872637,162.32103753159691,135.96032277444138,129.13870215507586,202.9697811841945,203.8441104320935
0.4337671004337671,16.934535777727156,26.53976082221013,160.2470942550053,161.80700418180777,135.46905671355938,129.44218848716952,203.2188061289921,203.67901414675893
0.4671338004671338,17.660805989657014,26.1838111059452,161.30159551326173,161.24396681354636,134.9187551982938,129.77361592434414,203.51657764794888,203.52927282839545
0.5005005005005005,18.37335289210455,25.800426843142034,162.35472191071733,160.64296009618175,134.3219876107909,130.13301784144505,203.855682237918,203.39016005701905
0.5338672005338673,19.06621383599352,25.39195104921808,163.40284985459368,160.01501869908307,133.6913233331968,130.52042761331757,204.22870639575265,203.2569494126455
0.5672339005672339,19.733426172247768,24.960726739590992,164.44235575211357,159.3711772916207,133.0393317476589,130.93587861480808,204.62823661830737,203.12491447529248
0.6006006006006006,20.12633583665317,24.59262137778244,165.25779035189288,159.02484883428323,132.42647608643333,131.4033546312984,205.23196256436933,202.86583136275848
0.6339673006339673,20.696399347111623,24.17696373573314,166.32745053308204,158.58543004047536,131.9467969136399,131.9264235944739,205.6611783606853,202.5746633297948
0.6673340006673341,21.34059517581736,23.73565709128124,167.30560804748603,158.0756420693114,131.60024842037757,132.47422641546552,205.8639365599832,202.31179767433585
0.7007007007007008,21.89564674862584,23.308388226748445,168.0553799020747,157.6486230720193,131.21368659485103,133.01640033162676,206.0909266104798,202.1000865837492
0.7340674007340674,22.378641247803063,22.887866635805,168.91423468785925,157.31565197139875,130.82742436253113,133.56313405544464,206.3214478604242,201.93403071594628
0.7674341007674341,22.80257490964313,22.46548241084475,169.7416912209518,156.96923560088567,130.43042378281103,134.13057602264718,206.56954620996424,201.7898532540579
0.8008008008008008,23.06670113477121,22.05287928712016,170.91980702263757,156.70190353527028,130.05363897446475,134.70304477199178,206.8292521392945,201.75639497084788
0.8341675008341676,23.20993201036034,21.62352440012159,172.1091302432029,156.45807110098156,129.694115067453,135.3571744596544,207.09308489136737,201.5784330351605
0.8675342008675342,23.27422023591072,21.19597404537869,173.0281243435097,156.2847165896707,129.340133629181,136.06086992108587,207.3682086431357,201.31044570555
0.9009009009009008,23.329549886689207,20.68164341076329,173.8700878285656,156.07334468399688,129.1227974737538,136.86358144800883,207.5229235340114,200.79169824270545
0.9342676009342676,23.2999517270603,19.971807985637668,174.57510649093447,155.84742887390607,129.04309441211026,137.66486433668695,207.6140377171517,200.188743753102
0.9676343009676344,23.223718925234625,19.11030317015807,175.2160904936387,155.56610508663613,129.03205580760954,138.411984836326,207.68359585867,199.53992994962428
1.001001001001001,23.167958198575064,18.1718478169501,175.95318035625243,155.2726255803199,129.0149718111753,139.10859033184744,207.80132532579583,198.9536012270896
1.0343677010343677,23.042933085576447,17.18386111393456,176.52732202741106,154.92399106087592,128.9767191309945,139.74741260593404,207.9320182372535,198.42564765795407
1.0677344010677343,22.78975935067699,16.202964171925174,176.8714521339266,154.54871469591603,128.91510902858295,140.3266156771541,208.0997560601128,197.9869234247088
1.1011011011011012,22.348090902196965,15.24135668847897,177.07722073523013,154.1457807295208,128.81227976421425,140.86998022591806,208.3011701203152,197.67465030585203
1.1344678011344678,21.90166896370688,14.275010428792116,177.3282562041943,153.652252050796,128.6551204543305,141.4122716533235,208.5577571715468,197.442236819951
1.1678345011678346,21.413718669945816,13.305956108080874,177.58566224827146,153.03695572837964,128.42163460088074,141.91776996448593,208.85585010365887,197.29172508121889
1.2012012012012012,20.84593477352968,12.335571731740265,177.82710862884673,152.40173276192894,128.13733565519934,142.387205865444,209.1865348232275,197.1918306746666
1.234567901234568,20.171387650591228,11.419044144755665,177.8873853559755,151.61197090871175,127.84890170290656,142.80866955964856,209.5200727080264,197.13356337319968
1.267934601267935,19.355231284188783,10.457636167403011,177.79043328263222,150.7056884763689,127.56305081887795,143.20217687981284,209.79351131541972,197.07266168699024
1.3013013013013013,18.3741976446834,9.42931269498918,177.8059737168299,149.8341543566862,127.23191509342504,143.54863653060184,210.05922499806164,197.0259096309537
1.334668001334668,17.251775399753424,8.3258271859056,177.7850141084579,148.97001733043743,126.81373973851063,143.83912849554585,210.3860813637864,197.04045179206292
1.3680347013680347,16.055452433879687,7.379977267001555,177.79715393346623,148.02815714763975,126.32031803396076,144.10305656477334,210.7860093526867,197.0336874078941
1.4014014014014016,14.83942474436862,6.526179313921829,177.8536235761622,146.88829518433695,125.76389923626562,144.31324822204255,211.19326033335548,197.07146941272256
1.4347681014347682,13.59111528584819,5.797628958531913,177.92476005865194,145.7736470851777,125.18863193621188,144.50494219773208,211.57681700738723,197.115061755963
1.4681348014681348,12.30497465356885,5.365264057032087,178.04592645096105,144.43191284012252,124.5316020460553,144.630176190043,212.0310037518832,197.23415406081543
1.5015015015015016,11.09880313399742,5.365264057032087,178.02774360199194,142.63157334236777,123.81859095642614,144.72559450550722,212.51884203993225,197.3159383042424
1.5348682015348682,9.974450653156987,5.365264057032087,178.07916451011002,140.30978214341326,123.06865857429553,144.7713515384809,213.05698932529705,197.4478101956173
1.5682349015682349,8.938201663465788,5.365264057032087,178.25568536169163,138.2207064046001,122.28067558322358,144.7826098366745,213.6369674451976,197.6306661271054
1.6016016016016017,7.996547824310703,5.365264057032087,178.42006557646386,136.1068109243331,121.50434851097876,144.76659178651926,214.23559148656804,197.85517552489964
1.6349683016349683,7.280240492168928,5.556675602403229,181.0573670491788,133.84750307610588,120.7558609874382,144.75769817966176,214.8138548784236,198.06510485045035
1.6683350016683351,6.8674067953331726,6.044744238782266,183.48191833648173,131.44877001691293,120.0335921912982,144.72544718746818,215.3888959234872,198.3060141369442
1.7017017017017018,6.57066031407653,6.504865259842845,185.3300114713069,130.3646325463615,119.40431579843398,144.6768975310101,215.93244249718072,198.5152101576
1.7350684017350684,6.559171198747031,6.915324171591342,186.96709318748267,128.52829043470115,118.80169125337471,144.63381756510387,216.4155758956703,198.74476327178405
1.7684351017684352,6.559171198747031,7.34622612838133,188.23030843554253,132.5897960746204,118.28611417171716,144.50492048603363,216.74482073168505,199.1128769487586
1.8018018018018016,6.559171198747031,7.673017700416071,189.069400698078,135.8400334603803,117.77865776614206,144.3193228570766,217.059194680614,199.5303980495333
1.8351685018351689,6.559171198747031,8.042126334817889,189.6063114478566,139.01426324731304,117.20553600452844,144.10409217024767,217.51295821786687,199.95652772508487
1.8685352018685355,6.559171198747031,8.559277916822293,189.56272844299417,141.88601335044362,116.70658592153649,143.90297098444188,217.9384930985535,200.36747753581696
1.901901901901902,6.656232168280128,9.489920544383596,188.6935667051061,143.13814551701415,116.26007898753062,143.72886993440676,218.3430039487648,200.7143715951163
1.9352686019352687,6.929225458859408,10.456960078269905,187.4864954055197,142.9579940636946,115.88845289743242,143.54605155976125,218.6911012850574,200.99792187812903
1.968635301968636,7.476885609421975,11.436212840752688,185.88509186926743,141.69871528798487,115.59428030610088,143.4296974585602,218.9997160658479,201.06001247107028
2.002002002002002,7.993937795052633,12.592651950191131,183.8085274105358,139.49864229644325,115.37477000917644,143.32067931612235,219.28568007225792,201.08664349505412
2.035368702035369,8.250039674439352,13.905895632969234,180.87812209705388,136.38100645496172,115.23595128716072,143.21118669076947,219.5488577530984,201.11387555617424
2.0687354020687354,8.661443038264313,15.380666149382922,176.88909996871618,132.25914210840062,115.08402913118456,143.05799645383854,219.91226384770985,201.2962099845408
2.1021021021021022,9.175639261645808,16.824855640951714,172.5817876007442,127.3827763418799,114.90198384453716,142.86422479500595,220.30873422393475,201.59307798216395
2.135468802135469,9.713729217128458,18.221632742324115,168.2097211253153,121.8574638939963,114.73072191945144,142.62091644608685,220.7548972951948,202.0258983850332
2.1688355021688355,9.94168947547867,19.53511055680825,163.95581534387065,115.87621331897184,114.58437449866244,142.36389111137072,221.2099059961148,202.5380481890905
2.2022022022022023,9.521943664456568,20.70538163029604,159.87370790725691,109.53433887410314,114.4659192857098,142.0909961173455,221.6625851251836,203.10951708997936
2.235568902235569,0.0715267809941511,21.87812826251456,155.22312291612465,103.0702686671338,114.25228198630067,141.81640854331556,222.1585223423748,203.7040358611599
2.2689356022689355,0.0715267809941511,23.061994105458897,150.55455998676896,96.51190209711154,114.05502492961276,141.53572781000233,222.7169010667976,204.3299624744272
2.3023023023023024,0.0715267809941511,24.369652179139845,146.23341447645834,89.76998470787392,113.90141546240174,141.2884362994608,223.33042290055025,204.97318723841545
2.335669002335669,0.0715267809941511,25.718116689564045,142.22553999750463,82.763541381847,113.84866325269591,141.07791452014584,223.98743201103173,205.6346502599881
2.369035702369036,0.0715267809941511,27.10474131510036,138.34402573300818,75.55265588031915,113.80045719486677,140.87678683408376,224.69021589873816,206.30121546478628
2.4024024024024024,0.0715267809941511,28.756442917272555,134.49468110146336,68.62410748003491,113.80150652969267,140.6988673256641,225.3661797530845,206.9272499806033
2.4357691024357693,0.0715267809941511,30.48261079696196,130.90053509674215,61.97371454489867,113.80247263601456,140.53047464683655,226.07411715130152,207.52871874681568
2.469135802469136,0.0715267809941511,32.076975796818154,127.7136362899673,55.49232587458605,113.8350741500685,140.41239807217428,226.77041266805017,208.0993047160376
2.5025025025025025,0.0715267809941511,25.848317459807856,125.2222854475677,49.14174538819172,113.90585216548897,140.3258215091085,227.4513396507346,208.66530000367467
2.5358692025358693,-5.793118663726117,22.282070160146933,123.49928380894168,43.13123697287684,113.99822622341362,140.23260628797783,228.1001974335354,209.31647636990544
2.569235902569236,-8.816749598696457,21.25541169000473,122.26117295764348,37.55959965536185,114.12004951943344,140.09970953382114,228.72918109154145,210.00593179001905
2.6026026026026026,-9.034355107384409,22.632514089570712,121.77143755389014,32.341415017911125,114.2458140132784,139.96275190725763,229.36441645821992,210.69019813506972
2.6359693026359694,-5.928008818582383,26.23329327840099,122.05859168856784,27.7967345743396,114.3596263464746,139.8589135598478,229.9880938900769,211.3213955469243
2.669336002669336,-0.3354977987322485,31.715901814482866,123.68024689104146,24.360829853471817,114.52577225640174,139.83654495732725,230.5745708538413,211.87007225475065
2.702702702702702,-0.3354977987322485,39.072555326571376,126.68046162024308,22.372311653193044,114.71719637754212,139.83433885102775,231.1670505700908,212.43155323445947
2.736069402736069,-0.3354977987322485,48.08523802853705,130.95056976710134,21.40257397031229,114.91190506836212,139.87393515152826,231.7257031352352,213.00899424679025
2.7694361027694363,-0.3354977987322485,58.34480637005191,136.49162096178884,21.868384290449,115.08387541881032,139.96016567653254,232.308878253547,213.51691048809565
2.802802802802803,-0.3354977987322485,69.23160706586796,139.96085403786108,24.18996002094721,115.25268978075252,140.0391091288156,232.888900130656,214.0419390153824
2.836169502836169,-0.3354977987322485,80.71044172058522,143.21515805714947,28.530757224795725,115.35322340881235,140.09928396836276,233.5545558045397,214.57094791143084
2.8695362028695364,-0.3354977987322485,92.89547151838386,147.19071453143405,33.53590855500981,115.33454789953385,140.16578794486637,234.22291470836896,215.0908916673747
2.902902902902903,-0.3354977987322485,113.55837718406823,150.77593002144644,41.80195462432241,115.41951240046818,140.21812460505802,234.68635706918212,215.5519916211192
2.9362696029362696,-0.3354977987322485,132.58002144985616,154.15504519983037,45.18696391324133,115.58910137449833,140.2473673214433,235.05209976755964,216.01910669638212
2.9696363029696364,7.093225424831591,149.90846193118378,158.97425431249235,47.44888816442196,115.78882810683062,140.39107142938138,235.2182846240597,216.47867839516425
3.003003003003004,16.15284872698731,165.56663092514444,162.25748836121264,49.06152182689612,116.02546897530704,140.4012607020509,235.269052421556,216.93003710380168
3.0363697030363697,26.81781633668185,179.66955497544674,163.9218498214278,47.41708479580315,116.26281870905784,140.53239341131362,235.2085691237581,217.3876283395236
3.0697364030697365,39.10226379217726,191.5623150459318,165.64057740611466,45.86967712911753,116.71517104513744,140.43979462658947,235.02051452237765,217.841257918002
3.103103103103104,52.60346829028162,202.18502846977023,166.45179068238824,46.12713996339586,117.23528577623624,140.25223457376202,234.72315966210223,218.3140182750992
3.1364698031364697,66.97187675249529,210.4923567913908,165.71394205648858,47.74542794913046,117.64155722676588,139.87123643018282,234.36116150760267,218.8458875841152
3.169836503169837,81.99535612352093,217.30645225115663,159.60648265159304,48.54259645215176,117.91318923935562,139.45821039465673,234.0109057513857,219.44701399752265
3.2032032032032034,97.42061194469954,221.0785456432585,154.41272759241775,48.83415677303833,118.1347783217826,139.0287123871615,233.53345515871683,220.0999633883993
3.2365699032365702,113.44471172036369,222.9127906953277,151.79764646256814,48.64483412690744,118.33913102271144,138.6010781623697,232.87785183547336,220.8373767525399
3.2699366032699366,129.67890715094998,222.45914945525044,150.01010181187866,48.84107683200359,118.59419754812345,138.04734843054143,232.06822310312947,221.74435033011304
3.3033033033033035,146.0383213421862,219.77005849805963,148.3961895806683,48.57672621196719,118.81302499307944,137.4690589751383,231.12058459076584,222.668962382196
3.3366700033366703,162.00213800357812,215.44377795888764,147.00643189090147,49.754254905063625,119.16319239791991,136.8996874938348,229.9918584236924,223.53389882450293
3.3700367033700367,177.3420340533447,208.6247442151649,146.59778330301353,50.73839311945977,119.73074858527168,136.51937780798397,228.80073925915795,224.1057712940042
3.4034034034034035,192.01099724168185,199.51313262810896,146.32263109873355,52.44525045479306,120.40395816888226,136.07954849849386,227.53088726758693,224.7324619888473
3.4367701034367704,206.1717957687614,188.49024200016007,145.91647845554772,54.70000601304453,121.07654322619211,135.71373981428974,226.1174777377936,225.1469241144345
3.4701368034701368,219.6295465985689,175.44744249825098,146.07682060107948,57.15024388766839,121.86056819685852,135.28031871513647,224.6663295595164,225.4406724035849
3.503503503503504,232.1389584592497,160.00360006491314,145.84140707289515,59.948003451419154,122.67055595958252,134.86686916847938,223.1831513053476,225.5660643353864
3.5368702035368704,243.059158798978,142.77528676590995,145.98665056635127,63.34505630758212,123.53952133700108,134.51327590994055,221.7135157889471,225.52172236860665
3.5702369035702373,252.73203214857463,123.51006351410192,146.45825549317902,67.38052650775045,124.31709672873004,134.35615614065472,220.4430140990315,225.1907450686853
3.603603603603604,260.9404608676633,102.3439256420064,146.9531662321009,72.04283660803017,125.08653905725104,134.28246360207064,219.1696832236731,224.7423687395728
3.6369703036369705,277.73459195521355,79.33779633297513,147.40077307904923,76.73834689614307,125.93239273160908,134.3245353770178,217.8021991519776,224.1722143394637
3.670337003670337,290.1226211851083,65.11791650040273,147.04954390849304,81.13945117146494,126.88330262334348,134.37639729299153,216.2497650099233,223.435826039742
3.703703703703704,298.0633539891765,51.80593665217904,147.06195589672214,85.63746602801572,127.89242589080315,134.5250876739678,214.61752296376943,222.5015012667363
3.737070403737071,301.45261288254386,39.54893601217398,147.30389928459448,90.50910968664012,128.9322493981879,134.63520512976493,212.9554377136912,221.41896371129096
3.770437103770437,299.95636613598504,28.28180264641121,147.65424293410004,95.06784746821558,129.98344473465693,134.8622426867515,211.2724380745388,220.19711024038065
3.803803803803804,293.8065359541534,18.28042817950565,149.079162703971,100.3725466027076,131.1006294609268,135.1165698878054,209.611547301648,218.9297617237863
3.8371705038371706,283.07990628108274,10.003895379886288,149.38365637757155,107.82975112081289,132.41740796925347,134.9915635485864,207.44380782168125,218.241258712885
3.8705372038705375,267.84508002107424,3.6834473344852072,148.60228951698903,116.73018529358146,134.07237901984547,134.3816234581769,205.6473773697792,217.3852040197844
3.903903903903904,248.78680594454204,3.6834473344852072,148.6801231152696,124.7652599621348,135.47372379687917,133.98988071822424,204.0460575668196,216.15109414765496
3.937270603937271,238.16123886952616,3.6834473344852072,149.04048324818592,131.53586260064577,136.0750535132336,134.00052689776888,202.7199966465466,214.63232143678124
