Time,Left Shoulder Angle,Right Shoulder Angle,Left Elbow Angle,Right Elbow Angle,Left Hip Angle,Right Hip Angle,Left Knee Angle,Right Knee Angle
0.0,16.64682914547122,30.286104933198644,149.0439248164067,158.004101748938,125.13974466894072,125.28392492907412,208.57486176702372,210.8271753307456
0.0333667000333667,16.076016937430513,28.752977573067,148.32122787938292,158.0663825031368,125.2067651133592,125.62183920673394,208.0226521082571,210.93152945781333
0.0667334000667334,15.615225698502789,27.42769430789605,147.86291646404885,158.1128232323926,125.25268482989938,125.88258370221826,207.5641987883797,211.0010523448576
0.1001001001001001,15.260742558877716,26.29902967114778,147.65527912690908,158.1446899600436,125.27919678112048,126.07285799636712,207.1934374175769,211.03601608268224
0.1334668001334668,15.008854648744968,25.35575819628413,147.68460442446826,158.16324870942802,125.28799392958176,126.19936167002058,206.9043036060337,211.03669276209143
0.1668335001668335,14.855849098294216,24.58665441676707,147.93718091323103,158.1697655038841,125.28076923784248,126.2687943040187,206.6907329639353,211.00335447388915
0.2002002002002002,14.798013037715128,23.98049286605856,148.39929714970197,158.1655063667501,125.2592156684619,126.28785547920154,206.5466611014668,210.9362733088793
0.2335669002335669,14.83163359719738,23.526048077620548,149.0572416903857,158.15173732136415,125.22502618399923,126.26324477640912,206.46602362881345,210.83572135786608
0.2669336002669336,14.952997906930635,23.212094584915,149.89730309178685,158.12972439106454,125.1798937470138,126.20166177648154,206.4427561561604,210.70197071165333
0.3003003003003003,15.158393097104575,23.02740692140388,150.90576991041007,158.1007335991895,125.12551132006476,126.10980606025883,206.47079429369265,210.53529346104511
0.333667000333667,15.444106297908863,22.960759620549133,152.06893070275993,158.06603096907725,125.06357186571144,125.99437720858104,206.5440736515956,210.33596169684543
0.3670337003670337,15.806424639533176,23.000927215812727,153.3730740253411,158.026882524066,124.99576834651307,125.86207480228823,206.65652984005413,210.10424750985828
0.4004004004004004,16.24163525216718,23.13668424065662,154.80448843465817,157.98455428749395,124.92379372502891,125.71959842222049,206.8020984692536,209.8404229908877
0.4337671004337671,16.746025266000544,23.35680522854277,156.3494624872158,157.94031228269935,124.8493409638182,125.57364764921782,206.97471514937905,209.5447602307377
0.4671338004671338,17.315881811222944,23.650064712933144,157.99428473951855,157.89542253302042,124.77410302544016,125.4309220641203,207.16831549061573,209.21753132021223
0.5005005005005005,17.94749201802405,24.005237227289683,159.72524374807108,157.8511510617954,124.6997728724541,125.29812124776798,207.37683510314872,208.8590083501153
0.5338672005338673,18.637143016593534,24.41109730507436,161.52862806937802,157.8087638923625,124.62804346741926,125.18194478100092,207.5942095971632,208.46946341125107
0.5672339005672339,19.381121937121183,24.85641947974933,163.39072625994518,157.76952704806118,124.56060777289592,125.08909224466018,207.81437458284603,208.04916859442503
0.6006006006006006,20.500074220779112,25.25088288935548,165.33393240260193,157.747817268748,124.2389180308099,125.0501230968384,208.0985659469252,207.5138424562657
0.6339673006339673,21.54030455207316,25.6857467408558,167.35886096328994,157.7453155710804,123.93647269517588,125.14439322375073,208.6224793733793,207.03732317902708
0.6673340006673341,22.5481797953733,26.105282840590394,169.3110191091174,157.77311382977177,123.72289645912164,125.28176045092349,209.0897183616077,206.54096618158627
0.7007007007007008,23.53099934154064,26.533337218767617,171.23284026272108,157.84194630785603,124.04904311491327,125.46216644352975,208.76571268781768,206.00071377883
0.7340674007340674,24.48257733365845,26.952868287853043,173.1152945487802,157.91116260583473,124.32992143011474,125.69272162084556,208.50021497194427,205.44004294771764
0.7674341007674341,25.39712394896131,27.35171287400696,174.89775581955502,157.95192421472711,124.98729347762684,125.9382563975944,208.0430157525049,204.8543704924755
0.8008008008008008,26.34132568298543,27.7098262591007,176.64935595440568,158.00623685784674,125.36130967858976,126.23889804889882,207.879235023416,204.23231724216728
0.8341675008341676,27.25030686732898,28.04551468978069,178.24318131686553,158.03854327789588,125.46369257325642,126.58970029446348,208.02597452557853,203.59945028365945
0.8675342008675342,28.10457284732159,28.34257320057234,179.78491435132705,158.04487806097197,125.5337047795635,127.01615686983824,208.06792330731665,202.90648502556976
0.9009009009009008,28.86227921561314,28.597064440545903,181.0290705293773,158.09478787959398,125.6952600105428,127.51051665649176,207.5061997164312,202.16601779964432
0.9342676009342676,29.558028336595427,28.56928261095129,182.14524843484827,157.98076431149775,125.77844730644382,128.08329286633978,206.8456603415059,201.37454043801824
0.9676343009676344,30.183096558681125,28.53096523005531,183.136840274964,157.98032317058883,126.0101254681771,128.70850687453037,205.9362204561652,200.5818663851485
1.001001001001001,30.701495025379828,28.45530592888541,184.16544296593543,158.0622067486669,126.36612915914792,129.3795242958015,204.9672040034532,199.74808811331883
1.0343677010343677,31.13783101030188,28.29656542281337,184.74689872011044,158.25288829199542,126.723356995863,130.10816375799453,204.0086225779037,198.86881812861543
1.0677344010677343,31.46996658237902,27.99818114212148,185.283300904618,158.34458563202645,126.9200142537197,130.89356535481045,203.2645771464496,197.97916181903992
1.1011011011011012,31.73993608778876,27.661438898063786,185.91798710437885,158.38112388194145,126.95548606196334,131.72017009265858,202.75494190501288,197.1196470198828
1.1344678011344678,31.809536152265977,27.230236467755457,186.5145603714174,158.29483091858518,126.8936154856862,132.55683019727022,202.341846043209,196.283882328062
1.1678345011678346,31.907211680801943,26.762921390600333,186.79604500932524,158.34362931459117,126.77541847844924,133.3742243076492,202.0449637561161,195.490617746738
1.2012012012012012,31.971842134229373,26.192257641824344,187.35463224418768,158.06046802791008,126.57866638575015,134.1596622422715,201.8616955719516,194.74247174426728
1.234567901234568,31.97057816413361,25.49805883996556,188.181852941058,157.46764269743156,126.3910424273154,134.9330418547112,201.6771008522332,194.028365753582
1.267934601267935,31.82184405982174,24.67395734147803,189.1286800017274,156.64638312636916,126.19795390593048,135.69067793844113,201.59222919416405,193.3722238660974
1.3013013013013013,31.665998177324223,23.550129036316857,189.09532234950944,156.13396614675233,126.03915153143016,136.42642967647902,201.5223723673564,192.77249993335303
1.334668001334668,31.19683451446662,22.215891487005365,189.3858751505842,155.4095501743127,125.83907566046236,137.14268263727695,201.55902391696665,192.1954458729226
1.3680347013680347,29.905590547340733,20.5270547916065,190.3533464454609,154.58174877750722,125.55423571223623,137.81251224400154,201.7422483307613,191.68143245971325
1.4014014014014016,28.5821437601374,18.88003851774287,191.47544089777304,153.34817416775263,125.04249143066416,138.45088923333313,202.2429027231898,191.19898738829409
1.4347681014347682,27.379197530567847,17.21729157284595,192.2776944924877,151.87944421779557,124.3887892233945,139.05117306501762,202.9898315546848,190.76510068876308
1.4681348014681348,26.31347177342208,15.651814703161946,193.00006146077595,149.9604048851933,123.64740881112964,139.56142061473224,203.9575599906269,190.40673200146057
1.5015015015015016,24.909949276566813,14.47577229007728,193.80883474901623,148.06564253319334,122.7689034847189,139.9500144814908,205.13933941720367,190.1532196646017
1.5348682015348682,23.67607743458536,13.546846829537078,194.7493991529341,145.9513724233597,121.76128104314786,140.33371155485065,206.431738633622,189.89978092699363
1.5682349015682349,22.808793047015868,13.451289801853632,197.33249273018785,143.71324293612312,120.68586749375618,140.66324459908205,207.81988373110264,189.69951028057625
1.6016016016016017,22.064567322807207,13.26892863176762,199.46125493597367,141.08133367526727,119.57749822423344,140.97178672159492,209.3030169118884,189.4941012867437
1.6349683016349683,21.240405357361222,12.8600102464874,201.0574614319935,138.60649367261303,118.46620923013776,141.23284457031662,210.8576893680812,189.327989747014
1.6683350016683351,20.454947056902405,12.414932862332265,202.01789314728168,135.78198616081363,117.30101901943496,141.44816303811552,212.54348674289665,189.23523806103503
1.7017017017017018,19.82438256291256,11.570621831739595,202.59722523546827,129.74385385242593,116.10596966605084,141.59407256491133,214.3395217553209,189.2318904611899
1.7350684017350684,19.21955095562504,10.870313529448657,202.5595633806988,124.32728189209983,115.07729508755423,141.77535477483627,215.920105874746,189.29726698145348
1.7684351017684352,18.753802099420767,9.9013239625963,202.272370043282,121.79601156355488,114.16199479860742,141.98761928264122,217.36880251104023,189.4520907904212
1.8018018018018016,18.3319254738411,9.153706463699905,201.3390019900411,119.56214507208124,113.66705608756553,142.09358519422156,218.1897730333117,189.5553972236432
1.8351685018351689,17.0702739879164,8.81437519137943,199.14362023903072,119.50770766641162,113.45398252160427,142.17971138040562,218.701976491862,189.65560414083848
1.8685352018685355,15.881894538039228,8.7966163540195,196.34685608195312,118.35989538064076,112.91062976733674,142.24044983731844,219.81898790351588,189.76727560379044
1.901901901901902,15.103873927975858,9.044472730186298,193.35129837410705,115.61058523204512,112.51021722296365,142.26465418827195,220.7982677512628,189.8701671904952
1.9352686019352687,14.575213152090992,9.516524805181458,190.1020222619977,112.22992504401772,111.69307226670357,142.28282053946407,221.95903879843584,189.9663553700722
1.968635301968636,4.61282290479578,10.172207041282338,186.33014457081487,108.44693217937916,111.00360454734042,142.28272893592006,222.8002805232189,190.05281630524672
2.002002002002002,-1.8963839216512604,11.064524793467845,182.3936958591704,104.43588376533307,110.57084293725823,142.26707547404666,223.130914867116,190.0877486942054
2.035368702035369,-5.156932862707598,12.202050336476184,178.3398203146388,100.30643558062084,110.3632655155412,142.2131577900363,223.02707037726984,190.0985514969257
2.0687354020687354,-5.483321644580027,13.575365533446105,174.40450242295805,96.10307676950718,110.24170007129732,142.1247427659806,223.16135960934733,190.09159842555624
2.1021021021021022,-3.090076909287755,15.194791296316277,170.5744705506915,91.8984474804055,110.17768071852048,141.99606052379738,223.2828183641629,190.09659747585752
2.135468802135469,1.7236250553163783,16.835531287869088,166.8453039159522,87.57382723881614,109.94494665624217,141.86135731346516,223.66578147311404,190.0818625840288
2.1688355021688355,1.7236250553163783,18.52439358297925,162.798554440416,83.30052570100106,109.67715089849374,141.7240053235087,224.0883634528816,190.04404734354128
2.2022022022022023,1.7236250553163783,20.247036637618628,159.34719388714578,79.03923973185336,109.37686004724384,141.57219676002592,224.61287175389407,190.02635352222907
2.235568902235569,1.7236250553163783,22.015282305400305,156.24979061664914,74.9346115471549,109.10519225290716,141.39800261077642,225.17654531588147,190.0247036290674
2.2689356022689355,1.7236250553163783,23.67521983328898,153.56785633079434,70.89202984794362,108.94601203699682,141.20956383356076,225.6450290240766,190.0147335533784
2.3023023023023024,1.7236250553163783,25.253801814785483,151.1539009551636,67.0958410991052,108.87278924927324,140.99061162594043,226.0449744994857,190.00206964256887
2.335669002335669,1.7236250553163783,26.60927574183012,149.2828872516998,63.234760904096646,108.87978190372476,140.7950857185606,226.3433151712895,189.9692119557194
2.369035702369036,1.7236250553163783,27.77185696106211,148.10775792161422,59.60987171215643,108.96705250910664,140.58335372421888,226.5226361815452,189.934165151516
2.4024024024024024,1.7236250553163783,28.70465674708741,146.89575033948864,56.25828064747976,109.05060839505003,140.36331862511275,226.7195698586992,189.8965950389545
2.4357691024357693,1.7236250553163783,29.45146062262136,145.9729674848525,53.30071354796641,109.17145624520816,140.1850715536816,226.889004775006,189.81888457596045
2.469135802469136,1.7236250553163783,30.193187860516566,146.2386771150951,50.09345646102593,109.23525418055704,140.0337001813724,227.16842824861345,189.7446571326795
2.5025025025025025,1.7236250553163783,30.89311540368981,146.36359169711164,46.991396034235336,109.30752710888386,139.92126361277977,227.4990795682052,189.67657496107373
2.5358692025358693,1.7236250553163783,31.819500698229668,145.98010478968223,43.841928481536,109.3934161084142,139.82529408624103,227.8782357245897,189.6277716248049
2.569235902569236,9.212398895216433,32.852109141733415,146.96890726921913,41.02706806404454,109.53449083996075,139.809897435814,228.2459732393513,189.53515262473184
2.6026026026026026,18.7197882232602,34.00739652909664,151.48447821191743,38.39986366544734,109.6425816465035,139.78901648017816,228.670092261431,189.4692507127239
2.6359693026359694,30.03509598893525,35.27205595768789,153.43132084933384,36.16885334471083,109.71168332084228,139.82795338793332,229.1354004083308,189.3398795314676
2.669336002669336,42.90841531676076,36.23081758505715,153.53213872417203,33.94122149343779,109.7819246581182,139.85483533556277,229.6079604166792,189.2639554568428
2.702702702702702,57.16238642779744,36.90575327120264,153.4340247414496,29.209872022415883,109.86851957118412,139.91352943607671,230.1350750699316,189.1519565485864
2.736069402736069,72.3832369945478,36.42727710927246,151.61920447682922,25.383541617424143,109.97229924644093,139.92954468655913,230.63176046500817,189.1691649858292
2.7694361027694363,88.03752621717538,36.518962068665125,149.15142618749744,24.978724022119707,109.94695964113508,140.18533829287725,231.0877283119232,189.0746688772051
2.802802802802803,104.14643502609132,36.38372450951788,146.5430863293259,24.476002651691104,109.87803268493914,140.28844510063885,231.5633578931578,189.14945148834192
2.836169502836169,120.54522176759303,34.532951649741804,141.70096216100998,23.189368613390823,109.71185848148032,140.27588942470575,232.1112810313131,189.31237209423867
2.8695362028695364,137.01939078372644,33.11358474735402,137.35745632662017,26.26872664846184,109.54727727083616,140.12955670959752,232.64791376503075,189.65999562578665
2.902902902902903,153.79324569116218,32.144310669371166,134.8989073108823,29.487202588664005,109.31410171547346,139.91608487362458,233.3110989023685,190.14417334789235
2.9362696029362696,171.2308696489509,31.962434874622087,133.01250884524524,32.12080195407172,109.12259488359344,139.53609845518173,233.8952182843555,190.8348526838935
2.9696363029696364,198.7663433766513,32.06800810021732,129.3494873361501,34.87922084267484,108.7919063422654,138.95789278669037,234.75212350155903,191.71559646693967
3.003003003003004,223.6395254664197,32.01885780555949,127.39994151435816,35.73280448818944,108.46727483026288,138.23038853453124,235.4483935031768,192.8145541340254
3.0363697030363697,244.52730456992307,31.683716505694736,128.72088967159502,36.58247631843724,108.27997583826728,137.44230358328457,235.8932220733044,194.1130481869408
3.0697364030697365,261.824900028151,31.14645405600753,130.35406794773755,38.79780055604719,108.09666443892876,136.56609515256616,236.13101672005217,195.5475239173688
3.103103103103104,275.3841314982379,30.2521985808894,132.614157409772,41.45092770926122,108.06005028703385,135.75022846826616,235.88452616317187,197.060023975218
3.1364698031364697,285.2167314184851,29.254302358907328,135.27444056479683,44.757969768101546,108.05854928126712,134.90754964208395,235.44124418452947,198.65758542934475
3.169836503169837,291.6306565288288,27.84135750222896,138.33555391356117,48.41786277504691,108.4450620029954,134.04617202956922,234.3002400814675,200.3464640908917
3.2032032032032034,294.73418551248875,26.428559345055287,141.62972354937168,52.56191300322551,108.63079518263612,133.09593761498516,233.3101516538415,202.1196979870905
3.2365699032365702,295.4427241902174,25.19956348095075,145.0286225639357,57.28766682305569,108.38144481834,132.09222941522427,232.7804664447605,203.9326535598521
3.2699366032699366,292.0645186521408,24.11516795071223,148.7492690896042,62.35373385356759,108.16470501498792,131.02664935999138,232.08506051777243,205.73536927820243
3.3033033033033035,284.6336669778268,23.20966829913128,154.28617329549098,68.02413960322839,108.56669507893828,129.94956809496728,231.058713640488,207.50937855215057
3.3366700033366703,273.3579887012836,22.406795905794016,159.8049997570943,73.75653753173081,109.10728420942016,128.85456387545645,230.0338791760606,209.2167595297726
3.3700367033700367,257.93718042933415,21.58884717988214,164.84561270438246,82.0525198229728,109.48245558338505,127.68239861037844,229.1927035094067,210.88452969005908
3.4034034034034035,240.12022170429543,20.817529431063694,169.88921235861676,89.14625483397086,109.953055742832,126.50335523282364,228.27824182106377,212.4582622050033
3.4367701034367704,218.94514312360272,20.392512460250565,175.54238987835555,94.875178641611,110.5116394623696,125.3601865524322,227.21785795626096,213.9103505302029
3.4701368034701368,194.6210241790457,20.242732390741367,180.83393648496715,99.41550375069312,111.19814364273782,124.2361059216608,225.9789999886532,215.22856938495173
3.503503503503504,167.18564157300625,20.0590837797194,185.2604634359176,104.87162096029212,111.92667811752038,123.21223373003876,224.7005305249272,216.3792972246003
3.5368702035368704,149.69021642216168,19.835579730739774,188.95078022713943,109.15744605552058,112.73706361374131,122.29830851977164,223.33797079221355,217.3282131490489
3.5702369035702373,132.51945115881742,20.11060321176253,192.47884168920967,112.13526571071222,113.70171474757926,121.48670408151732,221.78568164082648,218.1908506690018
3.603603603603604,115.78506406341204,20.360129169268124,194.38183787401653,113.69566643378504,114.72728781338728,120.79229926948402,220.128060688695,218.8681649967997
3.6369703036369705,99.76661444413728,20.872855353652383,197.401274888076,112.89939386491773,115.5901934474611,120.1595103969412,218.85191519191991,219.3463360988469
3.670337003670337,84.666944884756,21.29625904294717,199.1777678302873,111.0584309939556,116.550681247689,119.6626988733835,217.49943084087784,219.515576390744
3.703703703703704,72.1346652198684,21.517732233287067,199.0522549862428,107.66057471591756,117.56927372255257,119.24393369947462,216.01427218091828,219.446550865411
3.737070403737071,59.85923574208472,21.49213558935714,195.90318754814345,103.23316894326916,118.60457396981737,118.93825126129067,214.49816377003404,219.13245674979908
3.770437103770437,48.12785332322196,21.336251211127223,186.44311823090047,98.20273781636736,119.61698160672216,118.78692592937573,212.94501814781063,218.55793395039805
3.803803803803804,37.50917234602966,21.04516482759774,176.29226102619288,92.52085425095076,120.68430023110636,118.74555604677248,211.35198945833417,217.82223262169603
3.8371705038371706,28.041912518680046,20.350587870998343,167.06663705611962,85.39522362159082,121.73356212733756,118.74332191063492,209.75538870600263,216.9183607174428
3.8705372038705375,19.85968170022577,19.792906067315325,156.6786044692953,81.2642761194298,122.75077292127146,118.86152597790785,208.17849568577407,215.92335428956332
3.903903903903904,13.568263907486026,18.98315223301212,143.7436237086554,76.85777878478068,123.66568880456391,119.07153186281704,206.71362119721027,214.78728190333075
3.937270603937271,9.588897536361614,17.258986230537356,130.44636345155985,69.96446113218735,124.68900525217168,119.16588683402624,205.33605938146533,213.73240361563697
