Time,Left Shoulder Angle,Right Shoulder Angle,Left Elbow Angle,Right Elbow Angle,Left Hip Angle,Right Hip Angle,Left Knee Angle,Right Knee Angle
0.0,6.14943459200706,1.6994817468995167,177.8830885084431,169.89102751987932,163.082510248799,206.50866104707703,185.64655721578976,178.70116403099277
0.0333667000333667,6.406184655605661,1.6994817468995167,177.82072965912664,169.9598414586696,162.99616858245062,206.4459508496977,185.44446901283905,178.50621598525444
0.0667334000667334,6.617722751790853,1.6994817468995167,177.78381097885995,170.010277692978,162.91806955391598,206.38203827370444,185.25091077323904,178.32233864014313
0.1001001001001001,6.786903945874272,1.6994817468995167,177.77092206202022,170.04443248548588,162.84824677386104,206.3178365471367,185.06579046187488,178.1486902039648
0.1334668001334668,6.916583303167549,1.6994817468995167,177.78065250298468,170.06440209887452,162.7867338529518,206.25425889803407,184.8890160436316,177.9844288850255
0.1668335001668335,7.009615888982321,1.6994817468995167,177.8115918961305,170.07228279582517,162.7335644018543,206.1922185544363,184.7204954833944,177.8287128916312
0.2002002002002002,7.06885676863022,1.6994817468995167,177.86232983583486,170.07017083901908,162.6887720312345,206.1326287443828,184.56013674604824,177.68070043208797
0.2335669002335669,7.097161007422882,1.6994817468995167,177.93145591647502,170.06016249113762,162.6523903517584,206.0764026959132,184.4078477964784,177.53954971470176
0.2669336002669336,7.09738367067194,1.6994817468995167,178.01755973242817,170.04435401486197,162.624452974092,206.0244536370671,184.26353659956976,177.40441894777862
0.3003003003003003,7.072379823689028,1.6994817468995167,178.1192308780715,170.02484167287346,162.60499350890132,205.9776947958841,184.1271111202076,177.27446633962455
0.333667000333667,7.025004531785781,1.6994817468995167,178.2350589477822,170.0037217278534,162.59404556685234,205.93703940040376,183.998479323277,177.14885009854558
0.3670337003670337,6.9581128602738325,1.6994817468995167,178.36363353593748,169.983090442483,162.59164275861107,205.9034006786657,183.877549173663,177.0267284328477
0.4004004004004004,6.874559874464817,1.6994817468995167,178.50354423691456,169.96504407944354,162.59781869484348,205.87769185870945,183.76422863625072,176.90725955083695
0.4337671004337671,6.777200639670367,1.6994817468995167,178.65338064509064,169.9516789014164,162.6126069862156,205.86082616857465,183.6584256759253,176.7896016608193
0.4671338004671338,6.668890221202121,1.6994817468995167,178.8117323548429,169.94509117108274,162.6360412433934,205.8537168363009,183.5600482575718,176.6729129711008
0.5005005005005005,6.552483684371707,1.6994817468995167,178.97718896054857,169.9473771511239,162.6681550770429,205.8572770899277,183.4690043460753,176.55635168998745
0.5338672005338673,6.430836094490764,1.6994817468995167,179.1483400565848,169.96063310422116,162.70898209783013,205.8724201574947,183.385201906321,176.43907602578523
0.5672339005672339,6.306802516870973,1.6994817468995167,179.32377523733032,169.98695529305718,162.75855591642235,205.9000592670432,183.30854890319543,176.3202441868017
0.6006006006006006,6.177245891542189,1.6994817468995167,179.49735591541443,170.02095553868955,162.82468425566324,205.9642531838548,183.22899782898665,176.150422710377
0.6339673006339673,6.044281695710231,1.6994817468995167,179.756392893092,170.10849759188542,162.91199687668637,206.03773258785785,183.14797115058465,175.96895704658118
0.6673340006673341,5.922899707935598,1.6994817468995167,180.027270278935,170.2499409203099,163.01687890416372,206.1362202593617,183.0683577349645,175.78465639059883
0.7007007007007008,5.862324661227984,1.6994817468995167,180.2317150374523,170.38163441571842,163.20348179047755,206.28632304606123,182.96259309800536,175.6080477854927
0.7340674007340674,5.831504877437251,1.6994817468995167,180.39826733930963,170.55037103559215,163.4020594316944,206.4652765543165,182.871026017022,175.43767044198876
0.7674341007674341,5.8427591501116325,1.6994817468995167,180.4820747461964,170.83703755462267,163.63711358883958,206.69218921400173,182.78648279590328,175.2599183429664
0.8008008008008008,5.865954045309294,1.6994817468995167,180.54744841903576,171.15917503968186,163.8585446165003,206.93806564311515,182.72713459297208,175.08960621216372
0.8341675008341676,5.86963224740652,1.6994817468995167,180.5915744487335,171.41652353171625,164.01729409408998,207.1155140699585,182.72258025737105,174.99290554529892
0.8675342008675342,5.872713946448968,1.6994817468995167,180.61655130013608,171.66641927284044,164.1232509099332,207.24808246524333,182.755578735979,174.94056393977507
0.9009009009009008,5.862076545973887,1.6994817468995167,180.6024182594464,171.86931723904803,164.17846795023382,207.3546562941933,182.83201470966927,174.89693653067155
0.9342676009342676,5.843270559135407,1.6994817468995167,180.61071970574048,172.10605624602414,164.1806840189577,207.45970297923617,182.9364400326108,174.8144073780955
0.9676343009676344,5.815248700948117,1.6994817468995167,180.6242444767198,172.2534621815014,164.09353324146636,207.5084453477304,183.09269795175229,174.7444726795277
1.001001001001001,5.78670994862111,1.6994817468995167,180.66261514089092,172.4213902361849,163.93371754940898,207.55786346194128,183.2797976576257,174.62558438768642
1.0343677010343677,5.70051811772717,1.6994817468995167,180.7327822853857,172.5493327497373,163.67446470374867,207.6329635428637,183.51334619465743,174.45579527190364
1.0677344010677343,5.598952709133114,1.6994817468995167,180.8986397354966,172.7263510248415,163.3861198263915,207.73022715933172,183.7513114756582,174.2591937217099
1.1011011011011012,5.535562398993301,1.6994817468995167,181.00694475448265,172.9721512511728,163.05190093142113,207.7594979341493,183.9895018719228,174.11046011963109
1.1344678011344678,5.500114279457347,1.6994817468995167,181.13860310416925,173.31885987346843,162.72671671375338,207.7928375531657,184.21331947442496,173.9389444004877
1.1678345011678346,5.500114279457347,1.6994817468995167,181.17922006188525,173.6620252115894,162.46441928504552,207.8718897185144,184.3951157145019,173.7555937700174
1.2012012012012012,5.500114279457347,1.6994817468995167,181.2729893239197,174.0631088110913,162.24793999692255,207.99735696791893,184.5430930301572,173.56188911406906
1.234567901234568,5.500114279457347,1.6994817468995167,181.4420463240203,174.57285803538113,162.06024482692786,208.1727404170616,184.6759943831001,173.38244673744342
1.267934601267935,5.500114279457347,1.6994817468995167,181.7415702370208,175.1818732212568,161.89914675087107,208.39592506194023,184.79928640928352,173.1879800790186
1.3013013013013013,5.500114279457347,1.6994817468995167,182.02979399422827,175.85902896917406,161.7564661103815,208.68236180248653,184.9058059836739,172.99301401061453
1.334668001334668,5.500114279457347,1.6994817468995167,182.3814461798378,176.58108129037612,161.6401761281285,209.00989756715867,184.9924977993397,172.78490322622932
1.3680347013680347,5.500114279457347,1.6994817468995167,183.1517805640505,177.3829550217119,161.54773583415138,209.40049968762355,185.04093140251544,172.58532299970318
1.4014014014014016,5.500114279457347,1.6994817468995167,183.94775537214784,178.14041185260413,161.48106887109753,209.80971977899708,185.07680460680768,172.38052713175293
1.4347681014347682,5.500114279457347,1.6994817468995167,184.6561573773682,178.86966507280113,161.48899207727362,210.2080310397655,185.09737061651467,172.19682397191187
1.4681348014681348,5.500114279457347,1.6994817468995167,185.38288633420825,179.5675754660792,161.5204387841036,210.59485069687616,185.132721366826,171.9732802159157
1.5015015015015016,5.500114279457347,1.6994817468995167,186.1632298163639,180.14032115595742,161.4823868393593,211.08285085722216,185.251716058804,171.62367384490335
1.5348682015348682,5.500114279457347,1.6994817468995167,186.87194966592324,180.61154641939515,161.45957078339765,211.55578256054687,185.3498214963452,171.2382753461521
1.5682349015682349,5.500114279457347,1.6994817468995167,187.4790704309524,181.10832761567207,161.48218827047597,212.00143208853268,185.4219247570146,170.84265809861705
1.6016016016016017,5.500114279457347,1.6994817468995167,188.00863627750692,181.5897078718154,161.56721126912672,212.39134023719225,185.45159129746625,170.45439411019632
1.6349683016349683,5.500114279457347,1.6994817468995167,188.4031513239244,182.0276541403568,161.7066677786599,212.67544537986623,185.413122270376,170.09142342334232
1.6683350016683351,5.500114279457347,1.6994817468995167,188.77529564723784,182.45837986025404,161.92340915868053,212.8800066127188,185.327470181792,169.75818676651036
1.7017017017017018,5.500114279457347,1.6994817468995167,189.09398244829492,182.6968500986404,162.19406608410594,213.05423715393667,185.2077260529012,169.4302375413214
1.7350684017350684,5.500114279457347,1.6994817468995167,189.36213793671155,182.92660252733268,162.50011376705433,213.1950068245509,185.04800179763447,169.1083256030282
1.7684351017684352,5.500114279457347,1.6994817468995167,189.671823704533,183.0962376602924,162.84685180066234,213.3031512407724,184.85199567341493,168.79668715146929
1.8018018018018016,5.500114279457347,1.6994817468995167,189.9442056622791,183.2982044438078,163.19096535564248,213.34145641631545,184.6518977963892,168.53137083379107
1.8351685018351689,5.500114279457347,1.942875353603776,190.2124474127249,183.43386612250208,163.56098001182824,213.34675739931035,184.43667914079532,168.2864528538389
1.8685352018685355,5.500114279457347,1.942875353603776,190.45593796018812,183.63251584592493,163.82878899470512,213.2100141602847,184.2761983768277,168.1071466078149
1.901901901901902,5.500114279457347,1.942875353603776,190.6006207563948,183.6530364790933,164.03107577279638,212.96458362920404,184.1488937109439,167.98043592011237
1.9352686019352687,5.500114279457347,1.942875353603776,190.7318492085841,183.54621827011644,164.12177162390446,212.55692419286368,184.0711495753468,167.9393805613574
1.968635301968636,5.500114279457347,1.942875353603776,190.7978020561422,183.3386435608971,164.10594085575758,211.9870538666601,184.09017581846783,167.98567372850775
2.002002002002002,5.500114279457347,1.942875353603776,190.8276461493134,183.1889014221677,164.04164624486208,211.3550196348736,184.1501979083668,168.04376662066693
2.035368702035369,5.500114279457347,1.942875353603776,190.76096289889213,182.9977798834066,163.88700204291854,210.6594177971918,184.26688519215224,168.1184198919409
2.0687354020687354,5.500114279457347,2.174817689560689,190.7156986619604,182.8868197978992,163.66906487270114,209.8925014789807,184.40907116679216,168.24846286838715
2.1021021021021022,5.500114279457347,2.174817689560689,190.50720425505543,182.80971414392104,163.40883236623063,209.07754682734648,184.56581757761268,168.44165102546458
2.135468802135469,5.500114279457347,2.174817689560689,190.3101945364146,182.922698418673,163.15400424575313,208.2677327661698,184.71319255967472,168.6594237909134
2.1688355021688355,5.500114279457347,2.174817689560689,190.1183545016204,183.04827964954504,162.85482613791896,207.4100281125738,184.8832004125277,168.93748652976345
2.2022022022022023,5.500114279457347,2.174817689560689,189.960607547409,183.35577241954093,162.61066322544832,206.5178194149868,185.0233850813985,169.27007331098048
2.235568902235569,5.500114279457347,2.174817689560689,189.7922093818326,183.78419485252888,162.41170234434958,205.57435679851565,185.0995007599003,169.67142990090187
2.2689356022689355,5.500114279457347,2.174817689560689,189.7254691431986,184.33232911430747,162.322536057603,204.73308232577787,185.1108222719608,170.0416566732732
2.3023023023023024,5.500114279457347,2.3949111161143355,189.6397515368037,184.84150448899663,162.31308277068814,203.98268421260155,185.0999659444113,170.4357287653913
2.335669002335669,5.500114279457347,2.3949111161143355,189.79794254157764,185.44154330188445,162.3447606957479,203.3203202769857,185.078688564604,170.81012724291605
2.369035702369036,5.500114279457347,2.3949111161143355,190.00052970550863,186.0219361387986,162.4060977997698,202.7460254562092,185.09546469426613,171.1523262598071
2.4024024024024024,5.500114279457347,2.3949111161143355,190.35627510755944,186.6080627477616,162.5300091440475,202.27909594103792,185.07558226873016,171.42253133732274
2.4357691024357693,5.500114279457347,2.3949111161143355,190.79806027880605,187.104486611678,162.71571618067375,201.91980688742484,185.01772672729845,171.65838601852414
2.469135802469136,5.500114279457347,2.3949111161143355,191.50767946374685,187.64362408048865,162.98889027844942,201.6398418004149,184.90501194664463,171.83825696872566
2.5025025025025025,5.500114279457347,2.6027579946087966,192.52941258762468,188.50079321511248,163.36493114054957,201.44514385322813,184.72074674730013,171.97217159870848
2.5358692025358693,5.500114279457347,2.6027579946087966,193.2519744295365,189.32469703424616,163.83320549319188,201.2883215171172,184.49754642935372,172.03855883620838
2.569235902569236,5.500114279457347,2.6027579946087966,193.9080441174232,189.9092177596723,164.37691711074953,201.21570496743044,184.2328192997474,172.0369636527757
2.6026026026026026,5.500114279457347,2.6027579946087966,194.56062847056864,190.41115811865336,164.9469159272193,201.2489605407704,183.9493289797392,171.9296407842568
2.6359693026359694,5.500114279457347,2.6027579946087966,195.0639000679627,192.97244532041825,165.56287941393333,201.39916545328893,183.6370880916697,171.72092007853917
2.669336002669336,5.500114279457347,2.6027579946087966,195.4191146182673,192.9961309546984,166.32566498383144,201.50559448173985,183.2087575026792,171.54180542218702
2.702702702702702,5.500114279457347,2.7979606863881523,195.64340803661204,192.4813443536929,167.17308330597072,201.6335908930916,182.7298300350536,171.3481717565061
2.736069402736069,5.500114279457347,2.7979606863881523,195.8465064939384,192.03307559289985,168.0726362475606,201.7753740497014,182.19104626366644,171.1270409307612
2.7694361027694363,5.500114279457347,2.7979606863881523,195.8609486000641,191.5018156435998,168.9876614914404,201.97553343039328,181.591604569956,170.8768933986111
2.802802802802803,5.500114279457347,2.7979606863881523,195.97322395414216,190.9499536771538,169.91295791345368,202.251674701792,180.96550349365435,170.57855705637243
2.836169502836169,5.500114279457347,2.7979606863881523,196.09698515033304,190.16786372440453,170.84175125592665,202.5852481248116,180.30110630724064,170.23778634360323
2.8695362028695364,5.500114279457347,2.7979606863881523,196.340030677768,189.54067280869,171.77846678421727,202.91857497259787,179.59841726337942,169.8895728899737
2.902902902902903,5.500114279457347,2.980121552796483,198.6138354558969,189.10481739966485,172.71294789553545,203.25277996263705,178.87865546003513,169.52838825025626
2.9362696029362696,5.500114279457347,2.980121552796483,200.4107875343757,188.86659923251284,173.5938992503931,203.5522688337452,178.1863240078588,169.17712708792686
2.9696363029696364,5.500114279457347,2.980121552796483,201.47786670064724,187.89733389012287,174.43530838138074,203.8320721872612,177.5418072734858,168.83148800889904
3.003003003003004,5.500114279457347,2.980121552796483,201.86945171364565,189.08444139542345,175.18566031525413,204.03156711994995,176.96862781271486,168.53730382335883
3.0363697030363697,5.500114279457347,2.980121552796483,201.73737278693983,189.76376905400264,175.8693729150488,204.22184197655184,176.43768919794218,168.2548770195868
3.0697364030697365,5.500114279457347,3.1488429551778694,201.1449982663936,190.2103439876048,176.4759447726417,204.36063093089743,175.9627229377634,168.0052615437294
3.103103103103104,5.500114279457347,3.1488429551778694,200.1620350999077,190.5441974077609,176.98476597628786,204.48544419045368,175.57359975692444,167.78366925497068
3.1364698031364697,5.500114279457347,3.1488429551778694,198.74514333004265,190.5035745182221,177.4183822730565,204.5895360897217,175.21349290982954,167.59224431673042
3.169836503169837,5.500114279457347,3.1488429551778694,197.00981037815012,190.0392245157137,177.77119642067527,204.66178078793305,174.89239401322837,167.4359841758456
3.2032032032032034,5.500114279457347,3.1488429551778694,194.96894637900988,189.37393204553848,178.07372966899428,204.6780504286349,174.6006917181293,167.33235474032006
3.2365699032365702,5.500114279457347,3.3037272548763914,192.6011289199248,188.16956109642047,178.29797231977693,204.62480780677288,174.35523345476668,167.28531133717664
3.2699366032699366,5.500114279457347,3.3037272548763914,190.16421995822472,186.85596606407304,178.41379897771398,204.47182999443544,174.17855434686672,167.2982249121398
3.3033033033033035,5.500114279457347,3.3037272548763914,187.74213563348752,185.13778196233417,178.43102301732202,204.23619752196285,174.08437123020667,167.37185804012069
3.3366700033366703,5.500114279457347,3.3037272548763914,185.18146345832776,183.3763743454552,178.4321007806139,203.976158715937,173.99893201488922,167.46270636086984
3.3700367033700367,5.500114279457347,3.3037272548763914,182.2960479338477,181.3332656929156,178.40364581918507,203.68324922781687,173.91942999213057,167.5801179699843
3.4034034034034035,5.500114279457347,3.44437681323613,179.25049568325423,179.40646493248676,178.35188530234626,203.3902807590671,173.88768781765634,167.7054374228942
3.4367701034367704,5.500114279457347,3.44437681323613,176.1460047453196,177.81734304134898,178.27515891024882,203.055495169568,173.90674809198967,167.82735137498804
3.4701368034701368,5.500114279457347,3.44437681323613,173.0357070672454,176.21144493289745,178.19653740545203,202.71822451858603,173.9277487754037,167.9289803595694
3.503503503503504,5.500114279457347,3.5703939916011658,170.16174566603962,174.2223379765562,178.1097548067772,202.38576567034784,173.9715404346426,168.0155962143363
3.5368702035368704,5.500114279457347,3.6813811513155774,167.39676025559663,172.22387606751562,178.0408622036465,202.0745243844041,173.96426227096202,168.10617472803727
3.5702369035702373,5.500114279457347,3.776940653723449,164.80098933062374,174.5344470794107,177.9803952552676,201.77840904056336,173.94429418814724,168.214440106171
3.603603603603604,5.500114279457347,3.8566748601688574,162.24955645370258,176.3755746697977,177.93585605971057,201.49425959115607,173.8962905812755,168.3325843607055
3.6369703036369705,5.500114279457347,3.9201861319958855,159.91017876155666,176.56147299706356,177.9133961748072,201.20550948768505,173.83671404939625,168.4610403624469
3.670337003670337,5.500114279457347,3.9670768305486126,157.44753152494974,175.14746170907375,177.87777672571275,200.93836683927023,173.78519501071884,168.59490197750554
3.703703703703704,5.500114279457347,3.996949317171119,155.0355848487988,169.07799459873775,177.83639798015474,200.71581745775504,173.73773007201774,168.7308555052472
3.737070403737071,5.500114279457347,4.009405953207514,152.61183391916433,162.3679182046318,177.81300432809672,200.5370827586005,173.6859233962827,168.87168592356184
3.770437103770437,5.500114279457347,3.985200569659942,150.33307121669816,155.2892836121308,177.80307525252624,200.43503480567847,173.62119293520072,169.02548891112392
3.803803803803804,5.500114279457347,3.967456209458619,148.2113740329058,145.60280324334457,177.78976106308377,200.3637891430498,173.5446371027754,169.19244297281134
3.8371705038371706,5.500114279457347,3.9351655957385536,146.18884855300266,139.10371669682277,177.76887294583491,200.332211418122,173.46830343157,169.3568796312406
3.8705372038705375,5.500114279457347,3.8771209799821977,144.3531429134272,133.48991359438207,177.7400912401347,200.3418363212386,173.36880927669253,169.5087098985614
3.903903903903904,5.500114279457347,3.785038148318378,142.57252256307814,128.2040707833968,177.73210255417771,200.36634728001,173.22562912295476,169.67142189392945
3.937270603937271,5.500114279457347,3.6615883518147054,141.34263442241465,123.51743090557474,177.73419099584962,200.37621143744195,173.06315840314429,169.83573148336473
