Time,Left Shoulder Angle,Right Shoulder Angle,Left Elbow Angle,Right Elbow Angle,Left Hip Angle,Right Hip Angle,Left Knee Angle,Right Knee Angle
0.0,1.7725969907538728,0.3647834742938805,187.13127038681267,159.12328122767013,163.2516956498856,206.5735891269053,192.4411801544752,179.88354593100163
0.0333667000333667,1.7725969907538728,0.3647834742938805,187.8906914487713,160.2599071383762,162.64238565506454,206.7703824600184,193.2455839335407,179.74280170351432
0.0667334000667334,1.7725969907538728,0.3647834742938805,188.5755879148868,161.26260390429732,162.0588064210906,206.93712304340823,194.03444483431,179.61829478364467
0.1001001001001001,1.7725969907538728,0.3647834742938805,189.1912087851783,162.1411909766865,161.50073754482267,207.07693241946984,194.8064610982743,179.5078127643873
0.1334668001334668,1.7725969907538728,0.3647834742938805,189.7428030596656,162.9054878067967,160.96795862311956,207.1929321305981,195.56033096692505,179.40914323873682
0.1668335001668335,2.7360078183390057,0.3647834742938805,190.23561973836803,163.56531384588106,160.46024925284013,207.2882437191881,196.2947526817536,179.32007379968783
0.2002002002002002,3.5448486691442342,0.3647834742938805,190.6749078213052,164.13048854519252,159.97738903084323,207.36598872763463,197.0084244842512,179.23839204023497
0.2335669002335669,4.208966389087514,0.3647834742938805,191.0659163084964,164.6108313559841,159.51915755398767,207.4292886983327,197.7000446159092,179.16188555337288
0.2669336002669336,4.738207824086801,0.3647834742938805,191.41389419996125,165.0161617295088,159.08533441913238,207.4812651736773,198.368311318219,179.0883419320961
0.3003003003003003,5.14241982006005,0.3647834742938805,191.7240904957192,165.3562991170197,158.67569922313615,207.52503969606323,199.0119228326719,179.01554876939937
0.333667000333667,5.431449222925218,0.3647834742938805,192.00175419578977,165.64106296976976,158.29003156285782,207.5637338078856,199.6295774007592,178.94129365827715
0.3670337003670337,5.61514287860026,0.3647834742938805,192.25213430019244,165.88027273901204,157.92811103515626,207.6004690515392,200.21997326397235,178.8633641917242
0.4004004004004004,5.703347633003129,0.4112837885657779,192.48047980894663,166.0837478759995,157.58971723689032,207.6383669694192,200.7818086638025,178.77954796273508
0.4337671004337671,5.7059103320517846,0.4536075484757731,192.6920397220719,166.26130783198522,157.27462976491887,207.68054910392024,201.3137818417412,178.68763256430438
0.4671338004671338,5.632677821664181,0.4536075484757731,192.8920630395877,166.4227720582222,156.98262821610072,207.7301369974375,201.81459103927963,178.58540558942673
0.5005005005005005,5.493496947758273,0.494075676460451,193.0857987615135,166.57796000596343,156.71349218729472,207.79025219236587,202.2829344979092,178.47065463109678
0.5338672005338673,5.2982145562520175,0.5350090949563968,193.2784958878688,166.73669112646195,156.4670012753597,207.8640162311003,202.7175104591212,178.34116728230913
0.5672339005672339,5.056677493063369,0.5787287264001953,193.47540341867463,166.90878487097203,156.2429350771559,207.95455065603727,203.1170171644086,178.19473113605983
0.6006006006006006,4.778732604110285,0.5787287264001953,193.46039326348188,167.49958235035507,156.0059800503019,208.1177317968029,203.5079887248658,177.9899135857043
0.6339673006339673,4.474226735310719,0.6275554932284317,193.72202311309104,168.19455367805213,155.79872322971678,208.32099142502085,203.8634853630152,177.73950016552664
0.6673340006673341,4.153006732582626,0.6838103178776911,193.8964375589325,168.83688807221606,155.52854922990116,208.54089106619315,204.21599601242005,177.46804154258962
0.7007007007007008,3.824919441843972,0.6838103178776911,194.3043379459383,169.5199480025552,155.30178154745545,208.8169828313006,204.49802473794267,177.14518792033414
0.7340674007340674,3.479425294404469,0.7498141227845583,194.71029455425065,169.99953963881407,155.07024190115675,209.1337226574654,204.73586049978937,176.77516790739816
0.7674341007674341,3.16504602695228,0.7498141227845583,195.17894373105705,170.4789259186011,154.89471560388623,209.4843400754592,204.9069405531183,176.38148803512746
0.8008008008008008,2.7822953771067853,0.8278878303856185,195.60920908638383,170.70889470845282,154.7982218828637,209.88334473478656,205.02957588770852,175.9516351980591
0.8341675008341676,2.4175959844436186,0.8278878303856185,196.06348970972,170.9447204469535,154.78200590919047,210.32086164449265,205.0747638263713,175.4952709638894
0.8675342008675342,2.122266431858476,0.8278878303856185,196.72455481046853,171.4423482548822,154.8188628112845,210.7878902353816,205.0344521607513,175.0394287751145
0.9009009009009008,2.002118363456072,0.9203523631174566,197.45121220644413,172.0293201693659,154.87522474937316,211.2200625580824,204.94073015535932,174.62079230067343
0.9342676009342676,2.002118363456072,0.9203523631174566,198.5688886670192,172.13246880634458,154.9749550873159,211.60204672676468,204.7930831902847,174.23400100228818
0.9676343009676344,2.002118363456072,0.9203523631174566,202.0593370665309,172.28781633208305,155.12806785560377,211.94465439472685,204.60050087387103,173.8934427414547
1.001001001001001,2.002118363456072,1.0295286434166575,202.54525366403504,172.7466553289165,155.37841258305073,212.3376979538266,204.3455776966568,173.54760985413998
1.0343677010343677,2.002118363456072,1.0295286434166575,204.87511447454384,173.33811761287637,155.72659079995026,212.70400924935583,204.02112388872612,173.2397785995865
1.0677344010677343,2.002118363456072,1.0295286434166575,203.7164002638661,173.75432167667577,156.0984997522838,212.9631220293396,203.65546368061163,173.01875666852146
1.1011011011011012,2.002118363456072,1.157737593719807,202.8123164229728,174.28429137732118,156.52594176172138,213.16005949429325,203.2413875359005,172.8628460677935
1.1344678011344678,2.002118363456072,1.157737593719807,201.986251354516,174.60476367405545,157.00218052611177,213.28175697910768,202.7868706066008,172.76881816165042
1.1678345011678346,2.002118363456072,1.157737593719807,201.1034753571812,175.0450702195231,157.5478076703534,213.34837047633107,202.264666747256,172.71902707155868
1.2012012012012012,2.002118363456072,1.157737593719807,200.41563064765504,175.6371830939087,158.13584475642935,213.39619968208177,201.72106994909643,172.71825102189337
1.234567901234568,2.002118363456072,1.307300136463489,199.7661226726269,176.4146314692988,158.78144407295807,213.4166364107228,201.1317491631195,172.7703108403199
1.267934601267935,2.002118363456072,1.307300136463489,200.0385315573569,180.0606052784742,159.48342043288014,213.4079242971067,200.4988607235864,172.88258994358324
1.3013013013013013,2.002118363456072,1.307300136463489,200.6579500525328,183.6758932456228,160.23966883640145,213.37237488337004,199.823977317212,173.0463721659485
1.334668001334668,2.002118363456072,1.307300136463489,202.6589664331262,182.905757262642,160.98644441331285,213.2863718576571,199.1573964229084,173.25733210871752
1.3680347013680347,2.002118363456072,1.307300136463489,204.4128632596739,182.2696952604468,161.72221151577398,213.13326832110576,198.4776090447692,173.50759990273218
1.4014014014014016,2.002118363456072,1.4805371940842893,207.05867525706284,182.0365976669437,162.42992143290687,212.9100245164196,197.76862142024424,173.80588518174227
1.4347681014347682,2.002118363456072,1.4805371940842893,209.49767577427104,182.0220717466459,163.15234091988015,212.6415791773136,196.996251044172,174.13575051049074
1.4681348014681348,2.002118363456072,1.4805371940842893,208.7031475913914,181.7213644979224,163.87954883435944,212.3175447744776,196.1886443141171,174.49857006439757
1.5015015015015016,2.002118363456072,1.4805371940842893,207.69106152777564,181.77935196470915,164.56851928266394,211.9550526747671,195.40408262563503,174.87000933905395
1.5348682015348682,2.002118363456072,1.4805371940842893,209.9504044938268,181.90730222438327,165.23325512416332,211.55288886182856,194.64928060562565,175.26773970268607
1.5682349015682349,2.002118363456072,1.4805371940842893,211.3500435595972,182.3219793284904,165.8769609650335,211.12366645056736,193.9278633503649,175.6804287708801
1.6016016016016017,2.002118363456072,1.6797696890187928,212.0517660721238,182.9834982330755,166.4755861810828,210.66442500794096,193.2772756326219,176.10183536612584
1.6349683016349683,2.002118363456072,1.6797696890187928,211.57750035964784,189.28943639928693,167.02401464886054,210.29490979219915,192.69281144504745,176.43997881820007
1.6683350016683351,2.002118363456072,1.6797696890187928,210.55818488364883,188.2433820368919,167.54474919051754,209.9518464136391,192.13809282665167,176.72586930044818
1.7017017017017018,2.002118363456072,1.6797696890187928,209.5299617763426,187.6768454397215,167.98845256128175,209.6087820004884,191.615053854184,176.9659159270033
1.7350684017350684,2.002118363456072,1.6797696890187928,208.22202069463933,191.0588958991602,168.3553846037826,209.2701064273752,191.113231535959,177.1435922907294
1.7684351017684352,2.002118363456072,1.6797696890187928,206.74574020809828,193.4331759135436,168.63442550787423,208.94276277660964,190.64628469434007,177.27581173977288
1.8018018018018016,2.002118363456072,1.907318543703584,204.6866568056484,195.18294963966065,168.79562116842138,208.6285409025053,190.28040641500644,177.37430950128322
1.8351685018351689,2.002118363456072,1.907318543703584,202.0214363829265,196.2443610511165,168.95327835812176,208.3450646895704,189.91700335171765,177.42172253228867
1.8685352018685355,2.002118363456072,1.907318543703584,199.50299720734367,196.2840695563237,168.99829805438347,208.09021274024028,189.62537865068623,177.4340091919221
1.901901901901902,2.002118363456072,1.907318543703584,201.071039482829,195.7480688977024,169.07603239499855,207.8666235137144,189.3251030174931,177.4122741341884
1.9352686019352687,2.002118363456072,1.907318543703584,195.4613194131892,194.5911554024594,169.2038342460621,207.69132470878225,189.0190076637234,177.3426580895097
1.968635301968636,2.002118363456072,1.907318543703584,190.8432856624653,193.31195639937243,169.3303235273337,207.55001703125467,188.6957774003156,177.2452961925036
2.002002002002002,2.002118363456072,1.907318543703584,185.4625559463956,191.6212327698917,169.37418655587882,207.426701696606,188.40611746692232,177.1416726865651
2.035368702035369,2.0670238860252312,1.907318543703584,180.27001476803213,190.2640539521664,169.43093718649163,207.3070871092296,188.09600477821803,177.03030315582902
2.0687354020687354,2.0670238860252312,2.1655046805752374,175.38875920391396,187.31122247231235,169.5166268352594,207.19659953561845,187.78218865220555,176.911231263222
2.1021021021021022,2.0670238860252312,2.1655046805752374,170.4878897024074,184.0678384558812,169.66164693079193,207.12868963497448,187.409489652618,176.77962258405688
2.135468802135469,2.0670238860252312,2.1655046805752374,162.97632795481238,181.21546170382248,169.85363669100502,207.10528569618592,186.997734529096,176.62781417882067
2.1688355021688355,2.0670238860252312,2.1655046805752374,157.97196348358753,178.1388852651882,170.03475078611888,207.0156043796524,186.55655122803591,176.52209370523678
2.2022022022022023,2.3196480138262485,2.1655046805752374,150.52672462000248,173.6547444867114,170.21099567878767,206.8951391748833,186.1270744982236,176.4420845403064
2.235568902235569,2.3196480138262485,2.1655046805752374,146.24748183515098,168.69875462157344,170.43358337562077,206.81022144426368,185.68629837355792,176.36114837365125
2.2689356022689355,2.3196480138262485,2.1655046805752374,143.25117792398268,163.3389211424911,170.67562397833782,206.7378401033707,185.25514854424893,176.29287080226405
2.3023023023023024,2.3196480138262485,2.384277527042659,141.0766056972686,158.46295041734808,170.9484879720037,206.7011117226539,184.8131850422716,176.23322812605983
2.335669002335669,2.3196480138262485,2.384277527042659,139.5805739604058,153.89973711286612,171.2769957359325,206.68695984058627,184.35838650100845,176.1795789083556
2.369035702369036,2.3196480138262485,2.384277527042659,138.6590219205282,150.00168179891048,171.63111381729647,206.6877929490872,183.8745450847489,176.1223049606928
2.4024024024024024,2.3196480138262485,2.384277527042659,138.07362837771652,146.91946275914904,171.9472894751746,206.7160537622948,183.4089662439061,176.0689830120403
2.4357691024357693,2.3196480138262485,2.384277527042659,138.39481143383753,142.1353207646534,172.2593523776774,206.7140635214716,182.96278977682425,176.04048859633377
2.469135802469136,2.590893719143417,2.384277527042659,139.49769271062868,134.6856685193267,172.5520118376223,206.66778994580812,182.5477400987524,176.03332533303077
2.5025025025025025,2.590893719143417,2.384277527042659,139.23423297323578,130.83806092862883,172.8337685875045,206.60337451009383,182.11550294204184,176.05394888859252
2.5358692025358693,2.590893719143417,2.637591190015704,139.52443921105495,126.83136950820555,173.07551333209605,206.53045034803017,181.69079022772195,176.103819274088
2.569235902569236,2.590893719143417,2.637591190015704,138.71969344146734,123.53981117877412,173.32447457465386,206.4507343747448,181.26597558279056,176.1705414068348
2.6026026026026026,2.590893719143417,2.637591190015704,137.44979609717,121.26318140653704,173.56864260799608,206.35830077252228,180.86390147849903,176.26884399614988
2.6359693026359694,2.590893719143417,2.637591190015704,139.11632081002136,120.0627146217886,173.79477536984905,206.2622244913221,180.48777308018555,176.38754731486276
2.669336002669336,2.590893719143417,2.637591190015704,140.9529635275986,118.48766839962266,173.96306441665095,206.17228628331964,180.16196447842492,176.5393790519309
2.702702702702702,2.590893719143417,2.637591190015704,139.25286661242245,117.67641855057312,174.0817533307387,206.05087682510023,179.86998284167265,176.7022218050377
2.736069402736069,2.590893719143417,2.8177701493371683,137.20450063670742,118.42215673511106,174.14943787536075,205.8849293012136,179.61273069876017,176.87340950411874
2.7694361027694363,2.590893719143417,2.8177701493371683,135.49966843477512,122.52705146100632,174.19992072089332,205.70350571494225,179.35560844435358,177.0357432279749
2.802802802802803,2.590893719143417,2.8177701493371683,133.99689140538584,120.71869016376796,174.21694540830154,205.49116904742385,179.09981550859146,177.21893361034626
2.836169502836169,3.035646202795413,2.8177701493371683,132.21015857429134,124.93661875544672,174.2109372735275,205.3049476923452,178.84214207156342,177.36517539177663
2.8695362028695364,3.035646202795413,2.8177701493371683,130.49754169264895,128.39164167685274,174.1675554030983,205.107441741838,178.59975000159403,177.4614809876214
2.902902902902903,3.035646202795413,2.8177701493371683,128.01905966858305,127.2920718617694,174.10784990436423,204.9353107935169,178.39587019188582,177.52691214900642
2.9362696029362696,3.035646202795413,2.8177701493371683,128.05675291538913,124.58334827847652,174.0434730880742,204.776516970089,178.16042245900053,177.57773949810502
2.9696363029696364,3.035646202795413,3.099994911112383,126.92013209406691,120.94137290503618,173.98878078755257,204.68260052360657,177.89918884297433,177.57988106441528
3.003003003003004,3.035646202795413,3.099994911112383,125.11741918742403,116.66008360805388,173.93037134895943,204.6769243074199,177.63847821554242,177.535353272258
3.0363697030363697,3.035646202795413,3.099994911112383,122.35535062962197,112.01899067529862,173.94617404540935,204.70880892362632,177.37033159794075,177.43755626971628
3.0697364030697365,3.035646202795413,3.099994911112383,113.53715917371063,107.31720218573632,173.98313650629365,204.8258716234818,177.09008555608378,177.3199187136518
3.103103103103104,3.035646202795413,3.099994911112383,110.55817714750413,103.4023620513044,174.00799879874583,205.0044409564968,176.84840761429444,177.16724675283777
3.1364698031364697,3.035646202795413,3.099994911112383,107.54986290572056,100.48372691197854,174.06641807885305,205.21697237944173,176.55287648961777,176.97304265724176
3.169836503169837,3.035646202795413,3.099994911112383,105.6648384888384,98.08069287051032,174.20737413456507,205.48035058987497,176.2760124524483,176.73911949515505
3.2032032032032034,3.035646202795413,3.099994911112383,103.38477673906162,94.31960808697772,174.4083293065616,205.7512859345252,175.96313102449292,176.4614298607328
3.2365699032365702,3.035646202795413,3.099994911112383,101.83923380202964,91.59682824197888,174.61787630501738,206.06305175508064,175.73540682717325,176.14884526626685
3.2699366032699366,3.035646202795413,3.099994911112383,100.78374107055816,89.72263022984507,174.92899203915042,206.34317818135565,175.50660779940114,175.83904953498913
3.3033033033033035,3.035646202795413,3.471543102430134,100.17306886307962,87.63344870772298,175.2715861085318,206.63640532570412,175.38390379967575,175.51275120606203
3.3366700033366703,3.035646202795413,3.471543102430134,99.46330356812452,84.45625048039277,175.6288523904636,206.89113249979337,175.34848513406268,175.19872075715548
3.3700367033700367,3.035646202795413,3.471543102430134,99.521281118327,82.04352416952592,175.98695122018697,207.153537022676,175.42983146371628,174.90326217623505
3.4034034034034035,3.035646202795413,3.471543102430134,98.90423588904032,79.82906600810497,176.4238415093205,207.4680992996418,175.545588289678,174.5531205498284
3.4367701034367704,3.8326282819134514,3.471543102430134,98.40789745810514,78.56205014091469,176.88047179080408,207.8203485855281,175.77651936451616,174.20661363998568
3.4701368034701368,3.8326282819134514,3.471543102430134,98.15672604375138,77.79026344092675,177.3540633496981,208.1743218998745,176.078208633437,173.8783677273129
3.503503503503504,3.8326282819134514,3.471543102430134,99.059978240094,77.62151978960907,177.75758332028707,208.5634126632458,176.55277522635006,173.58969939781628
3.5368702035368704,3.8326282819134514,3.471543102430134,101.39560789479368,80.59741889018392,178.11758551000898,209.09785310758045,177.0710991769296,173.33901250666332
3.5702369035702373,3.8326282819134514,3.471543102430134,108.43595528178992,82.6842402064061,178.5029096631416,209.59307076034457,177.70490017181356,173.1792050276336
3.603603603603604,3.8326282819134514,3.471543102430134,110.61145220422536,79.53569997640007,178.8805755652476,209.91741444953288,178.42164479290147,173.0626791089517
3.6369703036369705,3.8326282819134514,3.471543102430134,119.03018170582668,76.31230948884621,179.15453824201626,210.25380169383885,179.30461815923792,172.99549852868572
3.670337003670337,3.8326282819134514,3.471543102430134,121.10884295512444,80.75755733836493,179.37758297457157,210.5163548163391,180.25552926976812,172.9529581638218
3.703703703703704,3.8326282819134514,3.471543102430134,124.08955507634444,86.29512428023874,179.5140159952577,210.76576811197452,181.31885934354185,173.0417734691869
3.737070403737071,3.8326282819134514,3.9926235943995727,127.97824012680468,91.7080266690019,179.54824496168473,211.015984879059,182.4983154903747,173.22884667880678
3.770437103770437,3.8326282819134514,3.9926235943995727,131.8025764263849,96.28035847602406,179.47743994295243,211.3018358154308,183.7745674119446,173.56455799970573
3.803803803803804,3.8326282819134514,3.9926235943995727,136.56099868776337,97.34572684191896,179.37133217757437,211.63418722915296,185.1124324132714,173.9296317818739
3.8371705038371706,3.8326282819134514,3.9926235943995727,142.27231373892772,100.23070809021868,179.2612225381786,211.9800295061565,186.4675559971957,174.40537033515375
3.8705372038705375,3.8326282819134514,3.9926235943995727,148.75543046246517,104.66741414971314,179.04755504397994,212.2806425883019,187.87827017468663,175.03178723976595
3.903903903903904,3.8326282819134514,3.9926235943995727,155.57729464161375,109.52452145382156,178.8123716159251,212.64692998666263,189.2800148257424,175.76109410744664
3.937270603937271,3.8326282819134514,3.9926235943995727,162.2699450517598,112.1244116500188,178.5067120152928,213.0360382050553,190.72594046161484,176.52027413753757
