Time,Left Shoulder Angle,Right Shoulder Angle,Left Elbow Angle,Right Elbow Angle,Left Hip Angle,Right Hip Angle,Left Knee Angle,Right Knee Angle
0.0,66.47500099205618,80.63312313960304,146.51510735711085,167.80834357450436,139.19580835442056,137.27876978005105,208.59376954710908,204.56185124425795
0.0333667000333667,49.24955587658262,63.3077136467753,153.24938158751078,172.15299685105455,138.2256027389651,135.40166036005007,208.50729616116675,206.51915538684383
0.0667334000667334,34.757745971054845,48.37131707998056,158.97945510216937,175.33140311154315,137.30071917412093,133.826043268564,208.5034625359048,208.1681722831216
0.1001001001001001,22.86709846840452,35.71713546363055,163.76951033501825,177.40981341203977,136.4219409562604,132.5344959765697,208.5774040614939,209.5293289987521
0.1334668001334668,13.445140561563242,25.238370822136964,167.6837297199891,178.454478808614,135.59005138175604,131.509595955044,208.72425612810443,210.6230525993963
0.1668335001668335,6.359399443462664,16.828225179911506,170.78629569101358,178.53165035733542,134.80583374698014,130.7339206749637,208.93915412590707,211.4697701507152
0.2002002002002002,1.4774023070344242,10.379900561365886,173.14139068202337,177.70757911427367,134.07007134830516,130.1900476073057,209.2172334450724,212.0899087183696
0.2335669002335669,1.4774023070344242,5.786598990911799,174.81319712695014,176.04851613549835,133.38354748210352,129.8605542230468,209.5536294757709,212.50389536802064
0.2669336002669336,1.4774023070344242,2.9415224929609423,175.86589745972557,173.62071247707905,132.74704544474758,129.72801799316383,209.9434776081733,212.7321571653292
0.3003003003003003,1.4774023070344242,1.737873091925053,176.36367411428122,170.49041919508537,132.16134853260982,129.77501638863365,210.38191323245005,212.7951211759561
0.333667000333667,1.4774023070344242,1.737873091925053,176.3707095245489,166.72388734558692,131.62724004206257,129.98412688043305,210.8640717387717,212.7132144655625
0.3670337003670337,1.4774023070344242,1.737873091925053,175.95118612446018,162.3873679846533,131.1455032694783,130.33792693953893,211.3850885173089,212.5068640998092
0.4004004004004004,1.4774023070344242,1.737873091925053,175.16928634794678,157.54711216835412,130.71692151122937,130.8189940369281,211.94009895823217,212.19649714435715
0.4337671004337671,1.4774023070344242,1.737873091925053,174.08919262894034,152.26937095275895,130.34227806368824,131.4099056435774,212.52423845171205,211.8025406648674
0.4671338004671338,1.4774023070344242,2.0688528122157948,172.77508740137256,146.62039539393743,130.02235622322726,132.09323923046367,213.1326423879192,211.34542172700085
0.5005005005005005,1.4774023070344242,3.8276636782448734,171.29115309917503,140.6664365479592,129.75793928621889,132.8515722685637,213.7604461570241,210.8455673964184
0.5338672005338673,1.4774023070344242,6.907507714424014,169.7015721562795,134.47374547089376,129.5498105490355,133.6674822288544,214.4027851491973,210.32340473878105
0.5672339005672339,1.4774023070344242,11.201586945164962,168.0705270066189,128.108573218812,129.3987533080506,134.52354658231363,215.0547947546113,209.79936081975143
0.6006006006006006,1.4774023070344242,16.603103394879312,169.12517325380315,120.40788681079646,129.0521768642442,135.09330127453677,215.86042763919292,209.5402109443884
0.6339673006339673,1.4774023070344242,23.00525908797883,168.73312999011367,113.46772857076364,128.63926487277192,135.61503673207653,216.99395844104984,209.31834062349685
0.6673340006673341,1.4774023070344242,30.30125604887525,168.80573152769642,105.63592177377838,128.65188334142164,136.2183674277612,218.27095059413605,209.3350339542226
0.7007007007007008,-1.3333236547898508,38.384296301980505,169.9052622806818,97.9925529596807,128.76566374305284,136.74610813467325,219.5077051825801,209.80992000991023
0.7340674007340674,-2.205251249078543,51.55598903517819,169.82879620599067,93.03694249240328,128.8758375243063,137.16284806890667,220.53377260451987,210.6707156868852
0.7674341007674341,-1.270853282899992,64.05445639494863,171.50622420404574,91.57666794989956,129.19245887852085,137.63596564985284,221.39484527260848,211.58643716783445
0.8008008008008008,1.3373974366774206,75.07375603014809,171.7933215586738,85.21223675898113,129.72186824104497,138.202904192689,221.9119619327525,212.29508552240537
0.8341675008341676,1.3373974366774206,84.80044296578805,174.66097599941386,78.91813954934061,130.37969481955588,138.89380573659292,222.18881129205488,212.69916867843705
0.8675342008675342,1.3373974366774206,93.71918645067568,174.33475188955595,74.8735748726093,131.24005442747193,139.6327283640459,221.96489426653443,212.9622209950631
0.9009009009009008,1.3373974366774206,100.50814548882364,171.05589779702382,72.38990970832934,132.06944347972043,140.15946911012298,221.7496269574136,213.17264508439908
0.9342676009342676,1.3373974366774206,106.80067108278566,167.5465353139333,71.42818065738159,132.9332653296078,140.5822934134369,221.08669885852228,213.3706625129182
0.9676343009676344,1.3373974366774206,112.76918596260936,164.17694543135408,71.22738269412069,133.88515611557878,140.94240019730088,219.99165264681727,213.31724170118147
1.001001001001001,1.3373974366774206,108.09787357120425,163.61709429110647,70.77851922710332,134.90992764558192,141.12220590715535,218.47605268524703,213.06376122342684
1.0343677010343677,1.3373974366774206,105.7075229681989,163.22004170319,72.11128335043135,136.02354375326365,141.2963436321074,216.62412461028487,212.6045934144292
1.0677344010677343,1.3373974366774206,104.49099258752624,163.0887436239147,75.25762160098796,137.1594593626004,141.67780192778932,214.38798714000976,211.88847470707
1.1011011011011012,5.487028102585327,104.99838708582308,162.67473456489293,78.54742159348841,138.37408766485535,142.2571048798083,212.0328489043387,210.93519487108128
1.1344678011344678,11.04556590775534,106.43535246292927,161.8167337807892,82.55301294879983,139.57933565272927,143.09208375807916,209.6068073595384,209.5243491862276
1.1678345011678346,17.880538045119152,108.65865840042014,159.9875923725851,89.06148160891804,141.0782976107482,143.73436074967884,206.94725958471915,207.91216416514163
1.2012012012012012,25.859471707608364,111.99449994424408,161.1312743865929,95.85094523740264,142.57437469751414,144.52825278376477,204.27028248692497,206.1349858173924
1.234567901234568,34.84989408815454,116.20683897569138,160.54262177742294,100.6576862031794,143.81863489844682,145.66983029451288,201.55233953137792,204.1480029248411
1.267934601267935,44.71933237968946,120.5596705587269,157.4085131963774,104.38381933558804,145.51469244940802,146.66368198372533,198.17767161715827,201.59443106484767
1.3013013013013013,55.3353137751449,124.5517360988665,153.71869761127635,107.86713067669288,147.15600443126965,147.72085037493156,194.84214125658545,198.93274318281115
1.334668001334668,72.29679645341984,128.57032386754915,149.45667423606915,111.0361238983794,148.7130014741366,148.84095351221566,191.60073156437144,196.1970224872408
1.3680347013680347,86.92306644023108,133.83924206029096,144.60594228470674,113.81930267253408,150.15611420811487,150.02360943966266,188.50842565523,193.4213521866476
1.4014014014014016,99.82343027401264,132.20844266591288,139.15000097114012,116.14517067104336,151.45577326331048,151.26843620135756,185.6202066438747,190.63981548954249
1.4347681014347682,112.16089070544449,130.93412787279345,133.07234950932028,117.94223156579363,152.58240926982933,152.57505184138546,182.99105764501948,187.8864956044365
1.4681348014681348,122.54874667571346,130.21993809744345,126.35648711319811,119.1389890286714,153.5064528577775,153.94307440383136,180.675961773378,185.1954757398408
1.5015015015015016,132.07958759807514,130.26951375637356,118.98591299672466,119.66394673156302,154.198334657261,155.37212193278037,178.72990214366396,182.60083910426616
1.5348682015348682,140.07482317994615,131.28649526609465,110.94412637385086,119.44560834635496,154.62848529838573,156.86181247231744,177.20786187059116,180.13666890622386
1.5682349015682349,145.4242009459042,133.4745230431176,102.2146264585277,118.41247754493368,154.76733541125776,158.4117640665277,176.16482406887332,177.8370483542247
1.6016016016016017,140.9451642948587,137.0372375039532,92.78091246470612,116.4930579991856,154.58531562598313,160.02159475949617,175.65577185322414,175.73606065677978
1.6349683016349683,137.49561883110383,142.17827906511238,82.62648360633715,113.61585338099712,154.0528565726677,161.69092259530788,175.73568833835742,173.86778902240007
1.6683350016683351,135.1589864588893,149.10128814310605,71.73483909737168,109.70936736225474,153.14038888141758,163.4193656180479,176.4595566389868,172.26631665959664
1.7017017017017018,134.44185456844104,158.0099051544449,60.08947815176072,104.70210361484482,151.8183431823387,165.20654187180128,177.88235986982613,170.96572677688044
1.7350684017350684,134.42865352088222,169.1077705156399,47.673899983455215,98.52256581065387,150.0571501055371,167.052069400653,180.05908114558906,170.00010258276254
1.7684351017684352,135.15534834723792,182.5985246432019,34.47160380640619,91.0992576215683,147.82724028111872,168.9555662486882,183.0447035809893,169.4035272857539
1.8018018018018016,136.19031041394297,198.6858079536417,20.46608883456456,82.36068271947448,145.09904433918962,170.91665045999187,186.8942102907408,169.21008409436556
