Time,Left Shoulder Angle,Right Shoulder Angle,Left Elbow Angle,Right Elbow Angle,Left Hip Angle,Right Hip Angle,Left Knee Angle,Right Knee Angle
0.0,8.328292022471704,30.900889071427784,142.1647786290157,156.09159981038462,148.3649983014839,138.5333765568973,196.1740355665754,198.86674807059225
0.0333667000333667,10.918521343675334,30.71040625348558,145.99274963494844,156.37774164107566,147.9949293611165,139.17530660487816,195.7642016540223,198.44919254537547
0.0667334000667334,13.143255369842052,30.5743839553888,149.5301819671089,156.6667157719779,147.70515121403517,139.72876168375836,195.3987918496876,198.0763506795532
0.1001001001001001,15.026935869751552,30.488468715842977,152.78626461226133,156.95634890157052,147.48955767274035,140.1985814618174,195.07512376652733,197.74601328553865
0.1334668001334668,16.59400461218353,30.44830707355368,155.77018655717006,157.2444677283327,147.34204254973264,140.58960560733476,194.7905150174975,197.4559711757452
0.1668335001668335,17.868903365917674,30.449545567226465,158.49113678859942,157.5288989507436,147.25649965751248,140.9066737885898,194.5422832155541,197.204015162586
0.2002002002002002,18.876073899733687,30.48783073556688,160.9583042933137,157.8074692672824,147.22682280858044,141.15462567386203,194.32774597365324,196.9879360584744
0.2335669002335669,19.639957982411257,30.55880911728048,163.18087805807718,158.07800537642828,147.246905815437,141.3383009314309,194.1442209047508,196.8055246758236
0.2669336002669336,20.18499738273008,30.658127251072813,165.1680470696542,158.3383339766604,147.3106424905827,141.46253922957575,193.9890256218028,196.65457182704685
0.3003003003003003,20.53563386946985,30.78143167564944,166.92900031480903,158.58628176645792,147.41192664651803,141.53218023657612,193.8594777377652,196.53286832455743
0.333667000333667,20.71630921141027,30.924368929715914,168.47292678030604,158.8196754443,147.54465209574357,141.55206362071144,193.75289486559407,196.43820498076863
0.3670337003670337,20.751465177331024,31.082585551977783,169.80901545290948,159.03634170866584,147.7027126507598,141.52702905026115,193.66659461824543,196.3683726080937
0.4004004004004004,20.665543536011803,31.25172808114061,170.94645531938366,159.2341072580346,147.8800021240672,141.4619161935047,193.5978946086753,196.3211620189459
0.4337671004337671,20.48298605623232,31.427443055909947,171.8944353664929,159.41079879088545,148.07041432816635,141.3615647187215,193.5441124498396,196.29436402573845
0.4671338004671338,20.22823450677225,31.60537701499134,172.6621445810015,159.56424300569756,148.26784307555772,141.23081429419102,193.5025657546944,196.28576944088465
0.5005005005005005,19.92573065641129,31.781176497090343,173.2587719496738,159.69226660095006,148.46618217874186,141.07450458819272,193.4705721361956,196.2931690767977
0.5338672005338673,19.599916273929136,31.95048804091252,173.69350645927406,159.7926962751222,148.65932545021928,140.89747526900604,193.4454492072993,196.31435374589097
0.5672339005672339,19.275233128105583,32.10895818516368,173.97553709656785,159.8633587266944,148.84116670249162,140.7045660049115,193.42451458096315,196.3471142605792
0.6006006006006006,19.06644268436108,32.23826177300262,173.61023340903435,159.85249920992288,148.9187224804409,140.42869475132787,193.4100888093048,196.45885597390463
0.6339673006339673,19.160167620201804,32.32185382455175,173.41578641949744,159.7788956711245,149.02515007273396,140.1421445221542,193.29268086780704,196.5554372323204
0.6673340006673341,19.37040067802236,32.363232048555275,173.11494187203306,159.66389756462095,149.1164530627992,139.89003259387204,193.12748590013567,196.61760433916328
0.7007007007007008,19.67058532314528,32.45071440813255,172.70742359462787,159.67179939500082,149.14498187829548,139.6750009289424,192.97880986529665,196.65868252904903
0.7340674007340674,20.11872725618424,32.488138044758166,172.40757686158264,159.63970005556166,149.08462182992707,139.5157792667023,192.85965392175072,196.68415288633395
0.7674341007674341,20.65122397733835,32.44531337017248,171.98946366038277,159.51223551804827,148.98092514699826,139.39437602100108,192.7540396015751,196.7114089857024
0.8008008008008008,21.20588452479791,32.34065698093643,171.8629245664022,159.3004891791798,148.84530648849096,139.31431366946373,192.6547211464816,196.727547316893
0.8341675008341676,21.897875983517967,32.25532896747805,171.7822991358155,159.08736207207946,148.67536689904492,139.2574706937505,192.5364418389309,196.7311580510042
0.8675342008675342,22.72165710854348,32.11233564429626,171.49493931562728,158.78945140896377,148.45307459339162,139.25384199968448,192.43378174524804,196.70558701409144
0.9009009009009008,23.75595555599152,31.93383570746732,170.93088734894042,158.46190011611435,148.16317803570615,139.27586852913532,192.36568020929369,196.69049530879155
0.9342676009342676,24.72878046744749,31.698832764294824,170.0522747962033,158.05812287630158,147.81464832702883,139.34348859140314,192.3363196163611,196.6518895871289
0.9676343009676344,25.84381629887952,31.44161288812387,169.26060610527537,157.6331747326286,147.3889492046075,139.4506084130176,192.365665127621,196.5839926161356
1.001001001001001,26.98737498525716,31.11371379181321,168.8026977587564,157.1074691485196,146.9218109403373,139.61124218373143,192.43269204239732,196.48374246944715
1.0343677010343677,28.021093882846568,30.85373716116172,168.61860404391692,156.7328722823318,146.46715541414625,139.78664701569275,192.5089510413245,196.3524081158737
1.0677344010677343,29.04971228833743,30.52865780278283,168.46270503501103,156.2444970416822,146.01297748893944,140.002438403371,192.5981841990766,196.1875927695122
1.1011011011011012,29.962901018965216,30.11575582139356,168.17612275544425,155.64200195529617,145.58491582861393,140.26761343171137,192.68813536477103,195.99966023072312
1.1344678011344678,30.738334013511032,29.597627059954995,167.91484922026382,154.89282891851968,145.16158753139976,140.5850322932616,192.79662041736867,195.79334311634048
1.1678345011678346,31.433163633577674,29.100959441805344,167.56239855278474,154.25134948464412,144.7434233241914,140.95897272467673,192.91988644562173,195.53648201561333
1.2012012012012012,32.04280775805722,28.505441162684903,167.21094391975214,153.45095746369532,144.34733440226805,141.3940819985254,193.0463186579516,195.2310163432188
1.234567901234568,32.66359975372185,27.83435602439795,166.95877788799208,152.4938482459199,144.02413964717888,141.85490387526005,193.17983175903427,194.9366315539961
1.267934601267935,33.228084711091405,27.06276740315576,166.93746941477767,151.3605523693642,143.6916350325787,142.34868132124004,193.35198223847328,194.6207746340345
1.3013013013013013,33.78313870263702,26.35773600888616,166.87238019838463,150.29909975129362,143.28691286724367,142.8445967413094,193.55826068920592,194.29191431517907
1.334668001334668,34.21938754955976,25.58779664965417,166.73856503883843,149.1325431479293,142.9018290716185,143.37172566878982,193.8015094297209,193.94069081417047
1.3680347013680347,34.466506434451844,24.71484645734636,166.44725872226866,147.76202513931622,142.5544110793103,143.91265978982332,194.0592861542017,193.54143024321
1.4014014014014016,34.51029657306563,23.70075796898408,166.6951282090888,146.2351345313825,142.23330019901596,144.463505374108,194.3545443001728,193.1135916609226
1.4347681014347682,34.388125758611565,22.52405942642505,166.58865645773963,144.80090142373865,142.01831783122083,145.03422600168656,194.61079303283933,192.6467010683074
1.4681348014681348,34.1352331590636,21.27701891639112,167.1970411041848,143.1834913194904,141.8596851570912,145.65624700385848,194.85497473306265,192.1536764308806
1.5015015015015016,33.79914624546397,20.02363808638812,167.43191930711183,141.3639743107763,141.75969954745307,146.33238406231814,195.0998578951812,191.6376692919385
1.5348682015348682,33.67498147430869,18.743021668584475,167.74923503238287,139.45558209624087,141.58439298615284,147.02721925434298,195.32852203190544,191.1372547512492
1.5682349015682349,33.53984512490861,17.479560803720425,173.61047845964285,137.5188504038591,141.38678885042916,147.7330977481512,195.56642376100675,190.65493683885816
1.6016016016016017,33.32165822534453,16.17780188611108,178.08557755758684,135.3804738801159,141.1719013948798,148.43245953053687,195.7914227927744,190.17591995499475
1.6349683016349683,33.28149870415788,14.84808438520531,181.68914984849212,133.75371587016838,140.9837455959156,149.10829969907712,195.98556338283987,189.7176346674132
1.6683350016683351,33.07695169472048,13.555158052383227,184.1874656405584,132.09045721332353,140.79525507535942,149.7614054842365,196.16911203120367,189.29103329685543
1.7017017017017018,32.91462307569759,12.345861295264774,185.6012035533313,130.8576361870446,140.6309274572636,150.38902388043172,196.34723353377487,188.8927091818716
1.7350684017350684,32.58746479779786,11.163574310880618,186.1225964784235,129.2775398816576,140.46953983037093,151.03182147305333,196.49543599050392,188.46201951322792
1.7684351017684352,31.909640038196567,10.018711997809437,185.6725279749397,127.3629374107459,140.33360311616974,151.66793328694655,196.58032571528955,188.0066577814521
1.8018018018018016,30.993852216407607,8.89384553555332,184.60009090098907,125.17157945284676,140.11585488596089,152.29867809037984,196.7695998924264,187.564119577598
1.8351685018351689,29.548960790651048,7.885359026582997,181.97474750499828,122.86449466722516,139.7900566050062,152.9000218217701,197.04331422029136,187.17747189368592
1.8685352018685355,28.11772018887609,6.877264616130674,178.87369732199414,120.24900097901192,139.42542995069766,153.45886117342096,197.33465599755525,186.84068741325592
1.901901901901902,26.61958992102841,5.824764765083393,175.7025213868447,117.5339661741263,139.03591138789565,153.95889881985394,197.6295797365784,186.5554621671462
1.9352686019352687,25.26935240095712,4.813872099575572,172.40867633502984,114.7873185887113,138.6033858663595,154.42308211592632,197.95552596678849,186.2935325053417
1.968635301968636,24.184007683859825,3.823633537304776,169.42157520005415,112.01449297813166,138.1791744693619,154.83716610764893,198.2867369632863,186.06894510436567
2.002002002002002,22.912255834521137,2.951187405333913,166.19910794624408,109.03510109571458,137.7312654976766,155.21764427021762,198.68579405534783,185.8835628426567
2.035368702035369,21.44491484050513,1.999663502308886,162.4019577376531,106.21856956506892,137.31535261527534,155.56146489035365,199.10354459419932,185.7437594586769
2.0687354020687354,19.91740459860076,1.999663502308886,158.30799629635342,103.3330947530875,136.91759640366232,155.88536743004278,199.5548143340844,185.5902050135436
2.1021021021021022,18.207268220999232,1.999663502308886,153.99237427917384,101.8943441449576,136.53791593421775,156.15317512042512,200.00220856276724,185.45293495589345
2.135468802135469,16.481841886021282,1.999663502308886,149.43397657155873,100.39515482050226,136.1973936297945,156.36471118534206,200.47329301484507,185.3569479342643
2.1688355021688355,14.713604404281028,1.999663502308886,144.78034643804807,98.60336649264144,135.91535735148634,156.51803663090175,200.9491222166804,185.3011170678954
2.2022022022022023,13.096643063193136,1.999663502308886,139.9652144277735,95.87156595268615,135.63300239476928,156.6529168104121,201.43852407339412,185.2708418873656
2.235568902235569,11.250162243864274,1.999663502308886,134.85226077084323,92.59218181252872,135.34586397388992,156.75710148192067,201.9729326941615,185.28905132914264
2.2689356022689355,9.65151394904104,1.999663502308886,129.82320336802488,88.91001027079214,135.0283163832922,156.81166804800765,202.56652859153647,185.34584914941703
2.3023023023023024,8.51086716267413,1.999663502308886,125.22292056080828,84.9680268007961,134.67504569614434,156.80548692371042,203.21468555416783,185.42330207012145
2.335669002335669,7.786463688385575,1.999663502308886,120.9458963491919,80.62242144838453,134.28506928885085,156.73610496176434,203.91058859585763,185.55237125747493
2.369035702369036,7.45866301998611,1.999663502308886,117.03307370034584,76.18753434247812,133.8911048542124,156.60019875398163,204.62740577900345,185.7092900772023
2.4024024024024024,7.389479935577169,1.999663502308886,113.36345000075708,71.67815024748135,133.42245047864807,156.44654009833556,205.35242833065908,185.8256058272774
2.4357691024357693,7.411024920931005,1.999663502308886,109.83267138896392,67.06414559362862,132.92384408420142,156.25267205662195,206.08024276976508,185.94370136683088
2.469135802469136,7.566720626819664,1.999663502308886,106.7992943775044,62.27412750001509,132.48738251605323,156.06219236172527,206.80070474987772,186.0416838055513
2.5025025025025025,7.833159586403155,1.999663502308886,104.1780043804214,57.53208506317356,132.11130831797018,155.8638034786861,207.4650492271814,186.13141629030147
2.5358692025358693,-0.769417972214883,1.999663502308886,102.61553072869708,53.01495591277202,131.77029501595402,155.68080468109898,208.0949418556804,186.23418830746908
2.569235902569236,-5.878391274403052,1.999663502308886,101.88177514154692,48.656299258014016,131.45336296623114,155.49345945032147,208.70649952509,186.3698471751952
2.6026026026026026,-7.8592540898578145,1.999663502308886,102.89324868245563,44.28681777167178,131.1027799275726,155.3384633454337,209.33051769606084,186.51833935327468
2.6359693026359694,-6.971540757472724,1.999663502308886,104.9981605895424,40.198695748320745,130.75918551126782,155.2138171494873,209.93150494665448,186.620794188119
2.669336002669336,-3.374009003452575,1.3751162734250189,109.38093815717411,36.57766090243031,130.43597367965225,155.10500936881704,210.4594628007612,186.7041588059856
2.702702702702702,2.65100373426586,0.7449088253109261,115.38225949221294,33.32886476095412,130.136085236552,155.0201618125198,210.9118200920995,186.74643168990016
2.736069402736069,2.65100373426586,0.3748836539368279,116.27047456548988,30.605545985362685,129.86984764771293,154.93123741914843,211.30925709436733,186.79789423593272
2.7694361027694363,2.65100373426586,0.7007977805429454,117.32655863688736,28.635054060559483,129.61768232317053,154.8263994157043,211.6815617553904,186.8802197132796
2.802802802802803,2.65100373426586,1.3726394725036073,118.10917895893178,26.631746065690933,129.3511400881861,154.71474966673466,212.0822100290186,186.98331445710173
2.836169502836169,2.65100373426586,2.1153463509678576,118.64891145855616,25.004024696917064,129.09159350544343,154.59732604269416,212.48913283383268,187.0915875852931
2.8695362028695364,2.65100373426586,3.026888949463083,119.15404479877904,23.080380704225995,128.7983971990424,154.45575926652427,212.8958195420478,187.22386496397309
2.902902902902903,2.65100373426586,3.026888949463083,119.661409111467,21.43831400573855,128.47747779672244,154.33933083288736,213.2903555039532,187.30356973888104
2.9362696029362696,2.65100373426586,3.026888949463083,120.3149208015299,20.19826786557408,128.11787574391244,154.2053571602327,213.69485719889843,187.42217598659067
2.9696363029696364,2.65100373426586,3.026888949463083,120.83640825730367,19.519156314656826,127.7553952601166,154.05507237057617,214.08482126833567,187.58079319011543
3.003003003003004,2.65100373426586,3.026888949463083,122.48725411866742,19.248372735656105,127.436450876318,153.880441084268,214.4289808599165,187.80084035135343
3.0363697030363697,2.65100373426586,3.026888949463083,125.12357412263437,19.64961434198856,127.16603516248824,153.7436627547273,214.7111299968661,187.9264892117432
3.0697364030697365,2.65100373426586,3.026888949463083,127.84670860876174,20.367715175459267,126.9530604492691,153.57379779377078,214.94651123345045,188.1204016834241
3.103103103103104,2.65100373426586,3.026888949463083,130.79427021786873,21.604323973059746,126.75853314540608,153.43283879014308,215.1387639274365,188.318583939766
3.1364698031364697,2.65100373426586,3.026888949463083,133.05726893016222,22.99302260439246,126.57825713110172,153.25041954470592,215.30362421432272,188.62320944134265
3.169836503169837,2.65100373426586,3.026888949463083,137.99031530970845,24.425332588110983,126.16691466282852,153.24935659491555,215.41807697983592,188.9037179662183
3.2032032032032034,2.65100373426586,3.026888949463083,141.31657210208192,26.1402001046774,125.87760822482096,153.07229027350493,215.5367696941584,189.32086521408388
3.2365699032365702,2.65100373426586,3.026888949463083,143.67711319405078,27.14944018413545,125.70015782446664,152.74249234843987,215.6756140871785,189.828794776742
3.2699366032699366,2.65100373426586,3.026888949463083,144.79687060321285,26.71632331354389,125.62160212028267,152.27608593871244,215.8515965071571,190.51628092685527
3.3033033033033035,2.65100373426586,3.026888949463083,145.13101917632034,25.720736752200565,125.5175649640964,151.74954096044968,216.10024420249093,191.28772680949373
3.3366700033366703,2.65100373426586,3.026888949463083,145.16493079984812,24.506794699518807,125.38297997252302,151.14477514040925,216.39456799628272,192.21966472771192
3.3700367033700367,2.65100373426586,3.026888949463083,143.96296244545715,23.15442360401788,125.3362215937848,150.47915026156468,216.7461356608389,193.29451267179127
3.4034034034034035,2.65100373426586,3.026888949463083,141.79805144693884,22.339129263412257,125.41342001402536,149.7396498824062,217.04991649618512,194.5077465890116
3.4367701034367704,2.65100373426586,3.026888949463083,130.71371867986622,21.23798733356579,125.5893730483854,148.91954824069182,217.3450083569747,195.85681777235803
3.4701368034701368,2.65100373426586,3.026888949463083,120.71617536867257,20.70140318356387,125.88853791911616,148.06607552436128,217.5499702320992,197.2994326121784
3.503503503503504,2.65100373426586,3.026888949463083,113.10630338770666,19.94321170083513,126.35173086657284,147.23054231499003,217.57015074694897,198.83358081220595
3.5368702035368704,10.832464839837517,3.026888949463083,106.43730959139972,19.732852460595613,126.92795532721888,146.41156192903878,217.486121428126,200.4406844447889
3.5702369035702373,21.12980354311077,4.087009990073543,100.83484095738076,20.1304391742636,127.51855364406384,145.60952574000456,217.358169081475,202.13450475134132
3.603603603603604,32.92480036685368,4.087009990073543,96.42597356695134,21.40406210317653,128.17121202188036,144.8267829345787,217.1585969998592,203.8229319630704
3.6369703036369705,46.29569688116645,4.087009990073543,93.09385201460572,23.12936546827863,128.86742207259843,144.05445456626188,216.9103144266659,205.45470334465435
3.670337003670337,60.61719373404428,4.087009990073543,90.9462947348177,25.47281447121736,129.62618918178828,143.30522316097068,216.61860347104025,207.0345422670221
3.703703703703704,75.84390961015109,4.087009990073543,89.70863206929101,27.99308248998021,130.2168978708412,142.4918294764161,216.4390758470868,208.592362148148
3.737070403737071,91.91163042233408,4.087009990073543,89.37962184637799,31.20068320109154,130.96731628074994,141.73450446989264,216.08974118307992,210.00575355280725
3.770437103770437,108.72117525738872,4.087009990073543,90.14428253709042,34.95004473427733,131.66948590124758,140.8069527903324,215.7544765809305,211.5557307702226
3.803803803803804,126.35370486965404,4.087009990073543,91.52761107938022,39.2785332175344,132.48936462547934,140.00489800781796,215.2102603555292,212.9450292892324
3.8371705038371706,143.64273869770958,4.087009990073543,94.64881521021286,43.31833517800096,133.32990713255276,139.19639559836557,214.45944859264685,214.26416110758
3.8705372038705375,160.9366149158349,4.087009990073543,97.56077215461208,48.27444723000984,134.29305352948128,138.54713004472086,213.64744036189248,215.4432987877738
3.903903903903904,187.1133158352228,4.087009990073543,100.7206083080594,53.743098152906505,135.39632881228513,138.09338316787475,212.86826968728377,216.34234058483145
3.937270603937271,209.9937800497616,4.087009990073543,104.5220839263435,60.05532875141835,136.6363194527962,137.81607190682013,211.9899982225455,216.9730697426336
