Time,Left Shoulder Angle,Right Shoulder Angle,Left Elbow Angle,Right Elbow Angle,Left Hip Angle,Right Hip Angle,Left Knee Angle,Right Knee Angle
0.0,26.55088086216784,36.70031921169443,157.46073777347436,169.4955870148553,135.39166180753256,134.645526301755,198.8749021135372,203.9685143180509
0.0333778371161548,26.2636994480677,36.6456432728426,156.99729047180156,169.53467549472117,135.1396515325831,134.91987118131968,199.32699154363712,204.10554263767017
0.0667556742323097,26.004904558474493,36.60074321673925,156.55081350010735,169.56022123001878,134.854560090469,135.1282504969285,199.75343221362485,204.22216579547128
0.1001335113484646,25.77475982834648,36.56502359367079,156.12560816473723,169.57263727339168,134.54009873156798,135.2749581893395,200.15421565586752,204.3198652125972
0.1335113484646194,25.57352889264192,36.53788895392355,155.72597577203675,169.5723366774834,134.1999787062578,135.3642881993107,200.52933340273228,204.40012231019088
0.1668891855807743,25.401475386319056,36.51874384778392,155.35621762835137,169.55973249493746,133.83791126491616,135.40053446760018,200.87877698658627,204.4644185093955
0.2002670226969292,25.258862944336165,36.50699282553828,155.02063504002658,169.5352377783974,133.4576076579208,135.38799093496598,201.20253793979663,204.51423523135404
0.2336448598130841,25.145955201651496,36.502040437472985,154.72352931340794,169.49926558050677,133.0627791356494,135.33095154216613,201.5006077947306,204.55105389720947
0.2670226969292389,25.06301579322331,36.503291233874414,154.46920175484095,169.4522289539091,132.65713694847972,135.2337102299587,201.7729780837552,204.57635592810485
0.3004005340453938,25.01030835400987,36.51014976502894,154.2619536706711,169.3945409512479,132.24439234678948,135.10056093910168,202.0196403392377,204.5916227451832
0.3337783711615487,24.98809651896942,36.52202058122293,154.10608636724388,169.32661462516674,131.8282565809564,134.93579761035315,202.2405860935452,204.59833576958755
0.3671562082777036,24.99664392306024,36.53830823274276,154.00590115090483,169.24886302830913,131.4124409013582,134.74371418447117,202.4358068790448,204.5979764224609
0.4005340453938584,25.03621420124056,36.5584172698748,153.96569932799943,169.1616992133186,131.00065655837258,134.52860460221376,202.60529422810376,204.5920261249463
0.4339118825100133,25.107070988468653,36.58175224290541,153.98978220487322,169.0655362328387,130.5966148023773,134.29476280433897,202.7490396730892,204.5819662981868
0.4672897196261682,25.20947791970278,36.60771770212097,154.08245108787168,168.96078713951297,130.20402688375006,134.04648273160487,202.86703474636812,204.56927836332525
0.5006675567423231,25.3436986299012,36.63571819780786,154.2480072833403,168.8478649859849,129.8266040528686,133.78805832476945,202.959270980308,204.5554437415049
0.5340453938584779,25.509996754022165,36.66515828025244,154.49075209762464,168.72718282489808,129.46805756011062,133.52378352459078,203.0257399072757,204.54194385386864
0.5674232309746329,25.70863592702414,36.6954424997414,154.81498683707136,168.59915370889738,129.13209865585492,133.257952271828,203.06643305964008,204.53026012156124
0.6008010680907877,25.865827474080483,36.70706410091162,155.13056036851776,168.42745499009948,128.890512217592,132.99791854657062,203.02145960549527,204.57798672125332
0.6341789052069425,26.168492503428386,36.73911450217817,155.7909462967568,168.30201612784643,128.72846573475243,132.7587292303927,202.93955540904332,204.6401587473614
0.6675567423230975,26.56551059450388,36.79962529650183,156.62054079352993,168.19794408741905,128.58279535899277,132.5264566061065,202.8489258652704,204.7197582276711
0.7009345794392523,26.99335698234309,36.84255984068284,157.5225949939307,168.0492505579164,128.4514060742541,132.32018159838395,202.75183673917687,204.78857988977623
0.7343124165554072,27.422281028077787,36.88943487944042,158.4855534255883,167.9033154297479,128.35139513895854,132.12826767887023,202.62856690403524,204.85220781905832
0.7676902536715621,27.89275537408127,36.99261440256425,159.52333984865535,167.8270190840656,128.29060308541003,131.97460557323774,202.4838635650698,204.90787493787465
0.8010680907877169,28.39123731619912,37.095119687976045,160.5903302075957,167.75981839900365,128.26294387653175,131.8538579326204,202.3061044630612,204.9481978939492
0.8344459279038718,28.93867905219152,37.17931238018911,161.84247741636838,167.62870827210548,128.29689734546923,131.74172109585385,202.08283532985527,204.95615143407343
0.8678237650200267,29.468313444029977,37.24607633075202,163.13317515606695,167.5144284947126,128.34107559637533,131.6519224179059,201.89836128667852,204.98569170861413
0.9012016021361816,29.962773888259868,37.26525180952419,164.41547589418008,167.3409979590657,128.39048715787555,131.60213322572196,201.7568404072759,205.03573097354763
0.9345794392523364,30.42385530391429,37.29430722192029,165.67792020211616,167.23076632298742,128.50870348653677,131.6116985221052,201.5501713197281,205.0820966232162
0.9679572763684912,30.88061472691836,37.26748991688285,166.89670113629478,167.09548210352878,128.5897393612835,131.6893013385207,201.38054679656904,205.09491866799016
1.0013351134846462,31.339964745909,37.19593571632676,168.16478871487917,166.90726335076312,128.63403742805562,131.80163265253384,201.32952440504727,205.1219453097296
1.034712950600801,31.788015189892747,37.097762533539736,169.4299956325706,166.689491815642,128.61479019344688,131.96606870717284,201.33940514724225,205.1526182899233
1.068090787716956,32.15990966397914,36.95495046086221,170.64139538995698,166.45369273876616,128.6928485772218,132.17866238511706,201.23047029147745,205.1580101836869
1.1014686248331107,32.444424446819575,36.78574449829603,171.70875172007212,166.24230688756407,128.79192447192204,132.44655807511626,201.14242950438225,205.13813031470937
1.1348464619492658,32.62215080393843,36.62245647346335,172.78216637970218,165.99548436593682,128.7718009867834,132.7049661053816,201.2552278476101,205.1008835428588
1.1682242990654206,32.768519716820734,36.48791118780324,173.89800018877153,165.89551153134104,128.5993242661513,133.01539383496768,201.57108130050008,205.0082786925914
1.2016021361815754,32.900542551264415,36.30899870421485,175.04586524929613,165.84417905209656,128.32627268748772,133.35951030698416,202.0408002446642,204.92433114221024
1.2349799732977302,32.97997766457546,36.12168384721789,176.3048885045632,165.8423281419251,128.00594393515723,133.7010440521103,202.62251611207708,204.8635667527373
1.268357810413885,32.99476158807396,35.95136866217988,177.56533623252298,165.88839762340132,127.70415254128696,134.07391024966952,203.25604083986087,204.86011378081523
1.30173564753004,32.939268142401424,35.749121072937626,178.89658154291922,165.96112814959037,127.47787415969566,134.5255451292351,203.8796057901868,204.8546720305521
1.335113484646195,32.808296451276064,35.41571482580787,180.3675931776369,166.05723393969924,127.31184238756283,135.0486750292822,204.4884797638204,204.80929002994228
1.3684913217623498,32.60846264766356,35.0313412641565,181.70932030830463,166.10294335128663,127.11658970647844,135.59562456164392,205.1197156094661,204.7366703638733
1.4018691588785046,32.39609953551526,34.479910874340206,182.8924237981944,165.96085792727615,126.91496554642552,136.16442922401177,205.77313061229225,204.6390616221247
1.4352469959946594,32.182412544237856,33.73815259276462,183.9170953044925,165.64075735379106,126.6929393343423,136.722323969979,206.4238190992085,204.5276415048221
1.4686248331108145,32.006966110922235,32.92148832134978,184.8982172440628,165.1218685729639,126.43677475535829,137.28860881906834,207.0942039517501,204.3730730477211
1.502002670226969,31.701649659241497,31.96603967703903,185.4942295504768,164.53219108429147,126.11904799225572,137.89410115940532,207.7752838713413,204.1769447140985
1.535380507343124,31.26571851827419,30.82358270106731,186.15973087639188,163.81690650566844,125.84711401617872,138.5280076147465,208.3720676764301,203.9480015923739
1.568758344459279,30.660707896103435,29.38318334567455,187.0815651942996,162.87246425466,125.57239467292048,139.1677323040222,208.93739718689503,203.70871770015464
1.6021361815754338,29.67479250289432,27.853930080032587,188.4162529136024,162.23501168587313,125.31692496580251,139.81680553097846,209.4576900199108,203.4584827507261
1.6355140186915886,28.39165844277348,26.326760026435288,189.6620826082261,161.9013422265416,125.09388333203653,140.46295567455775,209.91187964253004,203.2008658014787
1.6688918558077437,26.85197526305473,24.766048190633136,191.00165035545112,161.27695152691814,124.92247508852516,141.10102788032458,210.3046929866326,202.91153482795505
1.7022696929238983,25.083614260744444,23.13963855058219,192.603956351316,160.43119358936715,124.71701387904712,141.69830486926136,210.69785600631084,202.60832245503727
1.7356475300400531,23.368610222543573,21.442991997367844,196.0400800699178,159.28179395233755,124.44315575194445,142.27000982883231,211.113391820136,202.28432793300712
1.7690253671562082,21.69988096500968,19.61457388108871,198.9170428720324,157.65209596253442,124.13206611557425,142.8179695562484,211.53958254812,201.9554169749035
1.802403204272363,20.16024366640931,17.590780037940604,201.5004511566285,155.79860149695477,123.7784316902026,143.34158336565892,211.97244512923703,201.58966537111093
1.835781041388518,18.42918097013036,15.522938384748311,203.2493735820399,153.50762836120532,123.40839728257704,143.85920908412675,212.3697664403764,201.1574132251841
1.8691588785046729,16.87360975226935,13.26704898498952,204.344049595352,151.20209163425886,123.04080284615485,144.36533670997198,212.7247754682623,200.6813539108796
1.902536715620828,15.63859158997473,11.230330402085912,204.8688421827515,150.48517667334306,122.6694822952828,144.83855379121698,213.0429597011339,200.17979231911227
1.9359145527369823,14.529860643507655,8.967715048278047,204.71765248593223,146.99281143810626,122.29517636788928,145.2649164909272,213.3197691121157,199.64092132617057
1.9692923898531367,13.693438186558698,7.331989502713812,203.88673843599605,143.26381913270802,121.89009000953048,145.63051027963664,213.5865136131121,199.0885671712391
2.0026702269692924,13.110083909176144,6.098710165708848,202.59081010443504,138.69087187343388,121.44083543206048,145.94150996254697,213.86036359544283,198.56034243263124
2.036048064085448,3.2721647949446764,5.174966301506552,200.51121918426853,133.736412642138,120.9812652669586,146.2302312244554,214.134676628212,198.02955075670172
2.069425901201602,-2.834380338319585,4.5667235418476375,197.82736911558112,128.25858624048516,120.53571829118872,146.49430371296197,214.3692445756472,197.475313324754
2.102803738317757,-5.631191684290375,4.136990440531795,194.7065674445901,122.37034105096998,120.04495032097016,146.7002439681988,214.70029524479224,196.9218849178575
2.136181575433912,-5.648167991669209,3.965136408867743,191.3216030611249,116.25610887332196,119.58627182617604,146.81511122164093,215.0592301304696,196.40272239118545
2.1695594125500666,-3.031465405115121,3.965136408867743,187.69076942076245,110.11374793198802,119.17263824913748,146.86049782359692,215.35493703415727,195.88750701403217
2.2029372496662214,1.8874760746209311,3.965136408867743,183.99780223130665,104.02017958793316,118.82168384123698,146.83936602052262,215.63721819621435,195.38056984478388
2.236315086782376,1.8874760746209311,3.965136408867743,180.29761786964576,97.95363739797406,118.3557496621396,146.7887573372325,216.13972199956964,194.90978265096783
2.2696929238985315,1.8874760746209311,3.965136408867743,176.64992703141408,91.77883986516797,117.80403378039736,146.6967337897734,216.78458534153447,194.49016356423505
2.3030707610146863,1.8874760746209311,4.241350972905957,173.02932646061794,85.75916407111288,117.24512119999488,146.5743397422262,217.3908468566018,194.14015037809577
2.336448598130841,1.8874760746209311,4.918943737478928,169.4105523777077,80.04327317847377,116.79646251665162,146.4393374756602,217.90852546843905,193.85173892415392
2.369826435246996,1.8874760746209311,5.850682357402882,166.079249569472,74.70182456839775,116.46022301865236,146.30119117251115,218.3294016487397,193.6253626381502
2.403204272363151,1.8874760746209311,7.020514909063059,162.9382577099871,69.76256682108604,116.24772710230178,146.1980609741212,218.64284563637577,193.4416398805327
2.4365821094793056,1.8874760746209311,8.594744355717282,160.01677995085987,65.54077645058702,116.08129580196542,146.11101758216782,218.90661144838472,193.2409499379005
2.4699599465954605,1.8874760746209311,10.441687432047676,157.33077051146273,62.0004551975917,115.92153557098946,145.9877551580117,219.16076626294125,193.0501494643657
2.503337783711616,1.8874760746209311,4.07052664458955,154.7874893919709,59.00848180426648,115.75257614067232,145.81202703716232,219.42482357777885,192.9105487941757
2.53671562082777,1.8874760746209311,0.8314215548225379,152.49549141272672,56.39876371166986,115.63697687625506,145.6274102276286,219.65752129089017,192.8180186458964
2.570093457943925,1.8874760746209311,0.2901339475999904,150.6032157126996,54.43134516473952,115.55011130209928,145.4409780021498,219.85179531970687,192.75939040229167
2.60347129506008,1.8874760746209311,2.224248805566126,149.2942443658605,53.22708996410762,115.4786881987744,145.25811854129844,220.0379180735171,192.7304603556726
2.636849132176235,1.8874760746209311,2.224248805566126,148.45134497977307,52.67934942868446,115.41070235353766,145.08322399532315,220.20480115924607,192.71237994821144
2.67022696929239,1.8874760746209311,2.224248805566126,148.49541173061093,52.736484361257496,115.38302935489824,144.90497643969985,220.32257433964207,192.7116771267256
2.7036048064085447,1.8874760746209311,2.224248805566126,149.40107075656513,53.423132429153874,115.37483977622942,144.74078969347428,220.41858450892573,192.72844432487705
2.7369826435247,1.8874760746209311,2.224248805566126,150.93612156543844,54.90006682993297,115.41483802605096,144.60345014673686,220.4564780351255,192.74685165809552
2.7703604806408544,1.8874760746209311,2.224248805566126,152.8173125278432,56.56572840082781,115.49238975037176,144.4832750137445,220.4374938017256,192.7686263909698
2.803738317757009,1.8874760746209311,2.224248805566126,155.40894944089908,58.11583296462446,115.59422916354649,144.3808712805586,220.36760394674383,192.7834850868808
2.837116154873164,1.8874760746209311,2.224248805566126,158.63944944566444,59.94657566863693,115.6326539298241,144.2806633631538,220.31973929614017,192.81076082855245
2.870493991989319,1.8874760746209311,2.224248805566126,162.21502375333546,61.82163174933562,115.6403887520914,144.19738804373378,220.31072347992875,192.84299436343773
2.9038718291054737,1.8874760746209311,2.224248805566126,163.96615194657912,63.75386237169266,115.65794791680288,144.1223210191511,220.30351970373496,192.8946766091332
2.937249666221629,1.8874760746209311,2.224248805566126,165.6345740877491,66.03713855460984,115.70399671334324,144.07551807964873,220.2851120063025,192.93434523253592
2.970627503337784,1.8874760746209311,2.224248805566126,166.7377245635307,68.25816701708389,115.79865663778725,144.05526112682517,220.2104732888241,192.95938294776937
3.004005340453938,1.8874760746209311,2.224248805566126,167.78386144302135,70.5650862224671,115.92357352592065,144.03443732141469,220.0888483284645,193.0043535761308
3.037383177570093,1.8874760746209311,2.224248805566126,168.61779972728337,72.52249675217168,116.0686293983657,144.01901671181778,219.9318188907397,193.0440663524459
3.0707610146862483,1.8874760746209311,2.224248805566126,169.00100478747464,71.71000106903767,116.2044889247393,144.03443423093384,219.7811357199057,193.0103264545987
3.104138851802403,1.8874760746209311,2.224248805566126,169.12783463434616,72.31741603439592,116.35703013749752,144.0326628575446,219.59594425649576,192.9835586971608
3.137516688918558,1.8874760746209311,2.224248805566126,169.17030080208102,72.27940849681463,116.5625796346444,144.03345987890728,219.36922023195265,192.9581359263851
3.170894526034713,8.989740465596032,2.224248805566126,168.80404722324246,72.30472090106636,116.79832376848007,144.04563368741918,219.11531567007063,192.9507489319554
3.204272363150868,18.17038129305085,2.224248805566126,168.44629971544208,71.96969732364448,117.02814596312083,144.0679671818953,218.87930766526284,192.88932605772763
3.2376502002670224,29.284834561215483,2.224248805566126,168.03094774631788,71.59438519458311,117.21018044634124,144.06580934146874,218.68783670166644,192.83097355567523
3.2710280373831773,42.0183138204856,2.224248805566126,167.52711544485248,71.07506929888542,117.35308704721449,144.09559750663917,218.5296167691353,192.7256680047
3.3044058744993325,56.031483988795024,2.224248805566126,166.86169888687982,70.42672375019264,117.47760267429892,144.2080010805952,218.397714207164,192.53368408618107
3.337783711615488,71.25129116637294,2.224248805566126,166.09916869170624,69.77147459347202,117.60133869355955,144.3678005849113,218.28535655356785,192.318579782339
3.371161548731642,87.36022225068616,2.224248805566126,165.23139230334962,69.10084808613347,117.69792586539286,144.56483071417475,218.18703002151767,192.0535896390984
3.404539385847797,104.00950300299615,2.224248805566126,164.2221691497862,68.55324497353706,117.74283851825922,144.83062617765523,218.1466293720917,191.70225966608865
3.437917222963952,121.0592539496216,2.224248805566126,163.5141414703426,68.19535517516603,117.76139432175846,145.0550448662252,218.1741702805648,191.4954505052704
3.4712950600801067,138.30578749341117,2.224248805566126,162.81061157217107,67.95906790303576,117.746256756276,145.2856185351042,218.2475767711553,191.313651808643
3.504672897196261,155.51677359687508,2.224248805566126,162.35943857168496,67.8272727077469,117.65365314225028,145.42854937777062,218.3519549969336,191.28477549917056
3.5380507343124163,172.40437534714357,2.224248805566126,162.313047074904,67.77145989320515,117.50192969089166,145.4368495978397,218.4756284549597,191.46031530463625
3.571428571428571,188.6525431426177,2.224248805566126,162.9228324123952,68.07791894040251,117.28133175229983,145.26361276507393,218.63151058210687,191.91786840190707
3.604806408544726,204.1328257570026,2.224248805566126,164.9679268374277,68.35120179746662,116.99396060864136,144.91259541386137,218.7762424465714,192.6850643438169
3.638184245660881,218.60942927020892,2.224248805566126,168.1731677244392,68.35109027099237,116.55394477209752,144.3840870520394,218.97223499023755,193.79875580754825
3.671562082777036,231.95957505222373,2.224248805566126,170.0231737525146,66.92852331513447,116.09298818856146,143.60762017408788,219.19503161110623,195.2358997812782
3.704939919893191,244.29162835620463,2.224248805566126,162.1162415864529,64.5953012091072,115.49429543618808,142.61020254679278,219.40431431641653,196.97979616036383
3.7383177570093458,255.4844827628361,2.224248805566126,157.17818987302272,63.9741780842274,114.90047426911134,141.3996755841255,219.74018758875405,198.9754879359866
3.7716955941255006,265.4067412177472,2.224248805566126,153.63630213943338,63.20782618622652,114.37930731031082,140.09728552582433,220.0839632025486,201.23138989414252
3.805073431241656,274.0062469110375,2.224248805566126,150.94730819536002,62.57134067372806,113.89300339139072,138.7128337314616,220.4757197867316,203.6596909735625
3.83845126835781,280.9316518305262,2.224248805566126,151.25562606658988,61.69153317421954,113.33027644305724,137.19539355527007,220.96649186552472,206.32037746823104
3.871829105473965,286.0212161450601,2.224248805566126,153.22663449755493,60.81851860265891,112.8277841056704,135.65377129169718,221.44875406748048,209.06225918337373
3.90520694259012,289.0924579755021,2.224248805566126,155.43913620679075,60.12397881334826,112.31377968297504,134.1589898785558,221.9705709612197,211.78029112582104
3.9385847797062734,290.4109561894518,2.224248805566126,157.58697674317776,59.63025380896581,111.72675908989729,132.71262581598384,222.4139020965449,214.4692700487101
