Time,Left Shoulder Angle,Right Shoulder Angle,Left Elbow Angle,Right Elbow Angle,Left Hip Angle,Right Hip Angle,Left Knee Angle,Right Knee Angle
0.0,108.19164192016662,50.312001195329984,167.6544581717861,164.1809445279157,136.34021256781477,136.09007621201246,218.33033589802395,208.48533468384736
0.0333667000333667,69.32683167496722,42.27814870868916,165.5004106914959,166.35095069472644,135.98982660771424,135.76259853879105,216.4816734053894,209.04785434710948
0.0667334000667334,37.58605143709654,35.35885864862895,163.95411751291843,167.65020411905107,135.72555748217871,135.62366908720716,214.99473952548456,209.3973714344829
0.1001001001001001,12.509462408048364,29.492757435641312,162.95563328335805,168.13276456072967,135.54104967399007,135.65681177859622,213.84399651410635,209.5526479195415
0.1334668001334668,-6.362774210683554,24.61847149021818,162.44501265011894,167.8526917796024,135.42994766593029,135.8455505342936,213.0039066270516,209.53244577585903
0.1668335001668335,-19.49049721760541,20.67462723285152,162.36231026050552,166.86404553550935,135.38589594078127,136.17340927563478,212.4489321201172,209.35552697700925
0.2002002002002002,-27.333545411223422,17.599851084033254,162.64758076182204,165.22088558829063,135.4025389813249,136.62391192395518,212.1535352491,209.040653496566
0.2335669002335669,-30.35175759004379,15.332769464255342,163.24087880137282,162.97727169778636,135.47352127034318,137.1805824005902,212.09217826979685,208.60658730810297
0.2669336002669336,-29.004972552572767,13.81200879400975,164.0822590264621,160.18726362383666,135.592487290618,137.82694462687527,212.23932343800467,208.07209038519403
0.3003003003003003,-23.75302909731652,12.976195493788405,165.11177608439425,156.90492112628164,135.7530815249313,138.5465225241458,212.5694330095204,207.45592470141293
0.333667000333667,-15.055766022781285,12.76395598408326,166.26948462247353,153.18430396496137,135.948948456065,139.32284001373728,213.0569692401407,206.77685223033345
0.3670337003670337,-3.373022127473305,13.113916685386258,167.49543928800423,149.07947189971603,136.17373256680108,140.13942101698507,213.6763943856626,206.05363494552932
0.4004004004004004,10.835363790101256,13.964704018189352,168.7296947282907,144.64448469038575,136.4210783399214,140.9797894552246,214.4021707018829,205.3050348205745
0.4337671004337671,27.10955293143617,15.254944402984512,169.91230559063715,139.9334020968106,136.6846302582079,141.82746924979128,215.2087604445986,204.54981382904256
0.4671338004671338,44.98970649802512,16.923264260263636,170.98332652234797,135.00028387883066,136.95803280444252,142.66598432202056,216.07062586960643,203.80673394450736
0.5005005005005005,64.01598569136198,18.90829001051873,171.8828121707274,129.89918979628612,137.23493046140723,143.47885859324788,216.9622292327033,203.09455714054275
0.5338672005338673,83.72855171294067,21.14864807424169,172.55081718307977,124.68417960901706,137.5089677118839,144.24961598480866,217.8580327896861,202.43204539072244
0.5672339005672339,103.66756576425615,23.582964871924712,172.92739620671097,119.40931307686482,137.77378903865556,144.96178041803947,218.73249879635355,201.8379606686217
0.6006006006006006,117.67986753227936,25.727903880681403,170.8373954931299,112.38108576210097,137.40415420769753,144.83603035163995,220.27554576060965,202.0408719135882
0.6339673006339673,130.01487185177632,28.05618548067721,167.2785783114393,109.2851161218214,137.11248984928235,144.589059767757,221.35917603059704,202.57748176828224
0.6673340006673341,140.87783004818417,29.879686684068304,163.8417922434696,107.38566558931764,136.97878313713105,144.54762823508867,221.9532369517294,203.1724196361317
0.7007007007007008,150.36761016169598,31.44531337303923,161.22320982495208,104.63354381084116,136.89284155951083,144.55346422727445,222.1509611885759,203.729996998668
0.7340674007340674,157.61325790826254,32.80675302670726,159.25557216657776,100.68201571755289,136.9647807183058,144.4621446843178,221.90587516148688,204.25124790529907
0.7674341007674341,162.3398554792033,34.00048018914795,157.50227694514328,96.59380654360506,137.11217119635015,144.43920428883422,221.3585290407383,204.6737341001635
0.8008008008008008,165.27955755167713,35.00023764715679,155.40969888755112,92.6371367879628,137.3645419901368,144.43183126813787,220.47155304506632,205.0227484948834
0.8341675008341676,167.08599436405325,37.32725431001325,152.5244130045279,86.77132847630556,137.67683779216097,144.363845414404,219.3946217534449,205.29430840694445
0.8675342008675342,166.49992138981167,29.6551911416919,148.77702659588465,77.11218105956965,138.12532266824238,144.24876138737875,217.98973200263407,205.4275667429984
0.9009009009009008,156.50777962958406,24.58576337194968,144.19085180069328,69.48637590674996,138.59840931119473,144.08662716191716,216.4506526593519,205.55339692664884
0.9342676009342676,148.5246311004271,22.4109749878262,139.10950321802903,62.887638068328016,139.12651995495253,143.87020829603492,214.67687407536903,205.58032029930683
0.9676343009676344,141.77173846771697,21.86553450171564,134.09787261561252,58.175842175484334,139.6502602257137,143.70430735251833,212.7379760548952,205.44174703068725
1.001001001001001,135.81319565611463,23.317696006477448,129.24878255396007,55.14053034506328,140.01674358804766,143.650973101829,211.010610675704,205.17821945903336
1.0343677010343677,130.29427173990916,26.43376907310384,125.32905876125378,53.488934893346425,140.72241853574388,143.70460123900162,208.76535229494425,204.88248613511763
1.0677344010677343,125.0881049065575,30.770516266571416,122.19146228839764,53.48550737680086,141.52389886973367,143.94097706955927,206.16323403182608,204.5583208621485
1.1011011011011012,119.77110163138856,36.7513806562261,120.83551710412168,55.01780150889586,142.26689422138534,144.2713857709629,203.3306243462061,204.1523722226305
1.1344678011344678,122.75100615573236,52.54244012438635,119.25756515423464,62.12946688098998,142.8857250962177,144.7446765696984,200.4274155284857,203.68080676065725
1.1678345011678346,124.49051907291243,66.73454651295803,116.15416365236923,69.68863269930516,143.76477589303192,144.96861370981972,198.0336993101644,202.68932657361592
1.2012012012012012,123.02616516442473,78.7932466491424,111.75909170767116,80.35159132455978,144.5886709323491,145.3277242234152,195.70477593497543,201.6085940145298
1.234567901234568,118.51644871422836,89.52486948935776,109.87160854832965,84.24063123269549,145.6674053044071,145.875029293405,193.3948524894191,200.2797747410765
1.267934601267935,111.62654116752788,98.77145034732273,106.74371390783816,88.90896322062281,146.6696048271447,146.13419256193245,191.25672699510235,198.83995390863225
1.3013013013013013,116.58886136481452,113.139477401853,103.36553240096455,95.09245972613289,147.97538719140292,146.88860300229786,188.81225650146985,196.89552172070884
1.334668001334668,121.9819163069503,126.81385981187051,99.82214700045142,101.0358328951574,149.24721571542003,147.67334377449674,186.49872327332528,194.879786248432
1.3680347013680347,127.55816248406428,139.4221258809826,96.09249024447544,106.56936101117282,150.46107032467225,148.47645354270222,184.3481732580826,192.81845755878572
1.4014014014014016,133.07005638628698,150.59180391279756,92.15549467121448,111.52332235765655,151.59293094463703,149.28597097108874,182.39265240315743,190.737245718756
1.4347681014347682,138.2700545037491,159.95042221092365,87.99009281884643,115.72799521808602,152.61877750079174,150.0899347238307,180.66420665596536,188.6618607953285
1.4681348014681348,142.9106133265812,167.12550907896886,83.57521722554915,119.01365787593836,153.51458991861384,150.87638346510255,179.19488196392194,186.6180128554891
1.5015015015015016,146.74418934491422,171.7445928205421,78.88980042950055,121.2105886146912,154.25634812358072,151.6333558590786,178.01672427444282,184.6314119662236
1.5348682015348682,149.52323904887882,173.435201739251,73.91277496887848,122.14906571782166,154.82003204116978,152.34889056993333,177.16177953494355,182.7277681945178
1.5682349015682349,151.00021892860548,171.82486413870436,68.6230733818608,121.65936746880736,155.18162159685846,153.0110262618411,176.6620936928397,180.9327916073576
1.6016016016016017,150.92758547422503,166.54110832250987,62.99962820662543,119.57177215112551,155.31709671612418,153.60780159897635,176.54971269554693,179.27219227172878
1.6349683016349683,149.05779517586785,157.21146259427664,57.021371981350185,115.7165580482534,155.20243732444433,154.12725524551348,176.85668249048078,177.77168025461714
1.6683350016683351,145.1433045236649,143.46345525761214,50.66723724421297,109.92400344366852,154.81362334729636,154.55742586562684,177.61504902505683,176.45696562300856
1.7017017017017018,138.9365700077467,124.92461461612504,43.91615653339167,102.0243866208483,154.12663471015765,154.88635212349092,178.8568582466907,175.3537584438888
1.7350684017350684,130.19004811824408,101.22246897342362,36.74706238706413,91.84798586326986,153.11745133850565,155.10207268328006,180.61415610279795,174.4877687842437
1.7684351017684352,118.65619534528751,71.98454663311617,29.138887343408243,79.22507945441072,151.76205315781775,155.19262620916868,182.91898854079423,173.8847067110591
1.8018018018018016,104.08746817900771,36.83837589881075,21.070563940601915,63.98594567774821,150.0364200935714,155.1460513653312,185.80340150809508,173.57028229132078
1.8351685018351689,86.23632310953553,-4.588514925883999,12.52102471682295,45.960862816759686,147.91653207124392,154.950386815942,189.29944095211607,173.57020559201462
