Time,Left Shoulder Angle,Right Shoulder Angle,Left Elbow Angle,Right Elbow Angle,Left Hip Angle,Right Hip Angle,Left Knee Angle,Right Knee Angle
0.0,25.199211466283906,33.1048468324816,167.87761739561327,177.2803916335898,138.41425729218537,134.9412888955335,203.88739846679508,203.9494018736188
0.0333667000333667,25.67824694957,32.54122805860008,168.02099085604968,176.08685181156707,138.3226187296229,134.88753340245125,204.43033723008207,203.75099506083365
0.0667334000667334,26.104197579709776,32.074760034786344,168.05658741058227,175.07136736117357,138.2416103364959,134.83397108649186,204.9323839189164,203.5887920310764
0.1001001001001001,26.48042965242304,31.696879060362416,167.9944230064198,174.21897192683966,138.17100319715115,134.78220213692498,205.39370792429543,203.4600528601911
0.1334668001334668,26.81030946342956,31.399021434650297,167.84451359077096,173.5146991529958,138.11056839593536,134.7338267430201,205.81447863721675,203.3620376240217
0.1668335001668335,27.09720330844915,31.17262345697199,167.6168751108445,172.9435826840724,138.06007701719523,134.69044509404682,206.1948654486777,203.29200639841227
0.2002002002002002,27.344477483201583,31.00912142664951,167.32152351384914,172.49065616449988,138.01930014527755,134.65365737927465,206.5350377496759,203.2472192592068
0.2335669002335669,27.55549828340666,30.89995164300485,166.96847474699362,172.14095323870862,137.988008864529,134.62506378797315,206.83516493120865,203.22493628224936
0.2669336002669336,27.73363200478417,30.836550405360043,166.56774475748665,171.87950755112905,137.96597425929633,134.6062645094119,207.0954163842735,203.22241754338395
0.3003003003003003,27.88224494305389,30.81035401303708,166.12934949253696,171.69135274619163,137.95296741392625,134.59885973286038,207.3159614998679,203.2369231184546
0.333667000333667,28.00470339393564,30.81279876535796,165.6633048993533,171.5615224683267,137.9487594127655,134.6044496475882,207.4969696689893,203.2657130833053
0.3670337003670337,28.10437365314919,30.835320961644697,165.1796269251444,171.47505036196475,137.9531213401608,134.6246344428649,207.63861028263523,203.30604751378013
0.4004004004004004,28.184622016414327,30.869356901219305,164.68833151711894,171.41697007153613,137.96582428045892,134.66101430796004,207.74105273180305,203.35518648572307
0.4337671004337671,28.248814779450854,30.90634288340379,164.19943462248568,171.3723152414713,137.98663931800655,134.71518943214315,207.8044664074903,203.41039007497807
0.4671338004671338,28.30031823797855,30.93771520752016,163.72295218845338,171.32611951620066,138.01533753715046,134.7887600046838,207.82902070069443,203.4689183573894
0.5005005005005005,28.342498687717217,30.95491017289041,163.26890016223072,171.26341654015462,138.05169002223732,134.88332621485154,207.8148850024129,203.52803140880084
0.5338672005338673,28.37872242438664,30.949364078836563,162.84729449102645,171.1692399577636,138.0954678576139,135.0004882519159,207.7622287036432,203.58498930505647
0.5672339005672339,28.412355743706826,30.912513224680907,162.4681511220506,171.0286234134595,138.14644212762806,135.1418463051475,207.6712211953844,203.63705212200216
0.6006006006006006,28.5181541223412,30.896986403309537,161.75760221413142,170.82103201637477,138.16146174613266,135.30697185556534,207.4497483444097,203.66734876535028
0.6339673006339673,28.63639548480773,30.711117742339976,161.09434559223266,170.29662638015822,138.17268764069178,135.5063873189931,207.21250410412017,203.68591229956448
0.6673340006673341,28.596012222459965,30.648092717583268,160.30161971458958,170.0166704179819,138.23822763815278,135.7551848475307,206.92697335412555,203.66669989209868
0.7007007007007008,28.7074218015126,30.45038169221284,160.09119606002514,169.3348156743789,138.34699003934065,136.04512670607764,206.5645119657568,203.6299124610673
0.7340674007340674,29.01824826920472,30.086156224630333,160.7350496848989,168.43110261417763,138.46893312554622,136.38370367536,206.19024242388764,203.56740468461075
0.7674341007674341,29.724513993483008,29.63164207323685,161.43410540553432,167.73302827344733,138.49886834805804,136.77459013028667,205.82314802036888,203.47932729885267
0.8008008008008008,30.29063315856247,29.03046133592485,160.23370095668383,166.84783580200997,138.65942658163488,137.21166311006826,205.43172290326945,203.3623456810286
0.8341675008341676,30.708807702677525,28.224626741842297,165.15094072845497,165.67723004330455,138.86713981746192,137.69152783839797,205.033107966685,203.22192837836525
0.8675342008675342,31.06805123689375,27.202596124534416,165.22880462883845,164.51864753284008,139.039360291474,138.1833013368693,204.6820893428373,203.0621458590829
0.9009009009009008,30.602147509644468,25.948502424367337,173.3163742965409,164.50247898048403,139.16018078047,138.69227341978424,204.3404458579596,202.89193432325052
0.9342676009342676,30.323441497209995,24.58622947578485,176.314069339382,163.29539823481326,139.28815413228077,139.22748195846165,204.00753809683408,202.71586838882604
0.9676343009676344,30.292502383130312,23.173363809899065,178.69082584024076,161.59957598042735,139.48185292304785,139.78235906189798,203.6189866039104,202.51001669794096
1.001001001001001,30.42244562862985,21.37317423777474,180.19193376514707,159.5452229899904,139.684293357828,140.3455216045051,203.26741249297208,202.2917850683971
1.0343677010343677,30.43021556090177,19.75760794278307,180.8216247109037,157.14737645877088,139.87608230301237,140.91366706846338,202.98808775187229,202.0824330665391
1.0677344010677343,29.7251261570027,18.049388177644023,179.9728617438897,154.50281410789384,140.0694399288003,141.4831017916787,202.75969184756264,201.8829641660661
1.1011011011011012,28.99096372272156,16.576076538067255,179.15505930123055,151.25951728411374,140.23421454028227,142.04932380281008,202.6054625740664,201.69884482597
1.1344678011344678,28.070997018421647,14.901086743707628,177.59697856200904,147.522244102338,140.36937402872516,142.6099366769936,202.5043119725074,201.52052371266515
1.1678345011678346,26.69118369139885,12.749017437392055,174.9130076396884,143.81672641344474,140.49748979647546,143.17137956262548,202.4632575054329,201.3673341199496
1.2012012012012012,25.298502993322803,10.295585201603586,171.8863064581857,140.41834038135593,140.60543036241558,143.69671541437805,202.50005575480776,201.25073884405663
1.234567901234568,23.892218185459,8.196540741404513,168.38546014410252,136.58824126472635,140.7161880099673,144.1926150447894,202.61592796457128,201.1516034247747
1.267934601267935,23.1553516228592,6.390670749323087,160.3088024057705,132.23684731762594,140.846177558446,144.68430775837936,202.80437757814465,201.04154163520235
1.3013013013013013,11.92549028552423,4.821393388047022,155.80215496484433,127.4294543608498,140.9668732730699,145.16550786801812,203.0929734641638,200.91554354304992
1.334668001334668,4.070463183211237,3.696800256862155,151.25184669993112,122.33162880559706,141.08371264293666,145.62864757791385,203.4802625103068,200.76944785754932
1.3680347013680347,-0.4249823221958868,2.9417250658480567,147.05819078364462,116.76353331556584,141.19075438207977,146.0821799700122,203.92632311223664,200.5980866945017
1.4014014014014016,-0.4249823221958868,2.5762427158021874,143.24704792656692,111.11466347699805,141.27106826377113,146.50231447011288,204.4295467371854,200.4099872502764
1.4347681014347682,-0.4249823221958868,2.5762427158021874,139.52640484899118,105.50510727689614,141.32895482624252,146.9108048172876,204.9673771567744,200.2100533583273
1.4681348014681348,-0.4249823221958868,2.5762427158021874,135.9142472100165,99.9128005554562,141.34902038810142,147.3231040339133,205.52618286885496,199.99832944566228
1.5015015015015016,-0.4249823221958868,2.5762427158021874,132.21925431381337,94.56048609843624,141.35119939946406,147.70982246109378,206.1332995884504,199.77957853917627
1.5348682015348682,-0.4249823221958868,2.5762427158021874,128.97218833378128,89.51263463872198,141.3343466910681,148.05486394946672,206.74976514554297,199.5771545881725
1.5682349015682349,-0.4249823221958868,2.5762427158021874,125.99260095179444,84.64862035338257,141.3238021077742,148.36793754658802,207.33730454981168,199.37511207470945
1.6016016016016017,-0.4249823221958868,2.5762427158021874,123.43918371757294,80.17223404617239,141.36228671536765,148.64548791228256,207.85853911124485,199.1586033008271
1.6349683016349683,-0.4249823221958868,2.5762427158021874,121.50592765747707,76.19692481420479,141.40153141192891,148.90497023316073,208.36890664501664,198.932218304272
1.6683350016683351,-0.4249823221958868,2.5762427158021874,120.08316430312183,72.61472625397286,141.4347118801102,149.16361173377737,208.8562349603543,198.6653162971985
1.7017017017017018,-0.4249823221958868,2.5762427158021874,119.35879250217177,69.62192434337813,141.50461856877817,149.434093799731,209.27193784170024,198.33186001898648
1.7350684017350684,-0.4249823221958868,2.5762427158021874,119.22658246313058,67.07290630949348,141.53730536781023,149.69161329383618,209.71171298271264,198.0106252102704
1.7684351017684352,-0.4249823221958868,2.5762427158021874,120.22661060954812,65.23548295774043,141.60059862816345,149.97590629119375,210.1816788710153,197.6443728039223
1.8018018018018016,-0.4249823221958868,2.5762427158021874,122.37662028545154,64.10626040172943,141.66989923653497,150.2846425035883,210.69977248082424,197.18954873225823
1.8351685018351689,-0.4249823221958868,2.5762427158021874,125.9200310162716,63.14820311177778,141.66753443024896,150.5341035628435,211.2872521471957,196.7992055923158
1.8685352018685355,-0.4249823221958868,2.5762427158021874,130.2520232423811,63.13512368415249,141.63299288337328,150.74068115333424,211.9223436580236,196.47293927274345
1.901901901901902,-0.4249823221958868,2.5762427158021874,135.0894909204992,63.89462223921527,141.5955728378472,150.91810698345114,212.59824118614443,196.19680649576048
1.9352686019352687,-0.4249823221958868,2.5762427158021874,140.98140486692824,64.9317039069974,141.62967198787277,150.98674396059437,213.2639064608016,196.0889570013217
1.968635301968636,-0.4249823221958868,2.5762427158021874,150.53162733662938,66.62817092244211,141.48439660628372,151.00458520715142,214.03095330474807,195.98679391815824
2.002002002002002,-0.4249823221958868,2.5762427158021874,154.64833261144656,69.08556460036225,141.2345141464283,150.90898812056338,214.9131753620075,195.9623895859487
2.035368702035369,-0.4249823221958868,2.5762427158021874,163.8565741972247,71.76939329741818,140.97112013259508,150.66387581294478,215.67503421534207,196.1478924347041
2.0687354020687354,-2.013608007749224,2.5762427158021874,164.56643052002647,73.29106600400469,140.66976602673557,150.348218383579,216.34285989720968,196.4643056019372
2.1021021021021022,-1.2688868542658804,2.5762427158021874,167.88991233404244,75.36320074769279,140.28462051572015,149.9146998612172,216.9028733815772,196.9905650008396
2.135468802135469,1.8807951961802625,2.5762427158021874,170.137740563513,77.48603507314019,139.77946753436842,149.36037684056356,217.4247909230692,197.73891509119093
2.1688355021688355,1.8807951961802625,2.5762427158021874,172.09153417648804,79.5951407440564,139.12160797675637,148.7229203679998,217.85072218340724,198.6381507430473
2.2022022022022023,1.8807951961802625,2.5762427158021874,173.1198493148713,81.49137961512614,138.3787474359085,147.96606721744243,218.17170124637133,199.74360332896083
2.235568902235569,1.8807951961802625,2.5762427158021874,175.81560467662783,82.41538422697447,137.51436623019538,147.13475714059595,218.25370028372828,201.11741718591733
2.2689356022689355,1.8807951961802625,2.5762427158021874,174.22935179115825,84.8871648201756,136.4917264657295,146.22068449156268,218.5781341481225,202.60346948866467
2.3023023023023024,1.8807951961802625,2.5762427158021874,171.83206636819585,86.60398883353993,135.47978010167108,145.22639818432168,218.8992743892101,204.2190634814812
2.335669002335669,1.8807951961802625,2.5762427158021874,172.5813463110882,85.37289947358065,134.39646720252915,144.21185135994088,219.3643343854132,205.9010371532732
2.369035702369036,1.8807951961802625,2.5762427158021874,172.47425638278025,83.33929986028907,133.3178149635565,143.16941285127194,220.03107039096813,207.69424064994365
2.4024024024024024,1.8807951961802625,2.5762427158021874,163.25536649359108,81.3166064114443,132.37125497102195,142.11554023716982,220.51450180748927,209.52974472978823
2.4357691024357693,7.349658579292646,2.5762427158021874,162.86432403968792,79.28969316930875,131.5657872316659,140.9920420300432,220.94543656118915,211.47174614879023
2.469135802469136,14.658426451471309,2.5762427158021874,161.35331762191,77.89857357017742,130.78410657567724,139.90713030419874,221.3653826443933,213.4750173929785
2.5025025025025025,23.779288939660184,2.5762427158021874,160.23474264659453,76.70268613976222,130.17124358005907,138.84503800764972,221.38062442546249,215.4663604199486
2.5358692025358693,34.33520888656721,2.5762427158021874,160.18651893727557,75.28090190639482,129.46109535873498,137.67012199322704,221.1794069757065,217.6349631379648
2.569235902569236,46.23706197524034,2.5762427158021874,160.99696582087086,74.26916057124431,128.88930058781256,136.53035573491886,220.7084759201473,219.95839430365123
2.6026026026026026,59.47737869261256,2.5762427158021874,161.08805642165106,73.87452698988572,128.57515695592073,135.50868168555448,219.84972429536808,222.0590588701948
2.6359693026359694,73.61269136120175,2.678840653325323,160.51801878773117,73.80676819917473,128.5812905767524,134.5779294685441,218.48514900341823,224.10196159349127
2.669336002669336,88.53735031307514,2.678840653325323,159.82660281428446,74.23779706645037,128.8270509539942,133.81573683428118,216.64834066670903,226.06378853710032
2.702702702702702,104.140218720761,2.678840653325323,159.2020760475412,75.33813489003686,129.36418673002237,133.26669974766065,214.5410023073632,227.53251967860447
2.736069402736069,120.1311828579772,2.678840653325323,158.3790118277365,77.06230587518486,130.15799963397484,132.77532233551187,212.2731753649058,228.62416342238976
2.7694361027694363,136.55484825727856,2.678840653325323,157.27723062818075,80.51976033765101,131.205055148788,132.5264518161283,209.9043434293824,229.1611267829608
2.802802802802803,153.06244857942065,2.678840653325323,156.20939340750732,84.79591983691168,132.43717499668008,132.5191984651932,207.48267874602016,229.12224613105369
2.836169502836169,169.26072948012396,2.678840653325323,155.30008753129673,88.86307247110693,133.82267075587487,132.732868228445,205.01018056937968,228.52601728905225
2.8695362028695364,184.6522385933505,2.678840653325323,155.06838486372928,97.76212130815134,135.2647354865801,133.1832568953989,202.6000432370744,227.4382236445944
2.902902902902903,199.48248273918463,2.678840653325323,154.65640671104603,105.35960562174915,136.83948948310714,133.8109275172983,200.2514865700484,225.8334229728432
2.9362696029362696,213.54508193035528,3.1312859454635884,154.96109756921382,109.92152480595092,138.30254052658572,134.48182322477794,197.9621786986293,223.86876035194223
2.9696363029696364,226.67301840597784,3.1312859454635884,155.70752430801642,112.1903399440616,139.86352118207333,135.14775840480527,195.70948686007333,221.6974851188482
3.003003003003004,239.24558119010345,3.1312859454635884,157.28282232030995,114.77520969081782,141.5928515109631,135.66576062650006,193.5511225769833,219.22439127182216
3.0363697030363697,250.67861695718648,3.1312859454635884,157.77234674275587,117.18697047674812,143.381205004215,136.4607942542602,191.5703825575204,216.4181314683157
3.0697364030697365,260.6135044607961,3.1312859454635884,157.11433540868458,118.2855682869952,145.25512708906814,137.27199001714422,189.6861139303095,213.47329624657056
3.103103103103104,268.1918200812047,3.1312859454635884,156.45301227924188,119.57953605865652,147.11245094925172,138.2078758398646,187.97744641812173,210.286782189371
3.1364698031364697,274.19992796986486,3.1312859454635884,155.9944790335098,121.74166277622189,149.00431348741685,139.14906550949237,186.36827101600483,207.1402153584027
3.169836503169837,289.33477636878814,3.1312859454635884,155.24028795935948,122.73118996956624,150.80685856595713,140.05822758394424,184.7537629859328,204.0772508037776
3.2032032032032034,300.0144846401458,3.1312859454635884,155.04103741743057,124.0773189284398,152.51886665830224,141.16780612631877,183.31769123874307,200.9640754601457
3.2365699032365702,305.35788306102785,3.1312859454635884,157.5802818272562,126.55449423066298,154.1672774070735,142.437271628222,182.08311043487112,197.8776375073176
3.2699366032699366,305.545294676906,3.1312859454635884,158.61783305866317,122.6321300079019,155.66450758018388,143.83134723779295,181.1030821649184,194.84990227310752
3.3033033033033035,300.1619367602234,3.1312859454635884,159.00715736496025,118.68093864217737,156.97793573388344,145.14081416931867,180.39225080427207,191.90335326657336
3.3366700033366703,290.1374772923488,3.1312859454635884,157.40664554566732,117.67121317438982,158.12059928165075,146.31830655529382,179.96926558996333,189.1372130578896
3.3700367033700367,274.6654016148632,3.1312859454635884,154.68571148881458,115.70806240334193,159.01942306518075,147.39941457755484,179.8386107907714,186.4665998366446
3.4034034034034035,268.3135834827751,3.1312859454635884,149.14756198497457,114.52216404237068,159.72066277719668,148.3615427524289,180.24651331854903,183.87986756358808
3.4367701034367704,260.5643151386963,3.1312859454635884,145.3869377573138,110.91130506287524,160.35373250604002,149.20250079405758,180.6806413297884,181.5173280085889
3.4701368034701368,251.8071574735307,3.1312859454635884,141.56784639333097,106.9926525631532,160.81365326108173,149.96876686222873,181.3343545043891,179.4233940532711
3.503503503503504,242.38547392792333,4.077077574058807,133.62840364828764,105.53989579110484,161.22038258241972,150.5599620798596,181.9867123969374,177.72208279352463
3.5368702035368704,232.2997866921086,5.528120878174493,123.77980060524104,104.81820441052808,161.57958518478938,150.92279479034295,182.4047548461842,176.38860860572112
3.5702369035702373,220.8014495417719,7.403924784052904,122.7479332396389,104.57294829861964,161.81622666232644,151.07799231241134,182.84419407466143,175.52234777291153
3.603603603603604,208.01177705094588,1.745910614297043,119.92445425507704,104.73297374044448,161.85754725487593,151.17048826218007,183.1492311472716,175.0099644568924
3.6369703036369705,194.2789397527864,-0.8560775101696922,116.5923509196521,104.90502080408102,161.82558035464115,151.11578969946942,183.15251384366573,174.85875436681698
3.670337003670337,179.6834684115304,-0.6498775707215705,113.54464649021634,105.35479747828975,161.63295679467183,150.95862833207434,183.1122236839318,175.11190619557922
3.703703703703704,164.65514186410252,2.177691445688901,109.8497957172325,107.15835200822788,161.59719363143088,150.89570237293924,182.8496463010976,175.47317022706375
3.737070403737071,149.27211294008268,7.237556448556013,105.19750496201588,109.9312248461117,161.61514707787836,150.85233569267712,182.36693298753144,175.80278357440145
3.770437103770437,133.50041971332948,14.3683159901172,100.85875528675676,113.3644777939413,161.620456865529,150.76700029327793,181.77262953927388,176.3360835364745
3.803803803803804,117.57576991724238,23.496283356179827,97.03391865709936,117.63727054702582,161.5656363109761,150.7578657414931,181.247858068046,176.7618010415854
3.8371705038371706,101.97125428679097,34.01731893442528,93.7787739068943,122.69905794971976,161.53049779381146,150.75258579649187,180.88170106178904,176.95738703715054
3.8705372038705375,86.24751530062053,45.81317645622166,90.71836394442876,128.47721576642476,161.46269066130805,150.74461473264847,180.5612494047409,177.1472374949134
3.903903903903904,71.07652422372993,58.7736211711288,88.35057896268317,134.96293021967355,161.37273253811924,150.93158914916827,180.2491024695489,177.12101323312095
