Time,Left Shoulder Angle,Right Shoulder Angle,Left Elbow Angle,Right Elbow Angle,Left Hip Angle,Right Hip Angle,Left Knee Angle,Right Knee Angle
0.0,17.17500420321244,51.337740383344986,155.0088219910408,171.03221939183535,172.6120871453165,217.7966653137072,182.6970694751484,178.91326182851247
0.0333667000333667,12.525140233350502,26.56545999870294,166.99913620326922,178.36784335830686,172.6087610780228,217.6589444159769,182.64818965670145,179.99168763271456
0.0667334000667334,9.18669818274896,6.8967269507217495,176.41866335293366,184.11789977305253,172.5567262106326,217.54338966806264,182.656667463333,180.7701571668554
0.1001001001001001,7.059325335696666,6.8967269507217495,183.4500210965472,188.38447397906083,172.46359913449837,217.44708899653656,182.71560338797465,181.27892648173489
0.1334668001334668,6.042668976482469,6.8967269507217495,188.2758270906228,191.2696513193204,172.33699644097254,217.3671303279709,182.81809792355784,181.548251628153
0.1668335001668335,6.036376389395215,6.8967269507217495,191.0786989916733,192.8755171368196,172.18453472140754,217.30060158893767,182.95725156301413,181.60838865690965
0.2002002002002002,6.940094858723754,6.8967269507217495,192.0412544562119,193.30415677454715,172.01383056715582,217.2445907060093,183.12616479927505,181.48959361880475
0.2335669002335669,8.653471668756934,-8.024533771219865,191.3461111407516,192.6576555754915,171.83250056956982,217.1961856057576,183.3179381252721,181.22212256463823
0.2669336002669336,11.0761541037836,-18.554397177743205,189.17588670180515,191.0380988826412,171.64816132000198,217.1524742147548,183.5256720339368,180.83623154521
0.3003003003003003,14.10778944809261,-25.04893827946956,185.7131987958857,188.54757203898475,171.46842940980474,217.1105444595732,183.74246701820056,180.36217661132
0.333667000333667,17.648024985972803,-27.86423208702022,181.1406650795064,185.28816038751071,171.30092143033056,217.0674842667848,183.9614235709951,179.83021381376818
0.3670337003670337,21.59650800171304,-27.356353611016463,175.64090320917992,181.3619492712077,171.15325397293188,217.02038156296177,184.17564218525172,179.27059920335444
0.4004004004004004,25.85288577960214,-23.88137786207961,169.3965308414195,176.87102403306406,171.0330436289611,216.9663242746763,184.37822335390217,178.71358883087868
0.4337671004337671,30.316805603929005,-17.795379850830948,162.59016563273798,171.9174700160685,170.94790698977073,216.9024003285005,184.5622675698778,178.18943874714088
0.4671338004671338,34.88791475898243,-9.454434587891695,155.40442523964845,166.6033725632095,170.90546064671315,216.8256976510065,184.72087532611016,177.72840500294092
0.5005005005005005,39.4658605290513,0.7853829161167383,148.02192731866387,161.03081701747558,170.91332119114082,216.73330416876647,184.8471471155308,177.36074364907876
0.5338672005338673,43.95029019842444,0.7853829161167383,140.6252895262972,155.30188872185528,170.9791052144062,216.6223078083527,184.93418343107112,177.1167107363543
0.5672339005672339,48.24085105139101,0.7853829161167383,133.39712951906262,149.5186730193385,171.11042930786306,216.48979649633887,184.97508476566423,177.02656231556887
0.6006006006006006,48.86756733335636,0.7853829161167383,129.81346192194334,145.25893636905812,171.36266409217893,216.06276631919377,184.96835180331044,177.9519393891318
0.6339673006339673,48.707183407320095,0.7853829161167383,126.2131803889949,140.54373033498445,171.88736690921866,215.72046618986016,184.79242281404865,179.10430799045773
0.6673340006673341,48.1102084184184,0.7853829161167383,123.12124150738656,133.77662833637103,172.77242616303076,215.3753034597443,184.4872006448333,180.55010608303652
0.7007007007007008,47.636552038005895,0.7853829161167383,121.2769381335638,131.14727068690257,173.70584598504982,215.0569005593269,184.10070560309308,182.2868712487251
0.7340674007340674,51.54335116314046,0.7853829161167383,122.7391317799887,128.27206718668884,174.6682744856087,214.8902631588576,183.6381447891497,184.21912219451133
0.7674341007674341,53.37161256036813,0.7853829161167383,127.4828646071703,125.64962317271534,174.47079478359552,215.7846826230676,181.73524795252672,188.29562122559224
0.8008008008008008,55.87010629128595,12.56799765057314,126.76445947689707,127.8468837681292,175.26174138506343,215.66537292292085,180.8170134837069,190.74458594033467
0.8341675008341676,57.53808786650516,25.537334604856223,126.22324773805528,127.7352341564382,176.41931735780344,215.25188507955343,180.98004923613496,192.89809829193044
0.8675342008675342,57.69100074680669,39.3373187683446,130.32004454275483,128.67500150489948,177.72979389835143,214.79652413098907,181.08895209832065,194.2492123311196
0.9009009009009008,57.91464647065284,53.61187513041713,128.9684008948606,122.97629405085428,179.10390485763128,214.06325674582183,180.8689329824581,195.70047071018664
0.9342676009342676,48.97889704624267,68.00492868045242,128.42733961515472,119.4656836172178,180.64639130226303,213.0367473124063,180.2424639103139,197.27535116992857
0.9676343009676344,42.24722108119396,82.16040440783001,128.02382352255367,116.7843127258006,181.51047610636823,212.709613523638,178.23507506090223,200.529824443506
1.001001001001001,37.58975929582753,87.58842300049676,129.0710024111096,118.52496750541388,183.0888142826392,211.6129454639331,177.8234346041533,201.4565132351157
1.0343677010343677,34.65525285467942,91.72172292687476,132.31769941586714,117.36328939684824,184.35615517095064,210.77520402638905,177.369328177383,202.27363283856164
1.0677344010677343,39.89350006335839,94.4476489047487,138.72114187175882,118.248697129989,185.7966604799626,209.76063611298463,176.86973300004666,202.9661214753081
1.1011011011011012,36.04756830695575,97.74004692990344,143.69412815017853,120.68166890209704,187.0760772849177,208.52233820741367,176.25027067060716,203.7186718458375
1.1344678011344678,43.687681365929606,100.5262437049002,156.2536906735731,118.53513834545284,188.14048692298485,207.22039628078136,175.50899037534373,204.5258983315617
1.1678345011678346,52.502544447707294,95.9947795231282,155.73684029985776,126.70177085353548,189.0503459420291,205.90494269425272,174.77354319282202,205.2542204601856
1.2012012012012012,60.88636175212531,100.23634249282294,154.18670920580217,125.31928308169783,189.69492490384823,204.61290260068984,173.9600389334471,205.8600137887776
1.234567901234568,67.53478303140108,104.77688545146827,153.767712747761,127.90269602157582,190.03773698538004,203.4843128690322,173.09026173931207,206.3282764542152
1.267934601267935,74.47108621185475,107.12687198125948,155.07973470140504,126.16721120289212,190.3302487546427,202.30410761723084,172.22352374720322,206.6185504380786
1.3013013013013013,84.67475067510796,108.34141311567384,152.7589145759559,126.69111629211508,190.6843818096496,200.96207224755472,171.39785536805576,205.6225470275385
1.334668001334668,94.5758149156468,101.40995083619032,150.51753418345413,126.91971545229708,190.89823448630457,199.6955456360187,170.5899155298028,204.55069586310825
1.3680347013680347,103.89133762489126,95.06247514874916,148.51418716223594,126.78837374955523,190.9631634593537,198.52756202052777,169.8058988557469,203.4508356933843
1.4014014014014016,112.33837749426164,89.67086124737807,146.90746715063818,126.23245625000776,190.8705254035445,197.48115563898853,169.05199996919214,202.370805266965
1.4347681014347682,119.63399321517883,84.34587139324793,145.85596778699775,125.18732801977296,190.6116769936247,196.57936072930767,168.33441349344255,201.3584433324484
1.4681348014681348,125.4952434790634,79.7706812525994,145.51828270965157,123.58835412496909,190.1779749043417,195.8452115293921,167.6593340518022,200.4615886384327
1.5015015015015016,129.639186977336,75.78442194613018,146.05300555693657,121.37089963171432,189.5607758104433,195.3017422771481,167.03295626757517,199.7280799335161
1.5348682015348682,131.78288240141745,78.85180065501388,147.6187299671897,118.470329606127,188.75143638667683,194.97198721048267,166.4614747640655,199.2057559662968
1.5682349015682349,131.64338844272808,81.51786993759293,150.37404957874767,114.8220091143254,187.74131330779,194.8789805673023,165.95108416457728,198.94245548537288
1.6016016016016017,128.93776379268877,81.89266388333554,154.4775580299476,110.36130322242772,186.52176324853048,195.0457565855137,165.5079790924146,198.98601723934263
1.6349683016349683,123.38306714272002,83.45288254928279,160.08784895912635,105.02357699655218,185.0841428836457,195.4953495030237,165.13835417088143,199.38427997680412
1.6683350016683351,114.69635718424264,82.23208918336195,167.36351600462072,98.74419550281716,183.4198088878833,196.2507935577388,164.84840402328192,200.1850824463557
1.7017017017017018,102.59469260867746,96.13826320968865,176.46315280476756,91.45852380734084,181.52011793599087,197.33512298756577,164.6443232729201,201.4362633965954
1.7350684017350684,86.79513210744462,110.31899098042012,187.545352997904,83.10192697624146,179.37642670271612,198.77137203041124,164.53230654310005,203.1856615761214
1.7684351017684352,67.01473437196509,124.30738103341724,200.7687102223668,73.60977007563736,176.98009186280643,200.582574924182,164.5185484571258,205.4811157335319
1.8018018018018016,42.97055809365952,137.6365419065415,216.29181811649292,62.91741817164673,174.3224700910095,202.7917659067845,164.60924363830145,208.3704646174251
1.8351685018351689,14.379661963948465,149.83958213765362,234.27327031861907,50.9602363303878,171.39491806207286,205.42197921612564,164.81058670993107,211.9015469763992
