Time,Left Shoulder Angle,Right Shoulder Angle,Left Elbow Angle,Right Elbow Angle,Left Hip Angle,Right Hip Angle,Left Knee Angle,Right Knee Angle
0.0,23.44852219301581,39.34354379195681,152.79193469174737,163.70032449414742,136.48133150989267,128.6696946209581,195.35846025494064,200.9327705452572
0.0333667000333667,21.64388167461788,39.00073767486926,150.20563553886834,162.99913449317174,136.25587158193315,128.7527692916757,195.1487561417716,200.5915822572586
0.0667334000667334,20.059201776807715,38.70060207497059,147.9507913892825,162.419095387753,136.0476495799357,128.8338287998532,194.99303158089032,200.30669712834563
0.1001001001001001,18.686306610327776,38.4416894878718,146.01333022835243,161.95259615055443,135.85557900557578,128.91243309406175,194.88763308052324,200.0750304910219
0.1334668001334668,17.517020285920527,38.22255240918388,144.37918004144066,161.59202575423933,135.678573360529,128.98814212287252,194.8289071488969,199.893497677791
0.1668335001668335,16.543166914328424,38.04174333451784,143.0342688139098,161.32977317147098,135.515546146471,129.0605158348566,194.8132002942377,199.7590140211565
0.2002002002002002,15.756570606293929,37.89781475948466,141.96452453112238,161.1582273749126,135.36541086507725,129.12911417858518,194.83685902477225,199.6684948536221
0.2335669002335669,15.149055472559496,37.78931917969535,141.15587517844097,161.0697773372275,135.22708101802337,129.19349710262935,194.89622984872696,199.6188555076912
0.2669336002669336,14.71244562386759,37.71480909076089,140.59424874122814,161.05681203107895,135.0994701069849,129.25322455556028,194.9876592743284,199.6070113158676
0.3003003003003003,14.438565170960665,37.67283698829228,140.26557320484645,161.11172042913017,134.98149163363743,129.30785648594912,195.1074938098029,199.62987761065483
0.333667000333667,14.319238224581184,37.661955367900525,140.15577655465847,161.2268915040445,134.87205909965652,129.35695284236698,195.2520799633771,199.6843697245565
0.3670337003670337,14.346288895471604,37.6807167251966,140.25078677602673,161.39471422848516,134.77008600671775,129.400073573385,195.41776424327747,199.7674029900761
0.4004004004004004,14.511541294374386,37.727673555791526,140.5365318543138,161.6075775751154,134.67448585649666,129.4367786275743,195.60089315773047,199.8758927397174
0.4337671004337671,14.806819532031987,37.80137835529628,140.9989397748823,161.85787051659855,134.58417215066882,129.4666279535061,195.7978132149626,200.0067543059839
0.4671338004671338,15.223947719186867,37.900383619321865,141.62393852309472,162.13798202559784,134.4980583909098,129.48918149975145,196.0048709232004,200.1569030213792
0.5005005005005005,15.754749966581484,38.02324184347927,142.39745608431366,162.44030107477656,134.4150580788952,129.50399921488153,196.2184127906702,200.3232542184069
0.5338672005338673,16.3910503849583,38.16850552337949,143.30542044390168,162.75721663679795,134.33408471630054,129.5106410474675,196.43478532559868,200.50272322957065
0.5672339005672339,17.124673085059882,38.33472715463385,144.33375958722232,163.08111768432664,134.25405180480243,129.5086669460815,196.65033503621385,200.69222538737563
0.6006006006006006,17.993046652291316,38.53467445787791,145.53393966288567,163.3756762678045,134.13596552630273,129.51303892978672,196.8798632967968,200.9037393028701
0.6339673006339673,18.93699410571957,38.773848510584045,146.77148073159546,163.67524735384424,134.00826564698582,129.49516031063996,197.07421926317843,201.0655671353257
0.6673340006673341,19.864558944132245,39.07498527049956,147.95120825578084,164.02280710033548,133.87614014700267,129.44477564024288,197.24543282740925,201.2211661329048
0.7007007007007008,20.863373484765035,39.396212410218695,149.1854036067344,164.33958399968546,133.7369884254887,129.37108772115073,197.38633912756825,201.37823796211683
0.7340674007340674,21.894438084520687,39.73625517083228,150.43348358411967,164.61786017237117,133.6201751857837,129.2700713263981,197.4896371944105,201.5590693403388
0.7674341007674341,22.95874880645011,40.03555786783982,151.66838428032486,164.76096396709855,133.5214867850366,129.14344649233445,197.5581296472927,201.7557039872921
0.8008008008008008,24.10373600189761,40.36432230387063,152.99657284989271,164.87296775942394,133.4393042847458,128.97027273086522,197.5847157861118,201.9380381694733
0.8341675008341676,25.32438071029806,40.6633196247097,154.40290911648282,164.87359053134213,133.3670277406532,128.78062328666851,197.5820674389064,202.1122849358594
0.8675342008675342,26.61746787008348,40.95708331657722,155.88503991953377,164.80555769718666,133.29141049374533,128.57718361785865,197.5543926390049,202.286669762178
0.9009009009009008,27.872484916637607,41.19355920778913,157.3078514303732,164.5712591212306,133.1979319322433,128.37214574088492,197.5201460355273,202.44573935382465
0.9342676009342676,29.077358923111465,41.381203019739466,158.74893383259786,164.24384475267297,133.0924051227568,128.19325158029966,197.4683894706606,202.57366608946063
0.9676343009676344,30.278103501617995,41.49513122249113,160.1003194031959,163.82617119525548,132.991641368643,128.0918193836905,197.40631814460988,202.65273352924788
1.001001001001001,31.36267363741433,41.59969960392248,161.29769600418388,163.35732418591,132.93533433946706,127.98233771101296,197.3061260277992,202.72030930880263
1.0343677010343677,32.37328808854862,41.62869737302024,162.4052536207311,162.7746942672012,132.8935304118674,127.91202218442146,197.20513085510927,202.78124493667423
1.0677344010677343,33.31172674139285,41.602679857783386,163.4360122987635,162.08075436079088,132.87470793389627,127.86967167068684,197.06725196055672,202.82902372776908
1.1011011011011012,34.1504061346797,41.44926293214556,164.2799390433915,161.2496981489294,132.87538254943232,127.9195188512642,196.9019708197711,202.82557645268764
1.1344678011344678,34.90148549888041,41.27290015386976,165.0595314905051,160.48137111942066,132.9052513409402,128.03588088949974,196.70893932312745,202.82010988312985
1.1678345011678346,35.51578547041986,41.13654133222008,165.67551589540506,159.8501077896517,132.9346996763129,128.23648366650028,196.552642263349,202.78693630414824
1.2012012012012012,36.05786142189223,40.99999726883706,166.21556161531208,159.2756601324402,132.9816757242616,128.518287257455,196.36495908076893,202.7356437528913
1.234567901234568,36.50456581219984,40.6765945776866,166.6074300207564,158.51865703452484,132.9837333655529,128.8713881702431,196.2398613736163,202.6599096163977
1.267934601267935,36.94293460135371,40.18611681881536,166.71454579402285,157.64417041710178,133.06182136974255,129.2733238784226,196.06459481499704,202.5551324488169
1.3013013013013013,37.39735149779706,39.58903908088294,166.8828642819023,156.7253586808114,133.09520173898642,129.72193955830213,195.98020431653896,202.4409691328864
1.334668001334668,37.74622885127082,39.106459319693215,166.39557854998844,156.0969809206462,133.06579332289908,130.22789000562656,196.0268148256182,202.296211177572
1.3680347013680347,38.111925826157446,38.50547871415073,166.16340111294176,155.3957000135709,132.94958476347958,130.8000932509017,196.21528648048405,202.11321387804625
1.4014014014014016,38.48809684812656,37.85049964034215,170.72193813480163,155.0635756428609,132.82169948698822,131.44882618442313,196.4580868628393,201.8871625760977
1.4347681014347682,38.65793818742053,37.091538254519975,174.12062636399756,154.5529578063924,132.60773828274793,132.13322944358853,196.841283808083,201.6394829109683
1.4681348014681348,38.981485949568885,36.3938719854025,176.02351559779558,154.09773276168997,132.22482243659502,132.7978797524472,197.43711217425025,201.3938579893771
1.5015015015015016,39.20757505323635,35.4996074770201,176.9215678485548,153.3480499271104,131.65313098291227,133.4508399709734,198.2112215350481,201.1542768478608
1.5348682015348682,39.29692692281604,34.27910705478909,176.22704191139746,152.87521336417188,131.01015146009098,134.14854036213902,199.09607917504425,200.8857223551888
1.5682349015682349,39.24380123718252,32.843603562466555,174.89827259108066,151.96030672262353,130.28109227594834,134.84520130030944,200.0636294475449,200.599600572168
1.6016016016016017,39.09863759655426,31.240091356702628,172.2974761106953,150.49003702521986,129.4998025077266,135.5654292775063,201.1633196752088,200.29031185172585
1.6349683016349683,38.57222825411024,29.58341566017006,169.15190510002896,148.58404428307432,128.6225452977444,136.2807633711811,202.3604526057848,199.97445701603692
1.6683350016683351,37.53713078736192,27.451644333448435,164.5982019321372,146.48008088191884,127.72389254987874,136.97779804334365,203.54257049278388,199.6699811411239
1.7017017017017018,36.16405441230047,25.36172012896281,157.15967233385624,144.0781311615965,126.7424033632998,137.63927188563142,204.72715465678428,199.3547504012487
1.7350684017350684,34.53364400582726,23.623256075846047,153.62437637344811,141.75451288324956,125.6978302251036,138.25097180320537,205.92482491485745,199.03235484123053
1.7684351017684352,32.7719984965433,21.97393288502209,150.1352136247989,138.9934648158668,124.61087307620312,138.79174426904964,207.1495576027749,198.7418384363941
1.8018018018018016,30.57101698135996,19.84774436416828,146.29054652827034,136.45856360764847,123.4621215164645,139.25551549194597,208.4121701732935,198.45862822908384
1.8351685018351689,28.40468601601234,17.77725090825166,142.54921863734685,133.47233175656885,122.28404814371792,139.64317031420973,209.6942859223243,198.1984479784273
1.8685352018685355,26.34183726967668,15.698351226311948,139.3706432332068,130.11395911594596,121.13651700691732,139.9383535156756,210.9256967506739,198.0069042394392
1.901901901901902,24.46106982160513,13.8870529640822,136.41099500854915,126.28295427181376,119.99622635434076,140.1555098742348,212.1393797072696,197.86336946373672
1.9352686019352687,22.31412945096257,12.39433052569931,133.42085560618304,122.24566476918724,118.8875661777262,140.31195799415858,213.3332833194099,197.7606516481549
1.968635301968636,20.423410109041285,11.181618500449169,130.55722271978374,117.87290674917718,117.8217957576291,140.4536843648792,214.49248751876053,197.7145058765332
2.002002002002002,18.77351890636851,10.232230315571924,127.89293922337696,112.60284257343636,116.81288058715514,140.54054409768833,215.59477210207905,197.73415546754364
2.035368702035369,17.389435826770356,9.690953486857447,125.44920738958214,107.054683171347,115.89783960535328,140.59290913154422,216.60291511539663,197.7894841615834
2.0687354020687354,16.009185697153296,9.485770824262351,123.28747988362984,101.40975231209563,115.08748291313832,140.62043173319515,217.4840335759257,197.87504548728552
2.1021021021021022,15.029462064830351,9.610294273667725,121.56058352243058,95.9494517458918,114.4140780572406,140.60992493548127,218.23705596756605,198.0054252057197
2.135468802135469,5.03202886161727,9.599001916638503,120.12718232927487,90.18198346153888,113.86697498400012,140.5538830773048,218.8829693620372,198.1629912635973
2.1688355021688355,5.03202886161727,9.920880595809596,119.1539903725467,84.74122429502681,113.43171371399649,140.5286950259217,219.4335275481061,198.33753781511405
2.2022022022022023,5.03202886161727,10.752334886250337,118.87078318538929,79.83425382758334,113.13894264901134,140.49216473684706,219.82615064929675,198.50911395118544
2.235568902235569,5.03202886161727,11.947409504655704,119.10117638501956,75.51680100743756,112.97737953693176,140.4940228439387,220.118250415527,198.6501200032775
2.2689356022689355,5.03202886161727,13.583618891460873,119.53198380205455,72.42560326740255,112.95322752215652,140.48043787413943,220.34288005893853,198.8255679214316
2.3023023023023024,5.03202886161727,15.620611504689732,120.3457422663462,69.90560313731395,113.02489208835009,140.47436163110524,220.54693153504772,199.0190018881676
2.335669002335669,5.03202886161727,17.793565236455485,121.606051288026,67.70645089259179,113.2085818485011,140.44160207360548,220.65731128698232,199.2446972018866
2.369035702369036,5.03202886161727,20.09694953150086,123.37287165114704,65.82154141866742,113.47992560191688,140.39726571038497,220.74281358319112,199.48596911837527
2.4024024024024024,5.03202886161727,22.62750433346971,125.79849453023392,64.57999892400923,113.85239486932898,140.34174296222733,220.7616313022567,199.73886853721223
2.4357691024357693,5.03202886161727,25.42075408360431,129.06497475390282,63.937638903482686,114.16552960007265,140.30079302277335,220.8934698610008,200.00976099592145
2.469135802469136,5.03202886161727,28.428849699049863,133.02430528015458,63.91382115449848,114.48490591270524,140.27765461640297,221.07433477795428,200.26877157397783
2.5025025025025025,5.03202886161727,31.349779360656783,138.55904581600075,64.12315968763558,114.7990585138576,140.26793645791403,221.2881569643021,200.5264362305197
2.5358692025358693,5.03202886161727,34.30992494584847,145.27698203043656,64.87621317211276,115.14021546878789,140.2676673221844,221.4914091094583,200.78274740498188
2.569235902569236,5.03202886161727,37.17360726695522,146.9727438154387,65.60883390834687,115.4009014368247,140.25094521338258,221.8097282601568,201.04794714049805
2.6026026026026026,5.03202886161727,39.91950909773473,147.84792827802764,66.68176840515854,115.61513469445838,140.21806410580868,222.1831821947956,201.31135388364777
2.6359693026359694,5.03202886161727,42.30399269931403,148.21223727605815,67.8266991197372,115.86962873965837,140.23764740422692,222.52635653633595,201.5398805626461
2.669336002669336,5.03202886161727,44.48138625351258,147.96497371060238,69.31949575338076,116.15937030044311,140.29239397448504,222.8291415698924,201.73559944928704
2.702702702702702,5.03202886161727,46.56151467278965,147.6155199714912,70.35747353049435,116.43378565118044,140.36294591513683,223.1639542034096,201.9065666019285
2.736069402736069,5.03202886161727,48.4892071463653,146.81943078608057,71.46076091271583,116.69547015442164,140.45134091702965,223.54817570447528,202.06029822981307
2.7694361027694363,5.03202886161727,50.20488654997828,146.2316960399783,72.8025932763709,116.91383484398312,140.5256838964492,223.91932591511863,202.20925250293976
2.802802802802803,5.03202886161727,51.583673821004055,145.46015177042725,74.33880316927804,117.14300824860048,140.61389916665271,224.2490420317421,202.33608183645384
2.836169502836169,5.03202886161727,53.19613983563325,145.75179067622508,75.93992893874464,117.31409596697225,140.71846680552198,224.6351907617712,202.4193737935612
2.8695362028695364,5.03202886161727,54.68948005533628,149.63092573589353,77.60577426543185,117.4281313460528,140.8223439293068,225.06356925498892,202.4843415258516
2.902902902902903,5.03202886161727,55.69311318670864,150.4436582028215,78.94575159278885,117.50810620153024,140.9160993090847,225.5336899046372,202.5437235544612
2.9362696029362696,5.03202886161727,56.28022451739196,150.99766989992747,80.24384321492586,117.56618930003292,141.00895218769034,226.0246033498725,202.57690920190632
2.9696363029696364,5.03202886161727,57.16938482251148,151.79422132824936,80.7921513291867,117.64415540138262,141.10435090354684,226.50286904825444,202.63289803975152
3.003003003003004,5.03202886161727,58.02561608005078,152.73685909650357,81.1370045793232,117.73358448204787,141.1860580351106,226.9503095140038,202.72155122362827
3.0363697030363697,5.03202886161727,59.01504047899176,153.18041768060183,81.14850142135208,117.80657135649774,141.28966100861336,227.4172620320638,202.7893603881717
3.0697364030697365,5.03202886161727,59.88147636800077,153.3110471561361,80.78379271501768,117.8979634015458,141.4253707740393,227.85497352517592,202.8452143529078
3.103103103103104,-1.6080265509015144,60.62623960052194,153.53592975915555,79.87568213253768,117.99209318616042,141.57161000731884,228.23975278022155,202.8715814565232
3.1364698031364697,-5.145240850350864,61.16901045754854,153.74706532607254,78.37385675798417,118.16221684693704,141.74223019441644,228.5509011602676,202.8468525147493
3.169836503169837,-5.722184941185874,53.22426240839936,154.00035193650706,76.98413475589273,118.3940499069906,141.96889237633252,228.79157616316272,202.75762849707604
3.2032032032032034,-3.1353336837105124,56.3048518437644,154.2830652207437,76.26615154863774,118.59838100409412,142.19538620223986,229.0087144829641,202.64814805764607
3.2365699032365702,2.044335277428008,59.09802788147244,154.60153947499666,75.85492846753576,118.76880682831715,142.38632018447225,229.21585656171607,202.5263061848172
3.2699366032699366,2.044335277428008,61.5020999753064,154.79668350551856,75.29052811378152,118.89018007126688,142.5785277427169,229.4012459599329,202.3533752814911
3.3033033033033035,2.044335277428008,64.11428157246279,155.08902087718008,75.37808817452613,118.95208315376031,142.7133469956014,229.5562007937852,202.20347022285463
3.3366700033366703,2.044335277428008,66.62127813865148,155.22731940720686,75.67021706109496,118.97145753450808,142.85994241251493,229.74592261525888,202.01283748035328
3.3700367033700367,2.044335277428008,68.80313447912282,155.1400207829673,76.07837506471995,118.92833969997773,142.97774632774144,229.9444354814204,201.83543114007315
3.4034034034034035,2.044335277428008,71.0933695237825,155.41027837635406,77.11268901049426,118.77854186062524,143.03807537271686,230.2956237701795,201.67210442433705
3.4367701034367704,2.044335277428008,73.21952171265909,155.77996702053753,77.98159510267385,118.55901263673992,143.0356020876575,230.6009198344153,201.53958174957395
3.4701368034701368,2.044335277428008,74.95281006363402,156.3997220161425,78.03211980606271,118.09066009568006,142.96873696724313,231.05921784280767,201.43001251546767
3.503503503503504,2.044335277428008,76.3902215933048,157.3246398193394,78.50240040201874,117.58642906743464,142.8340183196231,231.38163906892112,201.36206756577408
3.5368702035368704,9.672866112608975,76.08729125922291,157.00156424175833,79.50209489001794,116.980045172857,142.66089005437962,231.88652280528868,201.4106095339088
3.5702369035702373,19.38766154424284,66.75055487686885,156.03237727319564,80.13266336958728,116.45254614275396,142.42707782587337,232.1270383187474,201.5289455683865
3.603603603603604,30.98401443473811,69.99807377371754,153.36880128507903,78.35265975586172,116.02416467137192,142.1457605348658,232.0630581475264,201.60745044412408
3.6369703036369705,44.05602953134936,72.94703024872264,151.24332444061898,76.87019187847324,115.70579374382432,141.78976471608175,231.68435368697925,201.75710693875743
3.670337003670337,58.49872986000421,75.41158228262417,150.34381847364767,76.58597920348518,115.46646133846988,141.40802891501605,230.85388748760687,201.9470440090736
3.703703703703704,74.11048509379005,77.10041781030623,150.142038675238,76.40887188190723,115.33048815117132,140.95729585993044,229.8030344354669,202.1991887876912
3.737070403737071,90.71914876898964,78.37777547288145,149.31884388044227,74.85257195907421,115.36462526653024,140.4142819954096,228.5945796175877,202.5657948480738
3.770437103770437,107.95612795066634,79.05591557976905,148.81531246389892,73.75685191587272,115.4853650256904,139.82270311347688,227.29622690350504,203.00054199695225
3.803803803803804,125.76435483511592,78.97240477684751,149.09412049424685,72.11069974443055,115.6689265821436,139.14758396416576,225.95434656488632,203.50861020691465
3.8371705038371706,143.4812933085553,78.03028685804682,149.40152584253525,70.66446069425105,115.8855849901025,138.46544282177297,224.62027818773865,204.0171709934661
3.8705372038705375,161.18409652441687,76.49123432433555,150.51529566213807,70.47930644114572,115.7267419756284,137.71500846522372,223.53194816629824,204.70252119788665
3.903903903903904,178.49889416204235,74.45542592999942,151.63992342790857,70.67484397700377,115.7657468140214,137.01899984471348,222.27382828672503,205.31408314696105
3.937270603937271,195.3136598487025,71.93157226185926,152.33731098792876,71.17874737406373,115.9895375007344,136.35506857329798,220.85407145747683,205.8527665379377
