Time,Left Shoulder Angle,Right Shoulder Angle,Left Elbow Angle,Right Elbow Angle,Left Hip Angle,Right Hip Angle,Left Knee Angle,Right Knee Angle
0.0,31.55535395841244,14.261181382666209,207.092245375918,227.0249632256229,230.39479821157747,223.54147815841625,157.82366771832972,154.77836373922202
0.0333667000333667,31.704166759557687,15.09521544748194,206.9235940911337,228.38507031888275,230.78746203059148,223.17970799068297,157.73586287299457,155.41839866033405
0.0667334000667334,31.873906874568814,15.594203914191112,206.70915129645772,229.31350207096588,231.1156390897472,222.89698182848088,157.66329630660056,155.93411058075785
0.1001001001001001,32.063104731859966,15.79097258607336,206.4532159896773,229.839319283704,231.38304385187928,222.68790247272503,157.60540362045288,156.3343981098788
0.1334668001334668,32.27029075984528,15.718347266408308,206.1600871685792,229.9915827589289,231.59339077982256,222.5470727243305,157.5616204158567,156.62815985708227
0.1668335001668335,32.49399538693892,15.40915375847559,205.83406383095075,229.79935329847217,231.7503943364119,222.46909538421232,157.53138229411718,156.82429443175366
0.2002002002002002,32.732749041555024,14.89621786555484,205.47944497457885,229.2916917041656,231.857768984482,222.44857325328547,157.5141248565395,156.93170044327832
0.2335669002335669,32.985082152107736,14.212365390925688,205.10052959725064,228.49765877784083,231.91922918686765,222.48010913246503,157.5092837044288,156.95927650104167
0.2669336002669336,33.24952514701121,13.390422137867764,204.7016166967532,227.4463153213296,231.9384894064036,222.55830582266603,157.51629443909027,156.9159212144291
0.3003003003003003,33.52460845467959,12.463213909660698,204.2870052708735,226.1667221364636,231.91926410592475,222.67776612480347,157.53459266182904,156.81053319282597
0.333667000333667,33.80886250352702,11.463566509584124,203.8609943173987,224.68794002507457,231.8652677482657,222.83309283979244,157.5636139739503,156.65201104561766
0.3670337003670337,34.100817721967644,10.424305740917672,203.42788283411585,223.03902978899413,231.78021479626148,223.01888876854795,157.60279397675924,156.44925338218957
0.4004004004004004,34.399004538415625,9.378257406940971,202.99196981881195,221.24905223005405,231.66781971274668,223.22975671198503,157.65156827156102,156.2111588119271
0.4337671004337671,34.701953381285094,8.35824731093366,202.5575542692741,219.347068150086,231.5317969605561,223.4602994710188,157.70937245966076,155.94662594421558
0.4671338004671338,35.00819467899021,7.397101256175365,202.12893518328943,217.36213835092173,231.37586100252463,223.7051198465641,157.77564214236364,155.66455338844045
0.5005005005005005,35.31625885994511,6.527645045945715,201.71041155864492,215.3233236343929,231.2037263014869,223.95882063953613,157.84981292097484,155.37383975398706
0.5338672005338673,35.62467635256394,5.782704483524341,201.30628239312773,213.25968480233115,231.01910732027787,224.2160046508499,157.93132039679955,155.08338365024082
0.5672339005672339,35.931977585261144,5.195105372190843,200.9208466845265,211.20028265657004,230.82571852173405,224.47127468142227,158.01960017114413,154.80208368658833
0.6006006006006006,36.23477466380076,5.195105372190843,200.5317333573666,209.2064589509643,230.6352821875474,224.73983144841227,158.1174316499385,154.56762333258473
0.6339673006339673,36.56317095540259,5.195105372190843,200.1602622911762,207.5993492783315,230.49425791311825,224.99576585712583,158.1812452471993,154.38786784960902
0.6673340006673341,36.888539654737926,5.195105372190843,199.8477620358381,206.19392558397857,230.3715740574572,225.19426607327452,158.243555287609,154.28587087087942
0.7007007007007008,37.259176080769606,5.195105372190843,199.51346462877265,205.1099060005365,230.3044619748233,225.33878806084064,158.3019262507129,154.19572438528726
0.7340674007340674,37.61165934830213,5.195105372190843,199.25830004829567,204.03530590834532,230.23968982533492,225.4375318264991,158.37080734038597,154.17459952483614
0.7674341007674341,37.889893432032366,5.195105372190843,199.1729299557633,202.97270966664613,230.1687980351687,225.49262101484024,158.46876067385537,154.21577597175258
0.8008008008008008,38.12149708841749,5.195105372190843,199.2010328462676,201.93290240391104,230.0796046206292,225.48993603077344,158.58931405010213,154.348384918971
0.8341675008341676,38.395724181158485,5.195105372190843,199.0956482700533,201.0387783408935,229.96523769464167,225.4205000533921,158.7401734268898,154.60769716422982
0.8675342008675342,38.60921063015644,5.195105372190843,199.0938519496338,200.2383721219981,229.83606599935405,225.30370206947453,158.91409979354654,154.95754876626756
0.9009009009009008,38.88529709021229,5.195105372190843,199.0130438729122,199.43574680984003,229.7649151845098,225.1813307441385,159.11079712741207,155.35613508477294
0.9342676009342676,39.12396721979606,5.195105372190843,199.00692478665573,198.8595182119938,229.67167986558783,225.002509639562,159.33514700383105,155.84882882412757
0.9676343009676344,39.326234952733735,5.195105372190843,199.1140156590236,198.30887324936188,229.54485340866063,224.6743444179913,159.57233128225772,156.47847171896245
1.001001001001001,39.42294884974099,5.195105372190843,199.4175586162635,197.81613958163703,229.381599887269,224.26131586274485,159.81694976485448,157.2055747462849
1.0343677010343677,39.65388655001122,5.195105372190843,199.4836464526361,197.2481836829318,229.2293779715373,223.769835057845,160.07202881319867,158.02323383766284
1.0677344010677343,39.7173525656918,5.195105372190843,199.86921830225137,196.2445904634606,229.0461038561116,223.2571855358816,160.32893817185533,158.89839986870422
1.1011011011011012,39.850525543456456,5.195105372190843,200.1413999325208,195.46415338685776,228.8731943436484,222.8157519281285,160.56165704004053,159.8251803636263
1.1344678011344678,39.77056659965376,5.195105372190843,200.7457854427112,194.6281584674537,228.6652277174448,222.391702813176,160.7652728333021,160.75379298781178
1.1678345011678346,39.4120514419294,5.195105372190843,201.760878577786,193.88275348437307,228.41833579823367,221.89166389697667,160.9632296074534,161.72579535557824
1.2012012012012012,38.86834958105098,5.195105372190843,203.12721908793785,193.22859825726977,228.1313370623496,221.3806898643325,161.14677679085787,162.64805259031525
1.234567901234568,38.260330498429866,5.195105372190843,204.56702867664697,192.72280582473184,227.84833550647733,221.0068507765712,161.3080477885028,163.36188240647445
1.267934601267935,37.511396368503696,5.195105372190843,206.26600749705315,192.29937192201217,227.5447900052839,220.67682631414675,161.4565367761062,163.90718147241844
1.3013013013013013,36.68144235040793,5.195105372190843,208.00595992081344,191.20713291151776,227.16765781972163,220.2804403652319,161.6269586033114,164.4661323041391
1.334668001334668,35.69222238421757,5.195105372190843,209.99861101183984,190.24498523904344,226.7194539933459,219.85136499149223,161.80849099385154,165.0304752550174
1.3680347013680347,34.49587997028768,5.195105372190843,211.9636601897841,191.682612072244,226.21401057853427,219.3970468047027,162.00649477315972,165.5724509440486
1.4014014014014016,33.05824243424697,5.195105372190843,214.2590175432069,192.00630873872063,225.66310582493688,219.01152656626792,162.20643558121645,165.9651536329913
1.4347681014347682,31.427963418021424,5.195105372190843,216.4178921102032,191.5454168354367,225.08549867492,218.7191872121988,162.39081540693567,166.15980491071122
1.4681348014681348,29.640640635634167,5.195105372190843,219.0752493501872,190.713753116422,224.48087011414367,218.52062230773416,162.56650265326417,166.13758801114665
1.5015015015015016,27.64925470570397,5.195105372190843,230.3957362762572,189.23641284182824,223.85187367094525,218.32232547543137,162.72873134571157,166.07089889853938
1.5348682015348682,25.527591100692828,5.222421252353917,239.4735629453256,187.0670850563997,223.18122269518943,218.18736196138968,162.8833486876775,165.93038502835205
1.5682349015682349,23.075671737706607,5.730273808611499,238.88642635867689,184.4771590622872,222.5000691277785,218.18139465800857,163.0148273391554,165.49116603843936
1.6016016016016017,20.73551959769368,6.604913206444032,238.8532922697301,181.1196630881453,221.83753658854977,218.30366798810388,163.1269634116246,164.87015481666245
1.6349683016349683,18.55318402645767,7.673080602273717,245.9895433353997,177.8483803853526,221.22789271857883,218.52084365571,163.213137055623,164.11543143915526
1.6683350016683351,16.41609092564669,8.979201501242816,251.2253735412743,174.15259151144204,220.6075281482682,218.7568242297343,163.30505129056036,163.2492673764529
1.7017017017017018,14.513815293622027,10.586115799667528,255.6505661076405,169.82631107808953,220.02047225995327,219.0252959615853,163.3629776154343,162.3346593537577
1.7350684017350684,12.706038714510564,12.480263759353942,258.02521094933667,164.9583652535508,219.47805421136343,219.3561093171581,163.3654772744069,161.3156075754712
1.7684351017684352,10.762610780135104,14.51778952674428,247.853461480912,159.31958927216172,218.9701752191535,219.7101866505521,163.32211765309955,160.22665376195926
1.8018018018018016,9.003080030054832,16.745241299503913,240.94899321364787,153.54416526281318,218.45720711343827,220.06441866974853,163.29477795751694,159.08222908878872
1.8351685018351689,7.510125400333879,19.129030013647164,242.3071046372395,147.61371426175,217.96199966751016,220.42383876801432,163.2773451361168,157.88521756768557
1.8685352018685355,6.223346933456448,21.61422701165508,241.63293426326064,141.26886519272125,217.44813002712732,220.7776966182564,163.28417246655917,156.7519809504465
1.901901901901902,5.054551912511036,24.16044745662199,238.4879064217417,133.7105965824799,216.93521455755453,221.08848018034087,163.31357963388592,155.73514817605815
1.9352686019352687,4.223295954948534,26.77259356119866,233.27732759231648,123.05191658906142,216.44349976990392,221.3863671968261,163.34757467780375,154.78415308718306
1.968635301968636,3.710482303231629,29.514877807299914,226.06153348775803,117.86309276811777,216.00279254778755,221.71122346305168,163.38540343031437,153.8435818706539
2.002002002002002,3.459247211538478,31.99227550362339,217.4453187440689,113.19902957480568,215.62578112335305,222.05936897240048,163.42092352920403,152.8899742513462
2.035368702035369,3.459247211538478,34.361496820895375,207.3410986719296,104.96199539207272,215.312882013713,222.40930831427485,163.46112695173133,151.92648305796226
2.0687354020687354,3.459247211538478,36.45020395482807,196.225969922909,98.57543305239608,214.97632090746995,222.69389177255616,163.5011166581511,151.02486363317897
2.1021021021021022,3.459247211538478,38.43547922610941,184.1137850966328,93.9109105444838,214.6980589713825,222.9270690761489,163.53130568159867,150.15524784503108
2.135468802135469,3.459247211538478,40.22026391974332,171.3047815964631,90.6258330876059,214.47021473338924,223.22970951761235,163.56816547345653,149.2298530155143
2.1688355021688355,3.459247211538478,41.85611543783431,157.80534576012744,88.82664073791143,214.2944403387453,223.55746691891687,163.6012526347733,148.33969094934122
2.2022022022022023,3.459247211538478,43.19796301662778,144.37988038749674,88.82417679726255,214.1248009483144,223.9289756890728,163.61941463479354,147.4691379800375
2.235568902235569,3.459247211538478,44.3681866700488,130.73227427664048,90.8224530626315,213.99658518785472,224.33357592132248,163.60964686525594,146.64378756545713
2.2689356022689355,3.459247211538478,45.1521281676907,117.59071479848885,94.04317946491112,213.8506677377113,224.64299262604425,163.60534576146006,145.84371859122805
2.3023023023023024,3.459247211538478,45.655598808200885,104.66857300341049,98.47242656753104,213.7128288975034,224.8977047139488,163.61706377635295,145.0813104679599
2.335669002335669,3.459247211538478,45.71617613706751,92.10654696857974,104.05938717300752,213.6017902387482,225.2072793385164,163.62721370157414,144.26908591162675
2.369035702369036,3.459247211538478,45.21027034403484,80.13451525725989,110.77093920888552,213.53261481927584,225.5307578139196,163.64569795614273,143.45865498164582
2.4024024024024024,3.459247211538478,44.61883131676375,69.20622256951087,118.42116769747447,213.46014535264965,225.73012458724,163.68461977215182,142.7918679829205
2.4357691024357693,3.459247211538478,44.135992387186576,59.28641750781375,126.93966966806188,213.3639861819072,225.7960907783581,163.75711957180712,142.2912651604089
2.469135802469136,3.459247211538478,43.65940848332092,50.8664065368024,136.8200422105806,213.282180829367,225.8651423629801,163.8471168243239,141.83369227034862
2.5025025025025025,3.459247211538478,42.84699919129405,44.009091072726285,147.58561680418026,213.21119974585287,225.94956662431372,163.95556237634207,141.35575009491285
2.5358692025358693,3.459247211538478,41.99365540209083,39.21241306201641,155.86636521752402,213.17381769843385,226.1239954691789,164.068467061231,140.79202346082704
2.569235902569236,3.459247211538478,41.05776963222392,36.472715636096346,164.09797199680185,213.161115518056,226.3123570567784,164.1805849273468,140.24269134431492
2.6026026026026026,3.459247211538478,39.87723453005013,36.38761074958939,171.8517396204348,213.1758450952102,226.5188299292261,164.29152826718357,139.75079599830224
2.6359693026359694,3.459247211538478,38.94204861992542,39.028042202892415,178.6676967885344,213.2189989650045,226.73180209251507,164.39279512443926,139.32016953462173
2.669336002669336,3.459247211538478,37.85013528344342,32.88783675651576,185.0605681558252,213.28627257854345,227.0519231967196,164.48665509925485,138.81283482925414
2.702702702702702,3.459247211538478,36.42439667388048,26.887387016069383,198.40877438587808,213.3626264596704,227.48478174611407,164.54601127306572,138.13585645301697
2.736069402736069,3.459247211538478,34.77088066951146,30.261164602326705,209.7700357364903,213.49006743198763,227.9492945961174,164.5772469511406,137.55506022473068
2.7694361027694363,3.459247211538478,32.60167052268337,34.87658211791336,217.576380001592,213.6410815466675,228.4651921497029,164.62842484965617,137.0064384882903
2.802802802802803,3.459247211538478,30.161071317320552,32.3003394237464,222.22637632058348,213.81496469707784,229.0232273447889,164.6550808918944,136.47905832359328
2.836169502836169,3.459247211538478,26.744774772383177,27.955600087482186,225.21511374174088,214.0015427847776,229.7079055520536,164.71445154546558,136.05525513736703
2.8695362028695364,3.459247211538478,23.45923291194964,22.04957784319708,225.94456109081315,214.2314155453741,230.3699326720767,164.73680249143982,135.76243269921858
2.902902902902903,3.459247211538478,20.99568111008779,16.051188174631243,223.7977861530032,214.4862037074364,230.9160501511488,164.75186694910755,135.58680015421012
2.9362696029362696,3.459247211538478,19.101941719865007,23.519620261805137,219.93650804000683,214.8266661827877,231.36468610044784,164.68645604591222,135.50824824741397
2.9696363029696364,3.459247211538478,17.071702238109236,30.61348943443504,213.2863961830517,215.15381332295087,231.7987827559975,164.62228986433072,135.26757075926878
3.003003003003004,3.459247211538478,15.408081579626796,29.88600679728985,204.9386576079341,215.55257367364672,232.1076657426762,164.45630108113633,135.2230960388889
3.0363697030363697,3.459247211538478,14.101914390763646,22.04185140536762,191.91159801873283,215.9696633324058,232.35947210912096,164.20568725241208,135.41579030162467
3.0697364030697365,3.459247211538478,13.685762013380826,17.050368185425384,179.55097736194932,216.4979752896197,232.56999624954972,163.82559349108288,135.72427099713133
3.103103103103104,3.459247211538478,13.909824400461462,14.662300132437744,171.57246393278962,217.16675912236613,232.7167544989363,163.27811722614754,136.1100470009466
3.1364698031364697,3.459247211538478,14.615675432168253,14.603562532479987,159.6061799223524,217.9282017036116,232.78090106646152,162.6109349942859,136.61546940269648
3.169836503169837,3.459247211538478,15.468129785215291,17.008565769228408,147.2448187213806,218.609397956778,232.7027852343601,161.88510812538848,137.16396268938416
3.2032032032032034,3.459247211538478,16.86171830009333,21.286265031548265,139.85101069958503,219.37010102607377,232.5322013194512,161.08442588347995,137.8736815169637
3.2365699032365702,3.459247211538478,18.814370619397955,27.3887362383516,132.7793429993298,220.38224091321345,232.38503136464973,160.19362266005524,138.61592682979224
3.2699366032699366,3.459247211538478,21.35594856908313,35.04449507715732,126.26503242646685,221.4692367295852,232.16716309577865,159.23132858238085,139.52747344757478
3.3033033033033035,3.459247211538478,24.507103260110167,43.95288267426428,120.08321311323252,222.5519466785619,231.8960264361557,158.14482394800274,140.57122678989603
3.3366700033366703,3.459247211538478,28.04974439406804,53.978314049311685,115.44411978821472,223.7349254286225,231.51667228787176,156.99137483008775,141.80711241199475
3.3700367033700367,3.459247211538478,31.944372694151056,65.28416459550802,111.49704592534808,225.09924333232965,231.18412993138384,155.6212185423663,143.06869885384762
3.4034034034034035,3.459247211538478,35.93085873577549,77.65578240996705,108.71124915832944,226.3780004602504,230.76008791889484,154.30074569426284,144.43987072489384
3.4367701034367704,3.459247211538478,40.04283262008634,91.74349624780014,108.03170361967952,227.4553640844348,230.26470435008792,153.06451419829347,145.89345566760488
3.4701368034701368,3.459247211538478,44.10055510079603,106.05947268116266,109.05862828069895,228.3364701139816,229.63872188767192,151.96725321193583,147.47278770236727
3.503503503503504,3.5289589036292672,48.24498403362324,119.92509927122072,111.1125271751576,229.0040135387688,228.934730560004,151.0020935349688,149.1341687882276
3.5368702035368704,3.5289589036292672,52.47882395542733,133.5564058082444,114.49211469296436,229.547392854848,228.1098229109839,150.18902668804338,150.9158383826886
3.5702369035702373,3.5289589036292672,57.32378927489232,150.31830366935336,118.9428645051118,229.798372006144,227.12322530655683,149.49628123573558,152.80131748075044
3.603603603603604,3.5289589036292672,62.103518701917054,165.55153519595802,125.63196307786784,229.99978054214105,226.08869992013652,148.91779132645604,154.70147172520686
3.6369703036369705,3.5289589036292672,68.54541700264512,182.80512397507056,140.9217154538036,230.1475400002801,224.9792933361273,148.49848780082945,156.66160277442614
3.670337003670337,3.5289589036292672,74.18510004568539,195.52967587862256,145.72721153173703,230.27564363143253,223.87509990205675,148.23085888187015,158.57268381018915
3.703703703703704,3.847401799673832,78.71433184849478,205.67258955900303,151.73943575124818,230.32783414719248,222.7797739702148,148.17447949629735,160.4099382440047
3.737070403737071,3.847401799673832,82.07156381721134,214.1964656043567,169.07412351636003,230.33479434136112,221.7483790080459,148.31554536188764,162.10941524384958
3.770437103770437,3.847401799673832,83.43224449164295,224.06786359635373,185.096253518712,230.3686807244446,220.7827254022957,148.61974184543445,163.65007880505962
3.803803803803804,3.847401799673832,83.39227808980502,231.28860795109412,200.8641058160441,230.35330284343172,219.87177434010457,149.12995642330486,165.11140010303905
3.8371705038371706,3.847401799673832,82.22478894923304,231.11470170833755,204.7588131246156,230.31790085856343,218.98471785008348,149.8040421369832,166.3927101727062
3.8705372038705375,3.847401799673832,80.3970430882798,229.215520227928,215.06270960500552,230.257251144348,218.10183654499627,150.66080563736756,167.63647794444512
3.903903903903904,3.847401799673832,77.5400903710154,226.99942934220132,218.77675770401032,230.2468733906796,217.2535612165068,151.67468684797623,168.79389344264126
3.937270603937271,3.847401799673832,74.30635217607188,223.59397482659173,220.91375291690025,230.2034694788653,216.4451626536252,152.79048432004942,169.93770987142565
