Time,Left Shoulder Angle,Right Shoulder Angle,Left Elbow Angle,Right Elbow Angle,Left Hip Angle,Right Hip Angle,Left Knee Angle,Right Knee Angle
0.0,23.96213600567388,32.526135766843815,148.65688072490846,164.43517355355223,137.85857040465973,138.8816572034316,194.51986254561092,199.1881773304754
0.0333667000333667,22.25257330611116,32.38360727491491,147.43594389846828,163.9234788678562,137.91503672732733,138.8276343717891,195.0419229936204,199.40700891267105
0.0667334000667334,20.76676573372105,32.22734779141426,146.32039435126387,163.41738761794448,137.98978652184664,138.7774968946521,195.5205365889974,199.60913754334115
0.1001001001001001,19.494356047214268,32.05905934495488,145.3110522694786,162.91917291677618,138.0800327373077,138.73046599261653,195.9585329024436,199.79670521092297
0.1334668001334668,18.424987005301546,31.88044396414981,144.40873783929578,162.43110787731044,138.18298832280055,138.68576288627824,196.35874150466057,199.97185390385368
0.1668335001668335,17.548301366693586,31.69320367761208,143.6142712468987,161.95546561250646,138.29586622741533,138.64260879623316,196.72399196634984,200.1367256105705
0.2002002002002002,16.853941890101126,31.499040513954714,142.92847267847077,161.49451923532334,138.41587940024203,138.6002249430772,197.0571138582129,200.2934623195107
0.2335669002335669,16.331551334234888,31.29965650179074,142.35216232019528,161.0505418587203,138.54024079037077,138.55783254740618,197.36093675095145,200.44420601911133
0.2669336002669336,15.970772457805593,31.09675366973319,141.88616035825558,160.6258065956564,138.6661633468916,138.51465282981607,197.63829021526684,200.5910986978097
0.3003003003003003,15.76124801952396,30.89203404639509,141.53128697883497,160.2225865590909,138.7908600188946,138.46990701090272,197.89200382186075,200.73628234404305
0.333667000333667,15.692620778100718,30.687199660389467,141.28836236811682,159.84315486198287,138.91154375546978,138.42281631126204,198.12490714143468,200.88189894624844
0.3670337003670337,15.754533492246589,30.48395254032936,141.15820671228445,159.48978461729152,139.02542750570728,138.37260195148994,198.33982974469012,201.0300904928632
0.4004004004004004,15.936628920672293,30.283994714827784,141.14164019752116,159.16474893797596,139.12972421869716,138.3184851521823,198.53960120232884,201.1829989723244
0.4337671004337671,16.228549822088553,30.08902821249778,141.23948301001036,158.87032093699534,139.22164684352947,138.259687133935,198.72705108505207,201.3427663730694
0.4671338004671338,16.619938955206095,29.900755061952367,141.4525553359353,158.60877372730886,139.29840832929426,138.1954291173439,198.9050089635617,201.5115346835353
0.5005005005005005,17.10043907873564,29.72087729180458,141.78167736147935,158.38238042187567,139.35722162508162,138.12493232300503,199.07630440855905,201.6914458921593
0.5338672005338673,17.65969295138791,29.551096930667445,142.22766927282586,158.19341413365487,139.3952996799816,138.04741797151416,199.24376699074568,201.8846419873787
0.5672339005672339,18.28734333187378,29.39311600715425,142.79135125615926,158.04414797560682,139.4098554430854,137.96210728346833,199.41022628082487,202.0932649576322
0.6006006006006006,19.17964724870456,29.37312362149748,143.93869569018764,158.0815561689677,139.3189713414935,137.787300049469,199.56461610899703,202.47228889149693
0.6339673006339673,20.042197629527102,29.53349495475916,144.9769489817674,158.438855550248,139.0940050478272,137.5559302490041,199.8794985655527,202.8480227930932
0.6673340006673341,20.89473975270388,29.655347771544392,146.0720894630132,158.7914369086614,138.84384682084013,137.32894004442068,200.2052632292609,203.2072121444157
0.7007007007007008,21.765238465575685,29.715858030597737,147.26980650359275,159.04780164155213,138.6462105998825,137.1328969440288,200.4768194467473,203.54518034176868
0.7340674007340674,22.36049083070244,29.718498384561183,148.47167230849024,159.2436304365086,138.49777908956094,136.9506162045742,200.7023876836212,203.90812368136048
0.7674341007674341,23.031571984128696,29.802217434933745,149.91861766064665,159.5666129846072,138.39085680677184,136.72628498829425,200.892257236113,204.32306747156804
0.8008008008008008,23.71266715638639,29.793335854706367,151.49232231916696,159.7982113126911,138.2569132180634,136.52714532035657,201.0910835681511,204.74959436227869
0.8341675008341676,24.34034223528977,29.72517818580488,153.07512320623144,160.0375614550917,138.12415281914073,136.38611641893948,201.2941328626933,205.1635849250736
0.8675342008675342,24.917785277450086,29.55362542877345,154.66695545608863,160.15599034232696,137.96351138399726,136.29621090741685,201.5023835001104,205.5386665056961
0.9009009009009008,25.48539756618005,29.294456526868725,156.2126476932887,160.20106958915977,137.802864775849,136.22787061918075,201.60265103677884,205.95293811271927
0.9342676009342676,26.019602530218663,28.906288590742413,157.78405682187338,160.09218647723628,137.6157538712178,136.20951073704325,201.67143693448327,206.3418415835937
0.9676343009676344,26.55450821144084,28.523459445337835,159.39054197255086,159.89328633653474,137.33168874483036,136.25229991607603,201.85109739003843,206.6580120675864
1.001001001001001,27.023364274829323,28.08798519047891,160.97479238910535,159.61668068142754,137.0251533208334,136.37026164517016,202.05757277954308,206.91165441548185
1.0343677010343677,27.460566749247164,27.69655140386841,162.51403328434233,159.37440584936968,136.61832597109418,136.526516813989,202.3429125364644,207.12422742522708
1.0677344010677343,27.78577232165213,27.18877048884932,163.9867116026118,159.03492293951132,136.19555838796578,136.7668303297782,202.6250255367867,207.27212055499567
1.1011011011011012,28.028752278938168,26.784606269851736,165.3550699023143,158.73420737456533,135.6625621426436,136.96280294662108,202.9700763399109,207.38731505042725
1.1344678011344678,28.14982832670468,26.216619553210503,166.59378214266548,158.24929859665303,135.10414189616438,137.18630578934864,203.3961408999401,207.50218444686848
1.1678345011678346,28.158328410500605,25.49533545869384,167.70752446546754,157.6939255580429,134.66931634404486,137.53944912642086,203.8291562796921,207.5510915714706
1.2012012012012012,27.99446531578532,24.60563018053521,168.631441523095,157.01590885948727,134.29673609040012,138.0421835745743,204.27403337170844,207.483227605044
1.234567901234568,27.71019402311516,23.57280177422542,169.18989182316398,156.269599382128,133.95242510580272,138.67529931631546,204.7366984958678,207.2945006841148
1.267934601267935,27.457909283628226,22.39132133590564,169.76968991489264,155.41355002711902,133.62058019525998,139.42770794323087,205.2150119884768,206.98917381050208
1.3013013013013013,27.15969544143308,21.01293238651996,170.54039279984016,154.49202358121516,133.33326184034254,140.29091294240513,205.69091176762208,206.5882093101625
1.334668001334668,26.701158848303105,19.544321578716225,171.12455679803813,153.48423674256557,133.0728598537323,141.24405033498698,206.1571797931773,206.0921740247732
1.3680347013680347,26.051879317060475,17.938133606707286,171.5342410994071,152.53075057938946,132.85685310566555,142.26596627349883,206.60010660753724,205.5185526737468
1.4014014014014016,25.209521215510065,16.280260933126748,171.61958671853,151.42753363293482,132.787744659412,143.34654889180925,206.95991904624523,204.8387195324201
1.4347681014347682,24.29670046465496,14.53417423866864,171.0307058800045,150.22177072544113,132.8004389979248,144.46607386821384,207.2469260339548,204.1106380849856
1.4681348014681348,23.228389513132942,12.862454462853156,170.26068957202526,148.9122559102272,132.88195740772423,145.56675435352906,207.44861482316884,203.34332560542111
1.5015015015015016,22.003129977917627,11.075494181398083,169.43740864384156,147.80019747269665,133.01827910357417,146.64535845301248,207.5628167167781,202.5771536283636
1.5348682015348682,20.86344914841348,9.485170096864463,169.2537766364173,146.70842806469375,133.05130465365016,147.67084091920236,207.6772962944352,201.8724577339261
1.5682349015682349,19.670740786142687,8.13681181411115,169.33450386352175,145.68168758303918,133.07929830995323,148.6587669573042,207.7876094115658,201.20101584824351
1.6016016016016017,18.32880594744333,7.022831558647227,169.44288467098323,144.5224330356964,133.09027001443124,149.58090877376725,207.9025335998001,200.55538923562852
1.6349683016349683,16.599237158128055,6.064810132998796,167.82742720247222,143.62176911513097,133.0751893216447,150.45516566136314,208.0268508466841,199.89516674358572
1.6683350016683351,14.892673826806517,5.421581737494254,166.73995666822617,142.7838932180225,133.07570969829072,151.28631041888403,208.1448682432381,199.22449068146463
1.7017017017017018,13.293735942579586,5.003104208749995,166.8414121728174,141.37138954252595,133.05509718198914,152.07771283653048,208.2349752514792,198.5345204759836
1.7350684017350684,11.8172421581176,4.927250018274729,167.00228719818182,140.24525908582473,133.0720896588665,152.83168240952216,208.24774091667948,197.80422829236252
1.7684351017684352,10.209398582447312,4.927250018274729,169.27714564458574,139.8986188642164,133.12826961599276,153.5289493068042,208.20121041082427,197.05030999042856
1.8018018018018016,8.652505422871132,4.927250018274729,171.11266707973198,138.79439222455517,133.26945752288526,154.20946233175923,208.0209539546197,196.2957580991692
1.8351685018351689,7.295604658120474,4.927250018274729,172.52815789118395,137.28139586055636,133.48729406398292,154.84934771146874,207.7389446577716,195.55381255338585
1.8685352018685355,6.250926281095665,4.927250018274729,173.61796625360026,135.4087164206461,133.6974155195888,155.42349366586456,207.4091338586984,194.83587823149296
1.901901901901902,5.286984539563688,4.927250018274729,174.27855010279112,133.3832630610931,133.89065013517552,155.94995019557308,207.05252244271705,194.14978664358185
1.9352686019352687,4.685038612086356,4.927250018274729,174.6439802308459,130.7549593367322,134.0076887416479,156.46682621970194,206.69620718554933,193.46864586245252
1.968635301968636,4.404123433421855,4.927250018274729,174.83154247851448,127.47358713618893,134.0031889886048,156.92472729976862,206.37261393857483,192.83915456461068
2.002002002002002,4.404123433421855,4.927250018274729,174.90098737828535,123.87007456882232,133.96043705204818,157.2845992193804,206.00618152222748,192.25708105733665
2.035368702035369,4.404123433421855,4.927250018274729,174.94784671629134,120.36194193532486,133.89957429260977,157.5305024386368,205.5861738194876,191.7616863947818
2.0687354020687354,4.404123433421855,4.927250018274729,174.84381923921697,116.59472704424398,133.78507815451874,157.7028883310942,205.2609358112486,191.2676672405662
2.1021021021021022,4.404123433421855,4.927250018274729,174.58682765479378,112.44797986791951,133.63774485060534,157.80307316402403,205.02314903781385,190.80279068905213
2.135468802135469,4.404123433421855,4.927250018274729,174.03485447066532,108.16521913123776,133.5407235138013,157.8287004041024,204.729789465931,190.3906302743104
2.1688355021688355,4.404123433421855,4.927250018274729,173.1538109634174,103.77140673927312,133.430504133604,157.77325739826193,204.4383614773568,190.0248851546873
2.2022022022022023,4.404123433421855,4.927250018274729,172.0283443296194,99.34206573276047,133.40982909121496,157.6812633862287,204.0813232732676,189.66618242085943
2.235568902235569,4.404123433421855,4.927250018274729,170.88558655696912,95.28571915188832,133.46937733358638,157.53998543337923,203.6819402576897,189.3346059316675
2.2689356022689355,4.404123433421855,4.927250018274729,169.57594439901916,91.3203381664494,133.7576970886163,157.4918597934338,203.17943894140768,188.98023221791829
2.3023023023023024,4.404123433421855,4.927250018274729,168.4909113479294,87.91682324712502,134.18708715063727,157.54765966824257,202.616904315428,188.5582019814931
2.335669002335669,4.404123433421855,4.927250018274729,166.9830824723482,84.55752680046945,134.59382469858926,157.60506890082942,202.07022663032024,188.11583021448087
2.369035702369036,4.404123433421855,4.927250018274729,163.87850486544045,81.64045179098414,134.95997836813137,157.65018692182693,201.5807677298284,187.70817292837825
2.4024024024024024,4.404123433421855,4.927250018274729,160.69304941340926,78.73969179744581,135.33754213002396,157.6546941127764,201.120334825086,187.34709081447613
2.4357691024357693,4.404123433421855,4.927250018274729,158.00168077250328,75.69037125598369,135.69782168383787,157.60509224256134,200.70057941473647,187.0292706061494
2.469135802469136,4.404123433421855,4.927250018274729,155.25625586053192,72.63508768005951,136.01454945928512,157.5039878299404,200.3391828985933,186.74850214382303
2.5025025025025025,4.404123433421855,4.927250018274729,152.58522581907363,70.3331936748452,136.30357254315027,157.3571116844878,200.030742993048,186.5191513051896
2.5358692025358693,4.404123433421855,4.927250018274729,149.96166592268804,67.77352960040223,136.57365839189623,157.18941938394093,199.78372230192468,186.3233037938917
2.569235902569236,4.404123433421855,4.927250018274729,147.68148928840907,64.99559507788402,136.79573178905014,156.98805168326126,199.6081676365504,186.2018057784578
2.6026026026026026,4.404123433421855,4.927250018274729,146.08657093239867,62.319061334324346,137.0039799647949,156.7871615418262,199.463879757396,186.10423820734425
2.6359693026359694,4.404123433421855,4.927250018274729,144.74256143118762,59.65832134301474,137.17181446222096,156.58223074869554,199.38373254271195,186.05755595080225
2.669336002669336,4.404123433421855,4.927250018274729,143.57960382909292,56.80488700713501,137.30330842222384,156.36177362753529,199.3703392649032,186.0186789258889
2.702702702702702,4.404123433421855,4.927250018274729,142.5981833922404,52.33585764754369,137.42807132919194,156.12976121138084,199.39953902332263,185.9921926814592
2.736069402736069,4.404123433421855,4.927250018274729,141.66742538176425,47.89370981868638,137.49627517152405,155.8912343917345,199.4845468287355,185.96528769902213
2.7694361027694363,4.404123433421855,4.927250018274729,140.60304387853392,44.8036389506878,137.4756319227899,155.63527556585612,199.62598450427245,185.966544369969
2.802802802802803,4.404123433421855,4.927250018274729,141.74624015046277,41.77864597639231,137.3455869923194,155.3646840023338,199.83576746366205,185.98056691125845
2.836169502836169,4.404123433421855,4.927250018274729,143.46671223091488,39.43532377822656,137.1354008912942,155.09401466646094,200.09861630516056,185.9822540327819
2.8695362028695364,4.404123433421855,4.927250018274729,145.05404726039032,38.159973021532,136.8588829817615,154.8269721743626,200.4124783928724,185.98257536439465
2.902902902902903,4.404123433421855,4.927250018274729,147.29286641609033,37.31395514229043,136.55800474777584,154.55978642305038,200.709199385512,185.97074792595944
2.9362696029362696,4.404123433421855,4.927250018274729,147.67376349375004,36.09556754785784,136.22495794206682,154.29580602654428,201.01739772595187,185.9510310793817
2.9696363029696364,4.404123433421855,4.927250018274729,148.0606244732569,35.22808122838723,135.8781576797961,154.0556510967034,201.36721898620004,185.91875885451265
3.003003003003004,4.404123433421855,4.927250018274729,148.57097546075957,34.46393475261171,135.5056326387958,153.83279789281488,201.7508860482628,185.89447674265165
3.0363697030363697,4.404123433421855,4.927250018274729,149.22350902599436,33.61721980896235,135.12317675370093,153.65739776902342,202.1522403646806,185.87187633610435
3.0697364030697365,4.404123433421855,4.927250018274729,150.19537612094845,32.81066502667748,134.71257702583722,153.47824045911145,202.60079304661275,185.87726881258507
3.103103103103104,4.404123433421855,4.927250018274729,151.12982794012163,32.20693956148986,134.39555575948717,153.43629955926497,202.9675344399152,185.66548310463816
3.1364698031364697,4.404123433421855,4.927250018274729,152.14107759207326,32.36277352021641,134.18638759779853,153.38521376656757,203.27278193044856,185.47571222870724
3.169836503169837,4.404123433421855,4.927250018274729,153.21856705113757,34.82971862645175,134.04361367608618,153.3710710989088,203.5608609774508,185.2106233652769
3.2032032032032034,4.404123433421855,4.927250018274729,154.21193784663714,37.27303693581255,133.87168907938968,153.33536987756278,203.9045712879547,185.03384750438067
3.2365699032365702,4.404123433421855,4.927250018274729,155.2627292394287,39.88964620917474,133.68873181686106,153.33154131899028,204.2937455090771,184.8747468773565
3.2699366032699366,4.404123433421855,4.927250018274729,156.26076706063412,42.33719443301192,133.49014476740575,153.29293013192688,204.71333314422787,184.8410832306748
3.3033033033033035,4.404123433421855,4.927250018274729,157.0765319262997,44.35465578272451,133.2138903458205,153.1766956965345,205.17301149097943,184.97847050414825
3.3366700033366703,4.404123433421855,4.927250018274729,158.11168259436494,46.33502009022816,132.932885141942,153.00397284698698,205.6835809293652,185.24065117497
3.3700367033700367,4.404123433421855,4.927250018274729,159.7506187337059,45.88729919342656,132.53825337805006,152.78086082580097,206.3208622494168,185.6784311429127
3.4034034034034035,4.404123433421855,4.927250018274729,161.33015018817127,45.92803381993737,132.09771258420702,152.49289580611634,207.03357303948363,186.2873959527961
3.4367701034367704,4.404123433421855,4.927250018274729,163.21065402623736,47.11641393721527,131.5434596095728,152.0350999335554,207.9229304113719,187.18882212016263
3.4701368034701368,4.404123433421855,4.927250018274729,164.02567867035995,48.25045988309685,130.95270559122233,151.45666781409815,208.83288238966497,188.29672297891832
3.503503503503504,4.404123433421855,4.927250018274729,160.02088846097104,48.53969291577668,130.22152365798445,150.76309320318686,209.82982921494093,189.4322421062961
3.5368702035368704,4.404123433421855,4.927250018274729,158.40317894279843,48.23994477138925,129.6191964209653,149.97043945973172,210.72720790551767,190.6146718483537
3.5702369035702373,4.404123433421855,4.927250018274729,159.79795827816966,48.20236123896704,128.9551510652548,149.0842835998538,211.61148072465923,191.97600461447155
3.603603603603604,4.404123433421855,4.927250018274729,161.9895532094894,49.02743124421754,128.4035760974053,148.2035946748311,212.3033306799773,193.46807419344543
3.6369703036369705,4.404123433421855,4.927250018274729,163.08351464868284,49.16460261113167,128.0349157526151,147.27053340510952,212.80951628091003,195.12679550980187
3.670337003670337,4.404123433421855,4.927250018274729,164.08354269196715,48.784240029692754,127.81365763427284,146.4603261502419,213.15657250405,196.7428374186268
3.703703703703704,4.404123433421855,4.927250018274729,164.9899523630011,47.32238206825574,128.24428808817282,146.0536281227345,212.98036047122164,198.41723856158416
3.737070403737071,4.404123433421855,4.927250018274729,165.92038831801557,46.771947348275134,128.8301791701575,145.6349412421632,212.6584199013763,200.05835117083595
3.770437103770437,4.404123433421855,5.13842185407676,167.55944256611852,46.01737727134008,129.26340579724032,145.56962343045237,212.166697706948,201.5279781706876
3.803803803803804,4.404123433421855,5.347152951914379,169.57306531879837,45.83651979718845,129.74776686461058,145.5864480048469,211.53968326786,202.89377250187616
3.8371705038371706,4.404123433421855,5.745498783265763,171.4656179937401,48.22853056243949,129.825553044006,145.3803744373632,211.0800198811357,204.147976769444
3.8705372038705375,4.404123433421855,6.347532896481559,173.00847844783075,52.84845128599152,129.9378975783986,145.09325392335128,210.56379783639537,205.3749623231353
3.903903903903904,4.404123433421855,7.026910222494612,175.3230931243155,57.68424932165991,130.35698345035658,144.50523270583074,209.917865599281,206.8095253311417
3.937270603937271,4.404123433421855,7.760275872615633,177.59592204872942,62.2216137803822,131.01976823514804,143.92967861839577,209.1421788469007,208.17855639691973
