Time,Left Shoulder Angle,Right Shoulder Angle,Left Elbow Angle,Right Elbow Angle,Left Hip Angle,Right Hip Angle,Left Knee Angle,Right Knee Angle
0.0,38.62195502850544,33.87259727714439,153.3017738284022,183.2920938535367,143.13749835726628,143.72841666495586,202.3606549172516,207.05948292062777
0.0333667000333667,25.257473303923383,31.7104235722062,152.24799775743458,175.48994885177527,141.9938801903686,143.38191917744962,202.54630230372297,205.89708781572705
0.0667334000667334,15.853082675387018,29.934735051363024,152.1361282876304,168.0550121634504,140.91992581515868,143.18011856446876,202.9238432380052,204.9207683350757
0.1001001001001001,10.09279980784283,28.521890589859066,152.86354350038926,160.97644643299026,139.91614054688364,143.11140045501372,203.47075561297456,204.11702080057827
0.1334668001334668,7.660641366237318,27.4482490629385,154.32762147711065,154.24341430482315,138.98302970079058,143.1641504780849,204.1645173215074,203.47234153413936
0.1668335001668335,8.240624015516971,26.69016934584552,156.42574029919405,147.84507842337726,138.12109859212654,143.32675426268284,204.98260625647987,202.97322685766352
0.2002002002002002,11.516764420628256,26.22401031382429,159.05527804803904,141.77060143308086,137.33085253613862,143.58759743780786,205.90250031076832,202.60617309305528
0.2335669002335669,17.173079246517695,26.02613084211903,162.11361280504514,136.00914597836214,136.6127968480739,143.93506563246046,206.901677377249,202.3576765622192
0.2669336002669336,24.89358515813177,26.07288980597389,165.49812265161188,130.54987470364932,135.96743684317948,144.35754447564105,207.95761534879816,202.21423358705988
0.3003003003003003,34.36229882041696,26.340646080633075,169.10618566913877,125.38195025337072,135.39527783670243,144.8434195963501,209.0477921182921,202.16234048948183
0.333667000333667,45.26323689831977,26.80575854134076,172.83517993902535,120.4945352719545,134.89682514388986,145.38107662358797,210.14968557860712,202.1884935913897
0.3670337003670337,57.28041605678666,27.444586063341127,176.58248354267118,115.87679240382892,134.4725840799888,145.95890118635515,211.24077362261943,202.2791892146879
0.4004004004004004,70.09785296076414,28.233487521878363,180.24547456147573,111.51788429342218,134.1230599602464,146.5652789136521,212.29853414320533,202.42092368128112
0.4337671004337671,83.39956427519868,29.148821792196653,183.72153107683857,107.40697358516252,133.8487580999097,147.18859543447917,213.3004450332411,202.60019331307387
0.4671338004671338,96.86956666503688,30.16694774954018,186.9080311701592,103.53322292347822,133.65018381422578,147.81723637783688,214.22398418560297,202.8034944319707
0.5005005005005005,110.19187679522508,31.26422426915313,189.7023529228372,99.88579495279748,133.52784241844176,148.4395873727256,215.04662949316725,203.0173233598762
0.5338672005338673,123.05051133070984,32.41701022627969,192.001874416272,96.4538523175485,133.4822392278047,149.04403404814582,215.74585884881017,203.2281764186949
0.5672339005672339,135.1294869364386,33.60166449616432,193.70397373186492,93.22655766216066,133.51387955756272,149.61896203309917,216.29915014540984,203.42254993033308
0.6006006006006006,137.6367219553482,35.58372106257988,193.02620548829915,90.69354776372856,133.49816526842676,149.92753131266016,216.4529357448853,203.50321358487315
0.6339673006339673,131.14354362094147,27.057406439246915,189.25484130146603,83.4482167560275,133.55691671355007,150.16707809611202,216.47781409398672,203.48023071287247
0.6673340006673341,126.56386182327384,22.709863350994468,184.64220808687057,76.32491944493839,133.6500832416851,150.33720032881283,216.2753958865736,203.36839231134465
0.7007007007007008,123.31151337884342,20.022978002091325,178.870695773418,71.48685863193307,133.9456870839194,150.53657984933972,215.5556093119368,203.1837934630865
0.7340674007340674,121.19138760695662,19.711736115506937,172.1592074694987,67.45983893821678,134.34328390880103,150.62807242283134,214.4578461530146,202.8860581693621
0.7674341007674341,120.11240078400016,20.647274021689853,165.52212938111853,65.84857912427518,134.87439199782384,150.5752164669055,212.9714775207858,202.5398103136689
0.8008008008008008,119.89197381830644,23.68841504862086,158.81338706758865,65.95351522137916,135.79525065498416,150.4747382103175,211.0331145111142,202.0837434379091
0.8341675008341676,120.82783528970027,36.99812197368117,152.1074343500251,67.37384395922118,136.84481612827622,150.3026054555143,208.85567354246936,201.4139392251325
0.8675342008675342,130.236397199175,49.69619183864111,145.46457730724632,69.38922018292936,137.92495071337572,150.0666991484005,206.6506310642129,200.7167226345004
0.9009009009009008,138.22028165939943,61.77244941639748,138.87023758280273,72.13164838028598,138.9329842816217,149.79646475089575,204.55855017645345,199.98277831806263
0.9342676009342676,133.64871386969125,70.299353019118,131.141252975532,75.38500549302259,139.91402576077215,149.41007377127082,202.08292060500767,199.1454615785636
0.9676343009676344,129.21002593226726,79.02129293200477,123.3774869441684,78.91668709639865,140.94714601912386,149.062302466365,199.5770610079573,198.2173557310564
1.001001001001001,125.15932809958562,87.83455239777624,115.67217713629545,82.63585044821941,142.0296916506614,148.77208771380742,197.0763138191741,197.1977109851106
1.0343677010343677,121.75173062410508,96.63541465915078,108.11856119949816,86.4516528062913,143.15900924937034,148.55836639122856,194.6160214725317,196.08577755029748
1.0677344010677343,119.24234375828422,105.32016295884704,100.80987678136152,90.27325142842044,144.33244540923636,148.4400753762588,192.23152640190355,194.8808056361881
1.1011011011011012,117.88627775458164,113.78508053958345,93.83936152947054,94.0098035724132,145.547346724245,148.43615154652852,189.95817104116315,193.58204545235373
1.1344678011344678,117.93864286545602,121.92645064407851,87.30025309141018,97.5704664960756,146.8010597883819,148.5655317796682,187.831297824184,192.1887472083656
1.1678345011678346,119.65454934336589,129.64055651505086,81.28578911476546,100.86439745721418,148.0909311956327,148.8471529533082,185.88624918483967,190.7001611137947
1.2012012012012012,123.28910744077,136.823681395219,75.88920724712146,103.80075371363492,149.41430753998293,149.29995194507893,184.15836755700363,189.1155373782124
1.234567901234568,129.09742741012687,143.3721085273013,71.20374513606305,106.2886925231443,150.76853541541823,149.94286563261082,182.6829953745494,187.4341262111897
1.267934601267935,137.3346195038951,149.18212115401636,67.3226404291753,108.23737114354832,152.15096141592423,150.79483089353428,181.4954750713505,185.655177822298
1.3013013013013013,148.25579397453345,154.15000251808274,64.33913077404318,109.55594683265356,153.5589321354865,151.87478460547968,180.63114908128043,183.77794242110832
1.334668001334668,162.11606107450052,158.17203586221888,62.34645381825173,110.15357684826589,154.98979416809067,153.2016636460775,180.12535983821277,181.8016702171919
1.3680347013680347,179.17053105625484,161.14450442914347,61.43784720938591,109.93941844819184,156.44089410772233,154.79440489295806,180.013449776021,179.72561142011995
1.4014014014014016,199.67431417225504,162.9636914615747,61.70654859503074,108.82262889023752,157.9095785483671,156.67194522375183,180.3307613285785,177.54901623946358
1.4347681014347682,223.88252067495984,163.52588020223132,63.24579562277127,106.71236543220924,159.39319408401056,158.8532215160892,181.11263692975905,175.27113488479404
1.4681348014681348,252.0502608168278,162.72735389383195,66.14882594019232,103.51778533191327,160.88908730863835,161.3571706476006,182.3944190134359,172.89121756568244
