Time,Left Shoulder Angle,Right Shoulder Angle,Left Elbow Angle,Right Elbow Angle,Left Hip Angle,Right Hip Angle,Left Knee Angle,Right Knee Angle
0.0,9.43465305684916,0.4052852594870937,176.86208292498955,182.0818525992096,170.6091546216407,224.3224501196214,180.89770956022195,178.01746482442826
0.0333667000333667,9.472362368786232,0.3133606895843046,177.13309485161642,181.24445432491984,170.82800884465055,223.5406365558136,180.9614909741813,177.976334775638
0.0667334000667334,9.485268598564623,0.2373944929200314,177.39286679626264,180.4644318307041,171.0355498097326,222.8345779831025,181.01630360750332,177.96732425433925
0.1001001001001001,9.475701405146644,0.1763903445960095,177.64067880337524,179.74207524723096,171.2309720845474,222.20079760686377,181.06347203052047,177.98796211895828
0.1334668001334668,9.4459904474946,0.1293519197139741,177.8758109174014,179.07767470516936,171.4134702367555,221.6358186324728,181.10432081356484,178.0357772279214
0.1668335001668335,9.398465384570803,0.0952828933756606,178.0975431827882,178.471520335188,171.58223883401746,221.13616426530533,181.1401745269687,178.108298439655
0.2002002002002002,9.335455875337566,0.0731869406828041,178.30515564398272,177.92390226795564,171.73647244399382,220.6983577107368,181.1723577410644,178.20305461258525
0.2335669002335669,9.25929157875719,0.0620677367371402,178.4979283454321,177.43511063414107,171.87536563434517,220.3189221741428,181.202195026184,178.31757460513856
0.2669336002669336,9.17230215379199,0.0609289566404038,178.67514133158343,177.0054355644131,171.99811297273206,219.9943808608988,181.2310109526598,178.4493872757412
0.3003003003003003,9.076817259404272,0.0687742754943304,178.8360746468838,176.63516718944047,172.10390902681502,219.7212569763805,181.26013009082416,178.59602148281945
0.333667000333667,8.975166554556345,0.0846073684006553,178.98000833578033,176.32459563989192,172.1919483642546,219.49607372596336,181.2908770110093,178.75500608479967
0.3670337003670337,8.869679698210522,0.1074319104611136,179.10622244272014,176.07401104643628,172.26142555271142,219.31535431502303,181.3245762835473,178.92386994010812
0.4004004004004004,8.762686349329107,0.1362515767774408,179.21399701215032,175.88370353974227,172.31153515984596,219.17562194893503,181.36255247877068,179.10014190717112
0.4337671004337671,8.656516166874411,0.1700700424513721,179.30261208851798,175.75396325047873,172.3414717533188,219.0733998330749,181.4061301670115,179.281350844415
0.4671338004671338,8.553498809808742,0.2078909825846428,179.37134771627018,175.68508030931437,172.35042990079054,219.00521117281812,181.456633918602,179.465025610266
0.5005005005005005,8.455963937094412,0.2487180722789879,179.4194839398541,175.67734484691798,172.3376041699217,218.96757917354049,181.5153883038745,179.64869506315048
0.5338672005338673,8.366241207693728,0.2487180722789879,179.4463008037168,175.73104699395836,172.30218912837282,218.95702704061733,181.5837178931613,179.82988806149476
0.5672339005672339,8.286660280569064,0.2915549866361431,179.45107835230675,175.84647688110567,172.24337934380586,218.97007797942595,181.66294725679603,180.00613346372663
0.6006006006006006,8.213950662171975,0.3354054007578468,179.40161865792612,176.06529699266375,172.12067320670275,219.1593225352517,181.7628560908313,180.0830890499283
0.6339673006339673,8.184357308430593,0.3550764591489659,179.3032473707426,176.30790586582663,171.9730416944366,219.3167594134629,181.89640128664,180.16586422269444
0.6673340006673341,8.186271206741884,0.3614171399179802,179.1760312308024,176.6639762008819,171.79246247949246,219.43206161139648,182.0588606088228,180.252934862629
0.7007007007007008,8.138465910941783,0.350668189252951,179.14553183397098,177.03525616332965,171.59152221390022,219.48145820203,182.23694169781405,180.35319999229228
0.7340674007340674,8.099107670612772,0.3316306420467572,179.12253364100283,177.48840830169672,171.3538715767143,219.5071942391085,182.43802588061243,180.44282543446576
0.7674341007674341,7.99126684343514,0.3313759525199188,178.99293352433975,178.08483974783687,171.07868109306185,219.5625347839836,182.6561847815632,180.48523902589884
0.8008008008008008,7.957236995106695,0.3317443411243047,178.79153595866876,178.8049567159239,170.7646659791751,219.5978104264211,182.89278185302345,180.5118399535655
0.8341675008341676,8.038750228810281,0.3202028416728938,178.5309579960994,179.5008033058676,170.42794153506205,219.5875091026838,183.1421295269444,180.52472701146192
0.8675342008675342,8.235501393737335,0.3705709254415624,178.18734982257567,180.22023527764733,170.08565498213235,219.50602564084244,183.39488185593547,180.54977419442463
0.9009009009009008,8.446889406736457,0.3705709254415624,177.73260584991013,180.96016066841256,169.72861203842044,219.36116639883213,183.65624348886809,180.601294545856
0.9342676009342676,8.720838715429457,0.4652952702128444,177.2785901187833,181.78674966330607,169.36687625782935,219.15007179807608,183.9221907542969,180.6749838032396
0.9676343009676344,9.008318920940043,0.4652952702128444,176.8305695219217,182.5631066706717,169.03313023126992,218.9401339649741,184.179663098482,180.7454730834125
1.001001001001001,9.364071753971608,0.4652952702128444,176.45583633651984,183.3271963276918,168.72862239391566,218.73182956467835,184.43072609742737,180.8022896128836
1.0343677010343677,9.73505687570818,0.5528178730819341,176.19529675940967,184.28085453722585,168.4656677214204,218.50899622222624,184.6728933624721,180.861637143019
1.0677344010677343,10.206981786904084,0.5528178730819341,175.98735163232507,185.3153439527724,168.2284784420981,218.2867959608528,184.9059180621313,180.9109449785604
1.1011011011011012,10.712616978474436,0.5528178730819341,175.8193203420742,186.3769224020328,168.0333087191263,218.11775934166783,185.11784877135625,180.91691934875905
1.1344678011344678,11.301863604504062,0.6512733254301714,175.7226116649909,187.3684735647423,167.86627190508207,217.9759115817891,185.31050992955,180.8879267171081
1.1678345011678346,11.937182456166122,0.6512733254301714,175.6382829561756,188.24088862856283,167.7119548276582,217.7915181265673,185.49519169505515,180.8818796596244
1.2012012012012012,12.668512864420151,0.6512733254301714,175.56586894984758,189.0035348519028,167.57401194650396,217.57512446554767,185.66886092343333,180.8918448480004
1.234567901234568,13.371793973298397,0.7683974830065335,175.41313468544692,190.13373528036823,167.4637805339817,217.36964309704763,185.8216549059914,180.89583570079373
1.267934601267935,14.179850600553523,0.7683974830065335,175.38596839057104,191.190914423486,167.39422880927083,217.14905715367715,185.95565080936555,180.89628382153603
1.3013013013013013,15.123110230572308,0.7683974830065335,175.12426618328766,191.95713547697173,167.34309933766122,216.98078077748104,186.0627303879253,180.86156470024537
1.334668001334668,16.197072763292606,0.8788990639409242,174.91218120367515,191.94788597835804,167.32469606959543,216.8164047809842,186.1443754465695,180.82253457056112
1.3680347013680347,17.309742472423757,0.8788990639409242,174.7490730659779,192.41949672598068,167.3543860443836,216.65627041379216,186.1831892002473,180.79725030992017
1.4014014014014016,18.49685654890685,0.8788990639409242,174.73669644114392,192.6655935593161,167.4175632431272,216.44957102801123,186.18336678971613,180.8297850489903
1.4347681014347682,19.78390287389681,0.8788990639409242,174.49353495490644,191.89117559125853,167.48579256145172,216.19571128401984,186.16385408477828,180.9179230850456
1.4681348014681348,21.133034328980795,1.008719361255319,174.38789484735508,191.56943652551467,167.59086016753687,215.90318223931493,186.12176173913645,181.0513286375464
1.5015015015015016,22.37531473306869,1.008719361255319,174.68299801249228,190.3922471537101,167.76043761353986,215.5726365398016,186.0384180255605,181.23216668020203
1.5348682015348682,23.689020451557816,1.008719361255319,175.09893049363637,189.52369190286456,167.89174515412887,215.2945465536986,185.9684825560209,181.38212582916287
1.5682349015682349,24.87291142536857,1.008719361255319,175.38978764249214,190.30154112632536,168.0110588624237,215.0808742430628,185.89300437866143,181.50484201887977
1.6016016016016017,26.095659767657324,1.1389585146939494,175.86756952279185,191.45150197601123,168.18790382889864,214.8405150328404,185.7800163594904,181.6483529733028
1.6349683016349683,27.167241125476707,1.1389585146939494,176.61890563288347,189.67583253154592,168.39456567710965,214.6113188608869,185.63334392099787,181.80314834159503
1.6683350016683351,28.2887114267364,1.1652045580479409,177.5940462008303,188.3744545242651,168.62699837800872,214.38845975824404,185.4692343810277,181.92566738679207
1.7017017017017018,29.430755091585603,1.1809594633591562,178.68596367037696,189.7231856616408,168.91474515050191,214.171591747739,185.27514016746863,182.0349021386888
1.7350684017350684,30.720612662068305,1.260873950467475,179.837698987782,190.9278088069117,169.19782003991278,213.9456389609577,185.0870181432976,182.1313210702079
1.7684351017684352,32.28737314254298,1.260873950467475,180.7301647283037,192.1454367489016,169.47093019404937,213.7353121184505,184.9004735163525,182.2197718369808
1.8018018018018016,33.9392332280247,1.260873950467475,181.70837286400803,193.1859151159529,169.75940426517,213.43828801417672,184.7071092680617,182.32814566033488
1.8351685018351689,34.960079621236865,1.3528288759241367,183.2738514131497,197.968217997432,170.05694466374084,213.05693308619087,184.5127975615221,182.47180689942527
1.8685352018685355,36.063100137025806,1.3528288759241367,184.9053646182386,201.69648202469168,170.35029905163634,212.65963995861344,184.325039931526,182.6039215761688
1.901901901901902,37.54435957794646,1.3528288759241367,188.4672136464356,202.20942676721023,170.63793709709276,212.273030773354,184.13022090461928,182.71596667145803
1.9352686019352687,39.14117860545157,1.4535915649195492,189.00817034119788,201.18743684867607,170.9331180902242,211.8460572646337,183.9367767970662,182.8393672304128
1.968635301968636,42.93029040983346,1.4535915649195492,191.2702794646314,199.8318619523788,171.2502650221762,211.3773440623095,183.7515113679156,182.9472004233542
2.002002002002002,46.273047668408886,1.4535915649195492,192.9594512132637,196.451342745672,171.57088173616762,210.8993717839712,183.57785535442696,183.0517039670555
2.035368702035369,48.31415130115177,1.5646578336689552,191.9531728016948,194.0115350768072,171.88654953832213,210.4458295595899,183.4170251479416,183.14246509970187
2.0687354020687354,49.89324267357674,1.5646578336689552,191.29459041736456,191.0379404063393,172.21126501333592,210.06274360581656,183.2606323884229,183.18110504326967
2.1021021021021022,50.63660025099926,1.5646578336689552,196.51153075768613,187.60854205757047,172.5407038075742,209.7522139889431,183.10312342247624,183.176178045301
2.135468802135469,51.0229001803202,1.6921062591792972,200.4412889066297,184.090551450034,172.85125929117692,209.48137557647064,182.9596005777481,183.1371050665391
2.1688355021688355,50.82992547340807,1.6921062591792972,202.43563862112816,181.8039147334468,173.13836620419917,209.28112977088176,182.8326532225601,183.064421641716
2.2022022022022023,50.65955662166979,1.6921062591792972,203.67469204594016,177.6225113332854,173.40703587215052,209.1510056769064,182.7189153952773,182.9417174042553
2.235568902235569,50.0978428316228,1.6921062591792972,204.3158629077353,172.88648199521572,173.6487367346388,209.0872360811199,182.6202087970048,182.78133706089736
2.2689356022689355,49.43448184950326,1.7965830118381458,203.97247959809405,168.2900033428125,173.85196317610925,209.0126486374388,182.54520614057768,182.62533603606275
2.3023023023023024,48.5905207724192,1.7965830118381458,202.5993543738648,163.87485102608215,173.99953227021436,208.92887915695968,182.50359978808257,182.47547785393823
2.335669002335669,47.721724922820194,1.9249474262549515,200.3837661551928,159.70649212860798,174.11976462644367,208.90963925807537,182.4744691137204,182.2730085990285
2.369035702369036,46.73099480748238,1.9954256590737096,197.2245605816838,155.0719308861592,174.209575374334,208.96033452220664,182.45939268648505,182.02395084440585
2.4024024024024024,45.98440588483296,2.010330161321897,193.5802260892751,150.82849688529117,174.26656725520604,209.06407031152904,182.4589165203189,181.73966742045428
2.4357691024357693,45.06645640329752,2.0084127597519204,189.2240412001332,147.04433508307352,174.2448190762911,209.25162065904684,182.48284001770085,181.4221825097613
2.469135802469136,44.34009654975261,1.780573368946908,184.9373781539264,143.21169228471538,174.21166526125216,209.429122102688,182.52326791605864,181.1161658541153
2.5025025025025025,44.03626902444247,1.5211927292331793,180.4173681041809,139.95144352059071,174.1793325804606,209.61655542352665,182.5588867004254,180.81596528782023
2.5358692025358693,43.8548289196377,1.3531034434741382,175.5567641876866,136.2689716018875,174.13370626473017,209.77379512890732,182.602174150306,180.54449671661231
2.569235902569236,43.84410876679037,1.2772121881351488,170.28119378797948,137.23085917418837,174.07427527806297,209.9341453284308,182.6436564820372,180.26333913144595
2.6026026026026026,43.46376466747387,1.1461142152270445,165.27707853531834,137.97822099412767,174.04154558826116,210.0853609687575,182.66254541892783,179.99739236207623
2.6359693026359694,43.25295280313966,1.0620126583556515,160.31857381678253,135.26573667459604,174.0592691569739,210.2387549334048,182.64170879312144,179.73464065253208
2.669336002669336,43.329562003445695,1.403760984767202,155.1684428232489,133.50945891731746,174.112830727961,210.40953405135167,182.60273615627585,179.47794798137863
2.702702702702702,43.28242911637374,1.6893671401312085,149.8945483745965,132.10509731644493,174.20531304651462,210.60819696275,182.5433318477665,179.28524025199903
2.736069402736069,43.5100513805814,2.110687109716106,144.7999803105141,128.28702749787152,174.28160981478922,210.8939987744095,182.44654315243145,178.89133940073376
2.7694361027694363,44.12574638148504,2.110687109716106,140.49893055939037,126.93007949580009,174.36626010550538,211.1761369345733,182.36081967367127,178.57263694116642
2.802802802802803,45.49324869117622,2.110687109716106,136.62630845406767,128.96166448406345,174.5205282035327,211.4441654236653,182.29044296432312,178.3018004444591
2.836169502836169,47.15914306177711,2.110687109716106,133.03564599194942,132.19145784186952,174.73594608557832,211.6725234193508,182.23663254861304,178.09049256932366
2.8695362028695364,51.069246969807054,2.110687109716106,127.80712399475549,134.75923943953873,175.01593360669332,211.83241928813987,182.20442599360985,177.92109051220436
2.902902902902903,54.78285658298085,2.110687109716106,124.08918289379618,138.4669214616195,175.32377999919612,211.94366937685348,182.1858104668252,177.81436881277224
2.9362696029362696,57.79545078520838,2.110687109716106,120.59673106184624,140.84477888370827,175.6157652219852,211.893064883668,182.2045682015496,177.7749758933654
2.9696363029696364,60.18953285736564,2.110687109716106,118.65770645532596,143.61793879965322,175.8915274624821,211.8000444007381,182.2373747697791,177.80016309828648
3.003003003003004,62.62913823841943,2.110687109716106,117.7982497201052,140.72763756955726,176.0883446717737,211.62048620225752,182.3128548140537,177.8465953381523
3.0363697030363697,64.68850574282607,2.554714743139489,116.9822667631512,137.17382425704608,176.3269133045357,211.5020931382736,182.34156879948847,177.91630493851122
3.0697364030697365,65.08965873514929,2.4421030032630813,116.5075208169608,136.57765648268713,176.63714384589008,211.50005579826984,182.3730067906516,177.97578110963394
3.103103103103104,65.68218524866239,2.4421030032630813,120.1454871149757,135.9444710091334,176.96722059600015,211.5143705566811,182.43138107803424,178.09059224779065
3.1364698031364697,65.17761981165404,2.4421030032630813,122.69284666636813,137.94080292191933,177.24441696633684,211.52513870815352,182.49299356775228,178.2011617715744
3.169836503169837,64.08212613857278,2.4421030032630813,126.14332476439289,141.83528455691498,177.4857452854795,211.5821245797446,182.54404366293423,178.3955947459308
3.2032032032032034,63.15348342953572,2.4421030032630813,139.89071380470668,144.8431146148835,177.71662475035134,211.7337412763492,182.593670025924,178.56536390868146
3.2365699032365702,61.63672208102015,2.4421030032630813,154.0727885846402,147.263672031698,177.92030189220782,211.91362468711787,182.63936267279755,178.8242773252379
3.2699366032699366,59.75613106597996,2.4421030032630813,154.77277731119557,145.58057713835285,178.0819211708656,212.23120012051413,182.70608771576133,178.9515050165365
3.3366700033366703,57.44075936626548,2.4421030032630813,156.7841881206871,144.17536852363045,178.21620784026618,212.52308252743416,182.7826186402984,179.24410290375127
3.3700367033700367,55.09383447996424,2.4421030032630813,160.16237767573594,141.19446016395787,178.2330311620826,212.5536727139178,182.91686535760343,179.81947580372162
3.4034034034034035,52.249341586404334,2.2774292631152964,163.66113447813566,139.82037931929906,178.20140370825405,212.50995368996087,183.05076212707328,180.6232835449965
3.4367701034367704,49.503573412440815,2.833889004771513,166.96774272102658,137.68580713187615,178.21378501422146,212.5045619073693,183.2068188531292,181.38597409800423
3.4701368034701368,46.58687783021127,2.833889004771513,170.14790271533488,136.17906520266183,178.24545087580427,212.49999479649472,183.34712130735224,182.3138288439652
3.503503503503504,43.731140931077945,2.833889004771513,173.42935889930774,135.8286298729779,178.19537323699572,212.50243881947665,183.62526069640964,183.40499180594176
3.5368702035368704,40.74221134456685,2.833889004771513,176.61471867755364,136.18350640022865,178.15709176229478,212.50910751207613,183.8554069407762,184.6653169394918
3.5702369035702373,37.76912112277392,2.833889004771513,179.71155113271806,138.05248810610172,177.43792644193044,212.6888431662502,184.6416416291799,186.66297934444847
3.603603603603604,34.68806974476787,2.833889004771513,182.7869121695026,139.5383615047623,176.58459180872137,213.55611179094203,183.08670124834308,189.7428781048108
3.6369703036369705,31.81763390801277,2.833889004771513,185.6376481784677,141.3979511052995,176.50112889980548,213.36370518204944,184.01954872753947,190.52169259969023
3.670337003670337,29.15650052983071,2.833889004771513,188.0198849147088,143.93976975216825,176.79826791213037,212.9609578656007,184.8423598105532,191.36381951272656
3.703703703703704,26.121295649093607,2.833889004771513,188.06885145800263,149.1204523884729,177.2530842674161,213.00231485761748,185.2869702393932,192.0150075759635
3.737070403737071,23.25474220258683,2.833889004771513,187.8532768740749,154.85467464734907,177.94253436892058,213.1086390902828,185.22784944636064,192.86228542832887
3.770437103770437,20.445840397991383,2.833889004771513,190.67655550336391,153.8296672505976,178.94987374090832,213.2273534099207,184.39988248245467,194.2198061471929
3.803803803803804,18.29542565143423,2.833889004771513,193.0707196267508,152.03747251567953,180.17367560919723,213.32055542651264,183.19740518254204,195.67281981173423
3.8371705038371706,15.83787267826027,2.833889004771513,195.19534310351585,152.4649112389347,181.3887313994304,213.06575732206224,182.0463127697105,196.97250188358623
3.8705372038705375,13.90895997983108,2.833889004771513,196.44063652382223,153.66619950494044,182.7041931184738,212.8462934345283,180.6792747658008,198.2768140800784
3.903903903903904,12.697576577359095,2.833889004771513,194.7945961187048,156.31337210053047,184.088468214118,212.7250644683885,179.14889465741504,199.4708115207938
3.937270603937271,12.32293104333836,2.833889004771513,192.25320033594423,160.72410740912565,185.5522791405361,212.53344438350103,177.5642643897231,200.92766772088672
3.9706373039706375,11.752658734173972,2.833889004771513,186.0866052668367,163.9919324556814,187.1078043913958,212.32189691889897,175.9242164477266,202.4041280373461
