Time,Left Shoulder Angle,Right Shoulder Angle,Left Elbow Angle,Right Elbow Angle,Left Hip Angle,Right Hip Angle,Left Knee Angle,Right Knee Angle
0.0,32.45106850637387,39.50036949171069,160.34160520669022,160.4865071368792,138.19591812777904,138.2145076825227,198.8315649682613,204.545156639502
0.0333667000333667,32.406364491063485,39.62739955039017,160.3264717954382,160.18190766552556,138.07637703938605,137.92701350935548,199.41803047562823,204.16490994367783
0.0667334000667334,32.37644316173741,39.7209254442836,160.34423709851407,159.91542860937608,137.96675550928026,137.68517601647582,199.9354915521224,203.8371284023088
0.1001001001001001,32.360739016896346,39.78259586733104,160.39275749620643,159.6840311287596,137.8658836375563,137.4866518400355,200.38830140426816,203.55837162667788
0.1334668001334668,32.35868655504098,39.81405951347254,160.46988936880385,159.48467638400487,137.7725915243087,137.32909761618637,200.78081323859,203.325199228068
0.1668335001668335,32.369720274672,39.81696507664817,160.573489096595,159.31432553544073,137.6857092696321,137.21016998108013,201.11738026161223,203.13417081776203
0.2002002002002002,32.39327467429009,39.79296125079796,160.70141305986849,159.16993974339604,137.60406697362106,137.12752557086858,201.40235567985937,202.98184600704303
0.2335669002335669,32.42878425239594,39.74369672986198,160.85151763891295,159.04848016819955,137.5264947363702,137.07882102170353,201.64009269985576,202.86478440719395
0.2669336002669336,32.475683507490245,39.67082020778028,161.02165921401698,158.94690797018015,137.4518226579741,137.06171296973673,201.83494452812585,202.7795456294977
0.3003003003003003,32.53340693807368,39.57598037849292,161.2096941654692,158.86218430966662,137.37888083852738,137.07385805111997,201.991264371194,202.72268928523724
0.333667000333667,32.60138904264694,39.46082593593995,161.41347887355826,158.79127034698774,137.30649937812458,137.11291290200506,202.11340543558464,202.69077498569555
0.3670337003670337,32.67906431971072,39.327005574061424,161.63086971857274,158.73112724247235,137.23350837686036,137.17653415854377,202.20572092782223,202.6803623421555
0.4004004004004004,32.7658672677657,39.1761679867974,161.8597230808013,158.6787161564493,137.15873793482925,137.2623784568878,202.27256405443111,202.68801096590013
0.4337671004337671,32.86123238531256,39.009961868087935,162.09789534053252,158.63099824924734,137.08101815212586,137.36810243318905,202.31828802193573,202.7102804682124
0.4671338004671338,32.96459417085201,38.83003591187308,162.3432428780551,158.58493468119536,136.9991791288448,137.49136272359922,202.3472460368605,202.7437304603752
0.5005005005005005,33.07538712288472,38.63803881209289,162.5936220736575,158.5374866126221,136.91205096508062,137.62981596427016,202.3637913057298,202.78492055367144
0.5338672005338673,33.19304573991138,38.43561926268742,162.84688930762852,158.48561520385644,136.81846376092795,137.78111879135358,202.37227703506807,202.8304103593842
0.5672339005672339,33.31700452043294,38.22442595759704,163.10090096025797,158.42628161522845,136.71724761648247,137.94292784100242,202.3770564314013,202.87675948879803
0.6006006006006006,33.41720481082339,38.00144173255052,163.35920993829538,158.29964926012764,136.60531004170775,138.06977752291283,202.43127812484377,202.9318256671939
0.6339673006339673,33.522470699821525,37.79292734676461,163.5179915957629,158.21430820124388,136.4908402021541,138.25339151401226,202.48500605195525,202.90837813827272
0.6673340006673341,33.62159592426441,37.612167710158566,163.65819136952166,158.16133726309806,136.38587315799478,138.44446456802334,202.5272889258673,202.901919361568
0.7007007007007008,33.75528213934194,37.4160610812152,163.85195176382797,158.06696912371385,136.2389019920764,138.61037555524243,202.5844811048211,202.91521836281825
0.7340674007340674,33.88497720513587,37.17385333974734,164.01142641071178,157.84637729906547,136.0924137808119,138.7305464737339,202.6254937809104,202.91192836822665
0.7674341007674341,34.03791584226112,36.93791572518723,164.1780935446903,157.59282370895062,135.90618696536848,138.89563788277462,202.70354158196767,202.83576656745288
0.8008008008008008,34.20801267244744,36.73536545729477,164.3658860065804,157.3774705535708,135.6940900324458,139.09215449591213,202.81320535026924,202.71184112092504
0.8341675008341676,34.40152745436361,36.55114070379455,164.6165994897551,157.1758331377949,135.47234255261444,139.2975780738453,202.9587307185224,202.55313546932223
0.8675342008675342,34.63185435111974,36.41448022915342,164.92440180094226,156.9615192114481,135.25269771748444,139.43774105586212,203.11553319051103,202.3597650918603
0.9009009009009008,34.848471888530185,36.298204047884205,165.0929408041183,156.74054358103723,135.0211069930003,139.54946263959158,203.28733582874108,202.158043946674
0.9342676009342676,35.045284240029915,36.20402232925463,164.68917838283997,156.45534166939325,134.74770955026042,139.59074392571748,203.5333068122034,201.99050313703492
0.9676343009676344,35.2514152105422,36.08905419160323,164.97682380093673,156.15752157297956,134.4571162442035,139.6729103356422,203.8255654017725,201.81617395632327
1.001001001001001,35.4827211662945,36.00897145375563,165.39152812593818,155.97785042606327,134.14985025432557,139.7190774855253,204.1314629209801,201.66953852200768
1.0343677010343677,35.71712517108345,35.931325784852646,165.93041219057554,155.86479218876016,133.85574689836022,139.7922089300489,204.4576264013477,201.4985274506432
1.0677344010677343,35.89308285990264,35.845731175106984,166.0981724638727,155.66595345324097,133.57756222295535,139.8340272111409,204.77766466467787,201.2963714404708
1.1011011011011012,36.00119429111828,35.62317153065295,166.49933072482776,155.44776868489714,133.3060463936363,140.01518222867873,205.0865962259669,201.0265132129471
1.1344678011344678,36.01680022176381,35.36324852082594,166.7600473655675,155.26607228878945,133.0732905166312,140.29399395844973,205.379464480869,200.6766381218665
1.1678345011678346,35.9801947381644,35.11217812041493,167.05362674129245,155.21728507170096,132.87298070375164,140.69528729157076,205.6745440057969,200.23875260458124
1.2012012012012012,35.946746919640084,34.880738350486894,167.1651422826931,155.3114121033012,132.67092569567737,141.1591753149872,206.01769998278337,199.72131293486345
1.234567901234568,35.87997199951576,34.55528191400936,167.39699270769415,155.40444255430742,132.43636395842108,141.69390942014252,206.37680597867643,199.23687652329835
1.267934601267935,35.81046864354689,34.33200212875798,167.78148878432515,155.68745576055792,132.2668589528176,142.32013852942535,206.5889902156221,198.71389058394504
1.3013013013013013,35.68951892034608,34.03598251193703,168.3052758899561,155.89836727787613,132.07761028302463,142.9570306920415,206.8013082743644,198.226432945404
1.334668001334668,35.515527262363875,33.82865776046374,168.51052825976768,156.31216920175152,131.85765657660593,143.5945924943809,207.05446378879893,197.78782146892607
1.3680347013680347,35.23576837946335,33.443382366460646,168.85283818214117,156.5161703171542,131.68164681257176,144.2778424011356,207.3264798843448,197.4144503570544
1.4014014014014016,34.85429614419517,32.96581926719878,168.836405436106,156.75737171464587,131.55629571987745,144.97474429238503,207.6048830808756,197.1269953701897
1.4347681014347682,34.37634866678661,32.335351664111045,169.1039474085015,156.8160119502155,131.43591836713216,145.69535793018804,207.90777997535665,196.87544746145485
1.4681348014681348,34.0294260465865,31.753332711587618,170.33525922879505,156.73443133050952,131.33963703637116,146.44779581238993,208.2378789621972,196.63329636046075
1.5015015015015016,33.62369757700064,30.974093990921407,171.8230286868797,156.29329160732323,131.20102693629775,147.2264319330199,208.63694040707009,196.40077331595643
1.5348682015348682,33.2163176991406,30.09611424728983,172.2875156958094,155.17420115586611,131.03728563194505,147.99989379141942,209.0660021943192,196.22413478506004
1.5682349015682349,32.65250619334191,28.98207384734105,173.0531742463879,153.70876652480115,130.88094471385563,148.74531055460568,209.5085606580055,196.1045281033805
1.6016016016016017,31.95061823003452,27.52675263129752,173.99731701616005,153.93326267588344,130.69222989556127,149.4497684091543,209.9331887557728,196.0283759397265
1.6349683016349683,31.100214659953064,25.907470678154063,175.31047109913618,153.92017862333938,130.4797691791213,150.12400342642036,210.3724343134612,195.9986375178533
1.6683350016683351,29.93020429919193,24.254717777647222,176.58228133790644,153.78119923885947,130.31951099156916,150.78683290754196,210.79648436379503,195.9993009611602
1.7017017017017018,28.526470582424064,22.63813688512246,178.38778542574863,153.272495044418,130.21630609113896,151.51681479209884,211.2136821033656,195.929763185944
1.7350684017350684,26.7167095193627,20.21714236503555,183.72569667944364,152.61722075741233,130.18021404068614,152.26213029052465,211.64895411790388,195.85107130628512
1.7684351017684352,24.876444200591145,17.01467758183134,188.1194651552184,151.77752682337575,130.1647529538125,152.94210927846774,212.1007425485628,195.8341378064985
1.8018018018018016,22.788929143686342,14.732242198181508,191.549828661956,149.422469490324,130.17179890294227,153.53686349415543,212.5718579567544,195.8870140072996
1.8351685018351689,20.9308762000446,13.046373051442584,194.27121291219817,146.83837883685788,130.15820648637572,154.0848355354017,213.06465730041893,195.9175926042227
1.8685352018685355,19.06075021188125,10.78228531784375,196.5104635356509,145.18704050230085,130.06611460988896,154.56827536631667,213.56594717987247,195.95862039069297
1.901901901901902,17.57690079405215,1.3412925449602973,198.2090263200496,143.25032316511246,129.91286602456182,155.01705234250193,214.10084731717103,196.02196413787524
1.9352686019352687,16.1391864925246,1.3412925449602973,198.69203661665568,140.67407760324014,129.7420820883679,155.36346427125594,214.6289715071821,196.09312431265155
1.968635301968636,15.095286818753912,1.3412925449602973,198.71534223864825,137.46712161345263,129.55290713055743,155.58480504911023,215.15013465468573,196.167132417104
2.002002002002002,6.132302530375878,1.3412925449602973,198.12147973815985,133.31811778309617,129.3522717692181,155.72531240596462,215.6530336817985,196.2614788493164
2.035368702035369,0.3483888865288254,1.3412925449602973,197.3611422348329,128.5472981385409,129.1201409712392,155.8026063700182,216.1872475668441,196.3825329317666
2.0687354020687354,-2.1440144862619697,1.3412925449602973,196.17963112705945,123.7079861020985,128.8766566170467,155.7237031408605,216.7453137950254,196.5217250870924
2.1021021021021022,-2.026278308045783,1.3412925449602973,194.7582880698409,119.01680294964784,128.6600508449252,155.5619448349214,217.26390012702683,196.65288687773892
2.135468802135469,0.6378458683886974,1.3412925449602973,193.0283081830104,112.35733770729055,128.41108315048947,155.41162427692126,217.7560769328717,196.79359512256903
2.1688355021688355,0.6378458683886974,1.3412925449602973,191.27694797745465,106.06730722346408,128.17716291056382,155.22547220909007,218.24837273171792,196.89015350837911
2.2022022022022023,0.6378458683886974,1.3412925449602973,189.19117684558208,103.64126931013318,127.93601705700692,154.90040697345543,218.692531058968,196.9452463056752
2.235568902235569,0.6378458683886974,1.3412925449602973,187.2538269743129,101.70298434628316,127.74510836412892,154.5457441352361,219.1397435805916,196.96630697772
2.2689356022689355,0.6378458683886974,1.3412925449602973,185.02450579319387,96.37409520198746,127.59764060801574,154.12366391494473,219.58974486364943,196.97942439966303
2.3023023023023024,0.6378458683886974,1.3412925449602973,182.7980289979945,91.47447307088918,127.49005315253304,153.66166861014136,220.04096434696373,197.0005079038367
2.335669002335669,0.6378458683886974,4.306954739049966,180.61864484004192,87.32666234890982,127.4652202280446,153.07160931265764,220.4699632041588,197.02373374557305
2.369035702369036,0.6378458683886974,7.732707503488322,178.6849017631425,83.76376627767121,127.50932744825766,152.48075379067186,220.8129298747409,197.0710742667495
2.4024024024024024,0.6378458683886974,10.630992330893296,176.51102873731963,81.44261451823566,127.59581234113466,151.86420562673084,221.07824283337183,197.131141282037
2.4357691024357693,0.6378458683886974,13.30925491258892,174.16469404671562,79.46844405866483,127.62542368393382,151.23006695109868,221.4515468655926,197.2630306351103
2.469135802469136,0.6378458683886974,16.36427913413452,171.6223143231832,77.9436584611158,127.643142943242,150.61039970161352,221.86804251596456,197.42418415782257
2.5025025025025025,0.6378458683886974,19.5717556101006,169.49062337444937,76.64220510539992,127.68557487508816,150.04637757914898,222.2657355872647,197.5892575804841
2.5358692025358693,0.6378458683886974,13.256057264973826,167.47627530369618,75.82346371839998,127.6837812213748,149.50005269913768,222.68203272762148,197.7756699051052
2.569235902569236,0.6378458683886974,10.0478640498058,166.2791956025143,75.2396388572472,127.6771786793308,149.02748716732071,223.09605192210344,197.940058519706
2.6026026026026026,0.6378458683886974,9.762024131510977,165.48036671339133,75.14227360056265,127.6810406123426,148.6440858195819,223.49092244879964,198.08284931401536
2.6359693026359694,0.6378458683886974,11.821140731210338,164.18342964394506,75.43370175896575,127.68532036535964,148.33763642621042,223.8495964363328,198.21947856797613
2.669336002669336,0.6378458683886974,16.251721554087112,162.71365647183546,76.30980502456154,127.68330697129224,148.11439613397675,224.1738136334872,198.3301138823648
2.702702702702702,0.6378458683886974,22.75202779915675,162.73459881527822,78.21477360630006,127.68597497171416,147.97054895670718,224.4774983297516,198.42387030680564
2.736069402736069,0.6378458683886974,31.234660636679376,163.58136408691198,81.05838887841202,127.67750057212308,147.94048260701152,224.768002409342,198.502007389999
2.7694361027694363,0.6378458683886974,41.321108536762296,165.20975852586923,82.34405892495748,127.72651220333408,147.99714135902173,225.06241885746468,198.5950199767628
2.802802802802803,0.6378458683886974,52.43818874168956,167.31463948332305,83.53112017171026,127.8275287499238,148.17845729528335,225.359996309337,198.63186509043328
2.836169502836169,0.6378458683886974,72.6232308362083,170.43039243489824,83.70652320963403,127.93294231346502,148.40394941157678,225.66712671749085,198.70054914692227
2.8695362028695364,0.6378458683886974,91.49325988582524,173.9932893133927,84.91679465444,128.1212159142438,148.7021308618077,225.9370358385747,198.7782575440924
2.902902902902903,0.6378458683886974,108.82681552872955,173.93196045699017,85.51860239934962,128.30525488318858,149.03218344574856,226.1472641587229,198.8896347623749
2.9362696029362696,0.6378458683886974,124.66647868564507,173.26831653892958,86.24850357598676,128.4377062217324,149.39798871037772,226.3543641725158,198.95644294454783
2.9696363029696364,0.6378458683886974,138.91274220430805,172.63593631794416,88.0681063673814,128.5212638599125,149.76608784317412,226.51330197105293,199.05412448896985
3.003003003003004,5.358890258492723,151.62240950629825,172.98803878848213,89.67909310128721,128.5975684323473,150.1314171711262,226.62075029413552,199.155411193826
3.0363697030363697,5.358890258492723,162.44599326431623,172.77119153197577,90.6332071148426,128.72376660704185,150.45814512345626,226.6568048227548,199.32187729841027
3.0697364030697365,5.358890258492723,171.56925955654037,169.65124264671542,90.1334170916656,128.82692384284113,150.73578237548102,226.60007675334907,199.54229717432736
3.103103103103104,5.358890258492723,178.70441899682444,167.00389744582918,88.70380884657708,128.8904014856272,150.97166150551473,226.4842440926652,199.85463042675653
3.1364698031364697,12.46994194176235,183.97811712161672,164.6281484138904,85.90048763962379,128.91408248132495,151.12431097023003,226.41060038625088,200.24042724243287
3.169836503169837,21.09828737760913,187.4428657795505,163.0060346770974,83.44249098744568,128.90977132724237,151.16932012499802,226.3110815427182,200.7002394970612
3.2032032032032034,31.25392622090598,189.0001078635304,161.52678168712723,80.52995011814883,128.8972606249172,151.06916228018403,226.31276077475127,201.28998998064043
3.2365699032365702,42.79661442967165,188.1944003294868,161.00544256118192,77.81056948145188,128.91714405746575,150.9511439219877,226.24014519425964,201.9719521897508
3.2699366032699366,55.52110201588266,185.93209247225096,162.88436961500992,74.1288161420782,128.9240626627281,150.8027790175406,226.15105697631685,202.6678157025106
3.3033033033033035,69.25514811761886,182.4138842444896,164.8436950333956,73.43995645505274,129.06221379466805,150.4993953936568,225.8965335062109,203.39845200477987
3.3366700033366703,83.90386257438522,170.2856223830109,167.6399433910313,73.80740726307445,129.0315174480426,150.11269060569646,225.9073543967573,204.23616038714147
3.3700367033700367,99.17203452609604,158.72586976423162,170.6878566313613,71.10818923668776,129.18359571884227,149.75615146747506,225.71204908098608,205.10415399625964
3.4034034034034035,114.91443185572297,154.9757338115111,173.59435262672733,67.12668490586785,129.35673944110098,149.28309200960896,225.37875414417687,206.06235278049203
3.4367701034367704,130.9389913987216,151.06226130992133,176.4388699225306,66.98166398376738,129.69966881814304,148.8128387627673,224.73691977353,207.0224843914768
3.4701368034701368,147.10187202229304,156.16997736985036,178.99158973695063,67.73238389135904,130.0954319366818,148.33213136759446,223.72115036161483,208.01280604249524
3.503503503503504,163.2356582258993,150.73532860086982,181.1381391597912,69.2082450309444,130.55501037848697,148.00360234420086,222.4385910478501,208.97572509063724
3.5368702035368704,179.19655442137525,143.1065360858359,182.90957572811004,71.51500090282734,131.07289174501037,147.7046262807385,220.94742512893515,209.95196787752985
3.5702369035702373,194.5145871298903,133.38388656742302,184.63705410297672,73.78889652706344,131.77853193527233,147.57230410522254,219.31623984640484,210.820641457606
3.603603603603604,209.1195999413528,122.08299666098056,186.28655912213185,76.1215183637985,132.57865788359993,147.39373615723068,217.5669124963,211.68739014122207
3.6369703036369705,222.7291088406826,108.28564114546823,187.86885412903712,79.09598841847875,133.52353706752035,147.3452343792563,215.71991991590423,212.43241877295523
3.670337003670337,235.0989989891772,91.81359644470244,189.40046534847,82.68480372201282,134.49969342253902,147.40951605314228,213.80794368646545,213.07935450115457
3.703703703703704,246.18163304271576,85.48370827808903,190.90255776640828,86.46197338522997,135.5956586583813,147.63076061403618,211.8756009039984,213.58045537763184
3.737070403737071,255.87112538472468,79.14156912704065,193.01751171107543,92.41402757923704,136.88462440341297,148.01865799783525,209.6113019494333,214.10019095624097
3.770437103770437,264.25533806079056,73.59072819888782,194.6136884487765,98.2217064299786,138.39384739049703,148.61502877503625,207.45948620003043,214.30103726099296
3.803803803803804,270.8960328629296,69.12872681826568,195.26848455470488,104.00052396811876,140.12892400615664,149.38068499055098,205.15749184097052,214.32747565447303
3.8371705038371706,276.25391811484667,66.02522014227489,195.41985333447724,109.47389967607728,142.04669681894407,150.30831368119286,202.9833119484157,214.13261845404588
3.8705372038705375,279.9981091699487,64.3097496459326,192.90194375000576,115.61636867416092,144.31404652481058,151.3962943302323,201.2555574215208,213.43184752779632
3.903903903903904,282.3807423428145,64.25140042062375,188.74763779613656,120.88758840539258,146.5262286990927,152.56866806172894,199.73246994699187,212.56350852751933
3.937270603937271,291.4730348104644,66.19331648538447,186.8179351877153,125.1760828571178,148.71709305739827,153.8537878570247,198.24790899664035,211.7727537541423
