Time,Left Shoulder Angle,Right Shoulder Angle,Left Elbow Angle,Right Elbow Angle,Left Hip Angle,Right Hip Angle,Left Knee Angle,Right Knee Angle
0.0,14.547003604132817,32.489699346919195,153.91720543739393,165.5090838325369,139.60868076948773,139.94754690799343,212.9611148675022,201.1876580556727
0.0333667000333667,15.294472304847115,32.438763911061095,153.7229542847374,165.5836512880293,140.36441846083758,140.1685522464554,212.10384369281172,201.11867931766577
0.0667334000667334,15.978742163665002,32.377972737493344,153.58265963797467,165.64549764390034,141.04144467497335,140.37752756414383,211.30277327085332,201.04570106468063
0.1001001001001001,16.60211357644884,32.30800051741654,153.49165798882757,165.69489388932686,141.64368311725434,140.57485685079146,210.5561327382886,200.96927338741017
0.1334668001334668,17.16688693906101,32.22952194203129,153.44528582901802,165.73211101348568,142.17505749303993,140.76092409613102,209.86215123177908,200.88994637654736
0.1668335001668335,17.675362647363876,32.1432117025382,153.43887965026786,165.75742000555363,142.63949150768937,140.9361132898952,209.2190578879864,200.80827012278505
0.2002002002002002,18.129841097219813,32.04974449013788,153.46777594429895,165.77109185470752,143.04090886656206,141.1008084218167,208.62508184357208,200.7247947168161
0.2335669002335669,18.5326226844912,31.94979499603093,153.52731120283318,165.77339755012423,143.38323327501726,141.2553934816283,208.0784522351978,200.6400702493336
0.2669336002669336,18.8860078050404,31.844037911417963,153.6128219175924,165.7646080809805,143.67038843841434,141.4002524590626,207.5773981995252,200.55464681103027
0.3003003003003003,19.19229685472979,31.733147927499576,153.71964458029848,165.74499443645325,143.90629806211265,141.53576934385245,207.1201488732157,200.4690744925991
0.333667000333667,19.45379022942174,31.61779973547638,153.8431156826733,165.7148276057192,144.0948858514714,141.66232812573045,206.70493339293105,200.383903384733
0.3670337003670337,19.67278832497864,31.498668026548973,153.9785717164387,165.67437857795522,144.24007551185002,141.78031279442936,206.3299808953328,200.29968357812487
0.4004004004004004,19.851591537262827,31.37642749191797,154.1213491733166,165.6239183423382,144.3457907486078,141.8901073396819,205.9935205170826,200.2169651634676
0.4337671004337671,19.9925002621367,31.25175282278397,154.26678454502877,165.56371788804483,144.4159552671041,141.99209575122077,205.693781394842,200.1362982314541
0.4671338004671338,20.097814895462623,31.12531871034757,154.41021432329717,165.49404820425207,144.45449277269822,142.08666201877864,205.4289926652725,200.0582328727773
0.5005005005005005,20.169835833102976,30.997799845809404,154.54697499984366,165.41518028013667,144.46532697074946,142.1741901320883,205.19738346503595,199.98331917813007
0.5338672005338673,20.21086347092012,30.86987092037005,154.67240306639005,165.32738510487545,144.45238156661716,142.25506408088242,204.99718293079368,199.91210723820527
0.5672339005672339,20.223198204776583,30.74220662523038,154.78183501465946,165.2309336676466,144.41958026566186,142.32966785489495,204.82662019920912,199.84514714369763
0.6006006006006006,19.999179155444462,30.622226776845373,155.0777860287366,165.11327701057715,144.38812175616926,142.38707991064325,204.6544207789109,199.76361089645383
0.6339673006339673,19.96560629733041,30.494618011977057,154.9709842660179,165.0011261268768,144.34584253744845,142.45715726661447,204.5143255221287,199.6957209153694
0.6673340006673341,19.962503208512693,30.37450341863809,154.84536658461766,164.92347439607025,144.3129654446532,142.5372651710872,204.3975403927256,199.6385190633405
0.7007007007007008,19.936322136462632,30.26575961654716,154.69389519489405,164.8227789992013,144.28752564883646,142.60362156675637,204.31766217539013,199.6007572894825
0.7340674007340674,19.89019018118421,30.167647652529247,154.507203808047,164.70020079028413,144.2594389353913,142.65444444444267,204.2765947081388,199.58193332090497
0.7674341007674341,19.79327898640087,30.064614817841104,154.28848370399226,164.55923032515483,144.20933623604338,142.70441706264177,204.2844644641229,199.5747983281729
0.8008008008008008,19.625316430981417,29.948066223371995,153.92550209388443,164.35931358512534,144.14908788515464,142.73628947829692,204.3374376255064,199.5805934130485
0.8341675008341676,19.44952905261742,29.825228866041456,153.53222284830798,164.13666342175068,144.1231125699033,142.76338934307208,204.3578818602744,199.5889136582236
0.8675342008675342,19.24512373049228,29.680046990574187,153.0873487194017,163.872708053908,144.11244384494574,142.7615846459935,204.38004309325723,199.6212660106619
0.9009009009009008,19.05208190942315,29.537987866714523,152.66898518139072,163.6102333084458,144.11466705069034,142.75217046575617,204.401726160872,199.67188885687523
0.9342676009342676,18.878236981742607,29.417522582021512,152.29869532777434,163.37172703502324,144.1243933174239,142.74465200036164,204.43299029539145,199.7345698932669
0.9676343009676344,18.737012596772907,29.313297132708588,152.0021123023199,163.14962907834604,144.14224537177665,142.7407456824296,204.47040044862155,199.7940108223681
1.001001001001001,18.611311681375945,29.229142387008324,151.77777932652003,162.95738560920844,144.1767855133176,142.74354332797844,204.496897539081,199.8436392608485
1.0343677010343677,18.51788097605502,29.1710644086758,151.5984780070561,162.78410529216993,144.2139366789295,142.74927215758808,204.5291491575654,199.8832640484812
1.0677344010677343,18.45150761738988,29.142552888212588,151.46704243863562,162.6385227476785,144.25344798134935,142.7510899108856,204.56417447180365,199.918911655782
1.1011011011011012,18.42874633035066,29.143277922923275,151.4051077555803,162.52454322760198,144.2871657403946,142.75132255177763,204.60598529732297,199.9481329299424
1.1344678011344678,18.457978681521386,29.18615552338068,151.42996846709303,162.47495158777244,144.3216445081905,142.7484820317233,204.64590261996875,199.97094677289704
1.1678345011678346,18.533473350109684,29.245498253625808,151.53702028247602,162.4651446694143,144.36545725593555,142.74708806248677,204.6735131003623,199.9868475448033
1.2012012012012012,18.649219605400308,29.312388277979025,151.7121870431554,162.4923826617602,144.408569860231,142.75528128600925,204.6862451135461,199.995056108573
1.234567901234568,18.810001033060217,29.37442894386938,151.95148750776107,162.5067521213347,144.45109432847065,142.7778793713893,204.68802458541663,199.99676440603253
1.267934601267935,19.00425931451925,29.437481963777834,152.2242543559464,162.52684252127213,144.46217649048606,142.81256523839664,204.71880529870967,199.9816081004074
1.3013013013013013,19.238824334060272,29.507228456544343,152.5534872052471,162.5538194957752,144.4682196159785,142.85574947545447,204.74656690962016,199.95585194514555
1.334668001334668,19.492572959749168,29.57641120657376,152.92111528200488,162.56501707882006,144.5000205909882,142.9014061136882,204.7411546787345,199.9227674596057
1.3680347013680347,19.783333707866223,29.64994816613752,153.35390567338663,162.5632515982672,144.55417478047764,142.9493533897326,204.7041988354433,199.8872077183383
1.4014014014014016,20.1171630809884,29.741403683945773,153.86875828307444,162.58299078211536,144.63149695161297,143.00065381878014,204.63699284480708,199.85161798291728
1.4347681014347682,20.50215066447093,29.843984090163406,154.45102001715534,162.6060362592578,144.70923080053353,143.0542435764633,204.5547945781885,199.80711600208232
1.4681348014681348,20.909958222397464,29.96850068939961,155.0521165517955,162.66563901177506,144.76098467111532,143.09946103307922,204.474858571914,199.76321246939088
1.5015015015015016,21.355644171494745,30.10243224967649,155.7137907652706,162.74650106418707,144.80654127802603,143.1443833575457,204.3790971991204,199.7161340964575
1.5348682015348682,21.820115351703123,30.242864774867176,156.42802769451407,162.83709324779494,144.87460137820543,143.18623364861858,204.25170650535176,199.6733818058798
1.5682349015682349,22.31118562383673,30.38092800878521,157.18694193633013,162.91980168393584,144.95770149713482,143.23355098212545,204.09595819136936,199.62881800864423
1.6016016016016017,22.78022213089765,30.49361602908136,157.90853310711992,162.9481538996903,145.07229471795534,143.28745103968262,203.8937832749353,199.5701892402572
1.6349683016349683,23.20936006557585,30.588164506673657,158.58486175882732,162.95719667639997,145.22488118320155,143.3494685468628,203.64877021548688,199.51142068563377
1.6683350016683351,23.59406287751631,30.69668781058981,159.22916865126507,163.0218324654287,145.40723141455385,143.3978419518522,203.38409627413805,199.4745190580493
1.7017017017017018,23.9764073688907,30.799859658716503,159.88343282363428,163.10376794869285,145.5962028230418,143.45060369892389,203.12058422502105,199.442137734318
1.7350684017350684,24.367792531947305,30.89681280071869,160.56798166833173,163.2129218993946,145.7969477649745,143.51807118334293,202.84489746029703,199.41010056019928
1.7684351017684352,24.762745506215456,30.973143337294523,161.2670736450467,163.3131833057098,145.99118068758816,143.59339988521756,202.56655425791328,199.38597828563823
1.8018018018018016,25.08560590419869,31.02923534988252,161.8358984292433,163.40511391206155,146.1990976815102,143.67979643737192,202.2907484303348,199.3522975359855
1.8351685018351689,25.395229102461965,31.047876828537625,162.3588721447411,163.4278615736003,146.39681184841317,143.7685673316904,202.02054530129885,199.3166957381672
1.8685352018685355,25.659512702655224,31.04246064292792,162.82368569648744,163.39688984771357,146.56991481756148,143.84289687135393,201.76229042516985,199.2901102524012
1.901901901901902,25.92077642526049,31.00132198764738,163.2883870638948,163.30592805467924,146.7206081826374,143.9121354690755,201.5209491525607,199.271016770413
1.9352686019352687,26.16478827372543,30.91399717761124,163.69294431045532,163.1359738841674,146.84401489594822,143.96965100370954,201.295601367482,199.25379041407973
1.968635301968636,26.458051891631342,30.806691429863555,164.18179872280777,162.93884786405954,146.940167440227,144.02833286850156,201.08350063081565,199.24920411639377
2.002002002002002,26.764853454823616,30.67670663587808,164.6888043022195,162.71718200470522,147.01632732942613,144.09969091791257,200.8871959955692,199.24888570590528
2.035368702035369,27.12351673476596,30.54938332248837,165.2966503012912,162.49999876911778,147.0793056107822,144.2207807861081,200.698721198732,199.22803433529907
2.0687354020687354,27.47222967640866,30.39798476879565,165.8921092348867,162.2362002605937,147.14140612851082,144.3637773067257,200.52331429173248,199.17953985708925
2.1021021021021022,27.85248013159028,30.231627118778103,166.55326362597484,161.94651336087094,147.19104869563313,144.52568686075634,200.3632838985777,199.1111724421654
2.135468802135469,28.24043247452994,30.071821046325624,167.24796753582422,161.6396234882914,147.2197092903079,144.6881294584638,200.23445626342388,199.0332634078328
2.1688355021688355,28.678183658463627,29.9189777472086,168.0013120627998,161.3393069747021,147.2149122152679,144.86316703295313,200.13796626814243,198.9518833822804
2.2022022022022023,29.162407296425823,29.77240850728052,168.81213860942162,161.0608708552496,147.1724843404755,145.05298290445606,200.0697828270528,198.8795532437695
2.235568902235569,29.70059968917045,29.635407583460683,169.70224956640735,160.81041935792527,147.0963504747982,145.26039000717083,200.02801950399484,198.8058840180269
2.2689356022689355,30.26942648489122,29.49510784474821,170.62781698300802,160.5875083380882,146.9961322455854,145.4879357269826,200.002217784987,198.7333303244916
2.3023023023023024,30.860681681686817,29.341854177367274,171.57595978852703,160.35416057430749,146.87404936666618,145.72921510604206,199.99304150625483,198.6626525534692
2.335669002335669,31.464606149644307,29.166904774200795,172.53698106992044,160.0950299911964,146.7397507963508,145.97756956431655,199.98899511822864,198.5919080417007
2.369035702369036,32.084609252786535,28.995208308439345,173.50457138869612,159.82057726904907,146.58533281093332,146.22385877946178,200.012072330756,198.52672173050385
2.4024024024024024,32.674507814288496,28.785691300644903,174.37792007263786,159.4549034589299,146.3925207360769,146.42310788916535,200.06563402068275,198.46912531911045
2.4357691024357693,33.27696334904924,28.587474505778623,175.2675598957519,159.0699664111624,146.20707181916424,146.6089500635186,200.10920151419245,198.4266474144754
2.469135802469136,33.91135232731246,28.425461157612247,176.20827561549407,158.72538099836507,146.0198960122939,146.7478527320795,200.1351334142579,198.48440884502256
2.5025025025025025,34.57003326085307,28.307993938095944,177.19349106086196,158.4487294281663,145.83278930320748,146.8811116806482,200.160000347118,198.57486593005143
2.5358692025358693,35.209855561602666,28.22668041698041,178.14487505268164,158.23377966982127,145.64496008537415,147.01170863429073,200.19419352677005,198.6683541860432
2.569235902569236,35.81809355980804,28.17489287323517,179.04996562613712,158.0712393900426,145.46780250068366,147.14522090175302,200.2294139886493,198.75221194668129
2.6026026026026026,36.38445034578261,28.13901098201996,179.91581538893047,157.93869263337754,145.3204467752558,147.27404124688712,200.25652413432064,198.82309530652765
2.6359693026359694,36.928951815908505,28.1261441503488,180.78784024856543,157.83901394180617,145.24090273729792,147.4274537853289,200.25152853516047,198.86046622863003
2.669336002669336,37.41143036558161,28.144494031366087,181.588777232515,157.7728299706731,145.17914791195736,147.6057355705037,200.23755075225893,198.8626258556777
2.702702702702702,37.84639843614619,28.193662151789795,182.3409313505155,157.74612293192078,145.1449919916493,147.81917059122227,200.2190441086865,198.82047507154792
2.736069402736069,38.26767063707239,28.302788356659526,183.10124214842145,157.78639802624923,145.17635856838066,148.04972400199748,200.17591591936136,198.74338115715088
2.7694361027694363,38.70027997541433,28.47634172234887,183.9295063211205,157.95376216126812,145.24261268970096,148.31224504266382,200.14410999938792,198.63481086576127
2.802802802802803,39.08462382153981,28.69579094801181,184.692682485768,158.2310647119775,145.31776230433877,148.5915126758233,200.1346897889912,198.49545270845687
2.836169502836169,39.43155250582457,28.91198053784449,185.4059647679255,158.51918703374128,145.4175872846184,148.9145262547092,200.1202046566005,198.304713648764
2.8695362028695364,39.7318873265655,29.141080492620947,186.08931444193345,158.9306704215687,145.56684520340903,149.27960833608262,200.09236442213108,198.06957317748487
2.902902902902903,39.94516622240216,29.371705943947724,186.6540007103715,159.34775981000766,145.74077058847365,149.67180744483088,200.06038859857435,197.79523122671392
2.9362696029362696,40.0440561545057,29.612697923441747,187.0427627946539,159.7420700530461,145.92184009078517,150.0840408909394,200.03456122037056,197.49087182408007
2.9696363029696364,40.10941388871356,29.84779783979851,187.4133967902856,160.09584590877597,146.08788905923538,150.50524518692643,200.0017550929401,197.17222484776963
3.003003003003004,40.10199064123048,30.081852912107028,187.64764105137027,160.49675436552943,146.21398326482625,150.92210375077738,199.9799396144373,196.8458663714125
3.0363697030363697,40.05656551279228,30.29753910831063,187.7969358133665,160.8680593184565,146.33420489672156,151.36013405985446,199.9526311952868,196.49270820495744
3.0697364030697365,40.01013239004773,30.52739790547763,187.8641040831816,161.16775944650962,146.3788888699194,151.79255247226436,199.99392424695776,196.11993027261144
3.103103103103104,39.91804541644751,30.74271157660469,187.8641741213337,161.40871760088058,146.42275184400776,152.24268675571477,200.0395231473803,195.72834870636348
3.1364698031364697,39.74168533780171,30.91313199357032,187.7824472222557,161.57622576462344,146.53052185153777,152.72234464589445,200.07000854244524,195.29965348754507
3.169836503169837,39.49944429616284,31.02839638709715,187.67201681244404,161.6667270346128,146.70064674072478,153.21237887334772,200.06665406019613,194.87322174672923
3.2032032032032034,39.228380809790615,31.113309997644407,187.50097317545143,161.69683466277672,146.96838213943124,153.6975175042823,200.0026106155467,194.44882086666925
3.2365699032365702,38.95011164622311,31.182048211753,187.34899416200108,161.70658123746,147.26455542863272,154.18770430584152,199.89317667876168,194.04578557604964
3.2699366032699366,38.65763677637165,31.353471759802066,187.21704699272223,161.9299810215994,147.5993328684888,154.64184851317287,199.72516349511605,193.69586721091227
3.3033033033033035,38.35185824321208,31.48595807229272,187.14014342724616,162.14612428579898,147.95276902935046,155.0877423870733,199.4854932182272,193.3931268092199
3.3366700033366703,37.972521384048726,31.545266079287536,187.0404047672696,162.2569273008358,148.31080180010355,155.51064188104908,199.2073775560633,193.13164550527603
3.3700367033700367,37.53393516487981,31.51489225319648,186.9286798275729,162.24289063765264,148.66093312115666,155.9200949796939,198.9174429050673,192.89736884822733
3.4034034034034035,37.0385869458033,31.421221346495912,186.7622471700323,162.20403511381988,149.00976374720923,156.3153951805744,198.60283869332227,192.69372258299893
3.4367701034367704,36.50414752185586,31.24178107254236,186.5883961333331,162.03033262697053,149.33435929087065,156.68224132281014,198.2776883117816,192.52411293156416
3.4701368034701368,36.07234023723938,31.054404035800125,186.5171784761554,161.80994215196662,149.6315429477111,157.01182887863794,197.9613156722015,192.4017822535012
3.503503503503504,35.59925276536749,30.79990574419429,186.42314720504203,161.46798492145157,149.85559809707232,157.3035540753207,197.68784084938247,192.3219391360961
3.5368702035368704,35.12015636136039,30.43521007381207,186.32276008428977,160.93755607098248,150.01982685858152,157.5532485317746,197.4315406438256,192.28606893135031
3.5702369035702373,34.65233863366573,30.023252546462903,186.33538562137488,160.3600375554705,150.1470602296629,157.80816156531392,197.19261320343307,192.29200886819385
3.603603603603604,34.19574078838026,29.621639756163507,186.4185019433382,159.73424137031532,150.2511391365295,158.04305134411268,196.95059059581644,192.3496959817128
3.6369703036369705,33.670706929104625,29.14374999565357,186.5025835501105,158.987648945908,150.33699791527562,158.29608890500708,196.72193807721715,192.34921613271928
3.670337003670337,33.142281535978896,28.5735870642666,186.66968435216265,158.19149121078934,150.39995608688827,158.5404940395444,196.5231051825017,192.3223283478368
3.703703703703704,32.560733202478744,27.90108411468105,186.8343544519648,157.297423035866,150.44501196902698,158.77926072274212,196.34143981099885,192.2788065994244
3.737070403737071,32.41345652774618,27.1674511882158,187.2408444921209,156.3339290906508,150.4663132883871,159.01226555582116,196.17953241788663,192.2139829851924
3.770437103770437,32.10931621609985,26.375510436086387,187.5410493634258,155.29556153113035,150.45591604317542,159.24932667529163,196.0447784271296,192.12718577573625
3.803803803803804,31.50529682571914,25.521675481192528,186.6009355936792,154.29523898258893,150.4203261783598,159.47377684185622,195.94070641808315,192.03491044352305
3.8371705038371706,30.70323136191197,24.647339485071104,185.651767047793,153.25170655321472,150.41300425091714,159.68797966149558,195.8469565218348,191.9386398108188
3.8705372038705375,29.58511216218492,23.76001214071541,187.94250846796984,152.1571134604834,150.3973188702178,159.889457967218,195.76462610469432,191.8368471252025
3.903903903903904,28.24195735909229,22.8348556031804,185.5822232563688,150.9833496873527,150.3575644185742,160.0907285991417,195.7122442379814,191.72367871186765
3.937270603937271,26.75251366963443,21.883042891040542,187.96490801602133,149.71310992214993,150.29119349764076,160.27638168389703,195.6966159702986,191.60920755242108
