Time,Left Shoulder Angle,Right Shoulder Angle,Left Elbow Angle,Right Elbow Angle,Left Hip Angle,Right Hip Angle,Left Knee Angle,Right Knee Angle
0.0,26.18090007221103,32.58370299269794,164.41987895241058,160.03664882250655,129.9460650528447,130.85925163776292,206.32580464362564,211.97514855591749
0.0333667000333667,26.19437497289285,32.74322297632302,164.313750380438,160.28207312491088,129.8811858464662,130.97599445771883,206.31435060984504,211.5619943207977
0.0667334000667334,26.20600828730496,32.86883753354599,164.21066028680448,160.44921969453674,129.81730571696625,131.0619339061744,206.3064816668373,211.20416544382684
0.1001001001001001,26.216147276875635,32.96316827833044,164.1114281100826,160.54452182543224,129.75451801431834,131.1198734035089,206.3019413944932,210.8985167638205
0.1334668001334668,26.22513920303317,33.02883682463997,164.0168732888451,160.57441281164537,129.69291608849608,131.15261637010153,206.3004733727035,210.6419031195944
0.1668335001668335,26.23333132720585,33.06846478643815,163.92781526166448,160.5453259472242,129.63259328947305,131.16296622633155,206.3018211813591,210.43117934996428
0.2002002002002002,26.24107091082196,33.084673777688586,163.84507346711345,160.46369452621676,129.57364296722275,131.15372639257814,206.3057284003508,210.26320029374577
0.2335669002335669,26.24870521530977,33.08008541235487,163.7694673437646,160.33595184267114,129.5161584717188,131.12770028922057,206.31193860956947,210.1348207897546
0.2669336002669336,26.25658150209758,33.05732130440059,163.70181633019058,160.16853119063532,129.46023315293476,131.08769133663807,206.32019538890583,210.0428956768064
0.3003003003003003,26.265047032613666,33.019003067789335,163.642939864964,159.9678658641574,129.40596036084415,131.03650295520987,206.33024231825084,209.9842797937169
0.333667000333667,26.27444906828632,32.9677523164847,163.5936573866575,159.74038915728542,129.3534334454206,130.9769385653152,206.34182297749524,209.9558279793019
0.3670337003670337,26.28513487054382,32.90619066445027,163.55478833384367,159.49253436406738,129.3027457566376,130.91180158733331,206.35468094652987,209.9543950723769
0.4004004004004004,26.297451700814456,32.83693972564965,163.52715214509522,159.23073477855138,129.25399064446876,130.84389544164338,206.36855980524555,209.9768359117577
0.4337671004337671,26.311746820526505,32.76262111404641,163.51156825898468,158.96142369478542,129.2072614588876,130.77602354862472,206.3832031335331,210.02000533626003
0.4671338004671338,26.32836749110826,32.685856443604166,163.50885611408475,158.6910344068176,129.16265154986775,130.7109893286565,206.39835451128337,210.0807581846995
0.5005005005005005,26.347660973987995,32.60926732828649,163.519835148968,158.4260002086959,129.12025426738276,130.65159620211796,206.4137575183872,210.15594929589184
0.5338672005338673,26.369974530594003,32.53547538205699,163.54532480220712,158.17275439446843,129.08016296140613,130.60064758938833,206.42915573473533,210.24243350865268
0.5672339005672339,26.39565542235477,32.467102218879496,163.58614451237594,157.9377302581844,129.04247098191254,130.56094691084795,206.4442927402204,210.3370656617996
0.6006006006006006,26.43857031731659,32.487330691084146,163.69307769345542,157.93282256250353,129.0533387236908,130.6106692869196,206.43749121114053,210.40288967747773
0.6339673006339673,26.47634482188377,32.51073212387639,163.80655582294213,157.9255633219914,129.05801968679225,130.68847718394804,206.43787464847412,210.4594368749707
0.6673340006673341,26.516527027253574,32.537672777390604,163.93196025015268,157.9312244655069,129.05226605030268,130.7849949547785,206.4417510220745,210.51105504384228
0.7007007007007008,26.549205113802792,32.58784851231702,164.0686696762491,157.98054971392193,129.05551508627644,130.90147011198573,206.4338264275897,210.5595917783556
0.7340674007340674,26.587153461963727,32.64259069621193,164.22249687095703,158.04494347849817,129.05737073522022,131.025680856809,206.4278124162593,210.6089408808589
0.7674341007674341,26.621769485885405,32.707060795318526,164.35737474859363,158.13045548766476,129.04192521333914,131.14668925787964,206.43429690757227,210.65893070232173
0.8008008008008008,26.66128388047977,32.775785438274696,164.49296606009585,158.24056032053832,129.01172948548177,131.2750354014485,206.4482923428057,210.6964964347547
0.8341675008341676,26.71452105805808,32.86714159708182,164.6516199841762,158.3868748708567,128.97636489987968,131.40403510397445,206.45892656051333,210.7318566535929
0.8675342008675342,26.781763858516342,32.964014809331424,164.83183289854833,158.55593696401036,128.92769774752375,131.54333760666472,206.4751477493593,210.7681515813351
0.9009009009009008,26.87263582430693,33.01600856005843,165.03707290606727,158.6716994767993,128.84820870281038,131.6510571637305,206.507498005164,210.806394233504
0.9342676009342676,26.966535699558097,33.03533590049296,165.2406001757458,158.7557915195787,128.74998255637897,131.7646935914256,206.54853309463377,210.83868391233403
0.9676343009676344,27.06761671436228,33.01674995183101,165.4234523698357,158.79483225735092,128.64153135902305,131.8629253420694,206.55671950148303,210.8700621475671
1.001001001001001,27.17770500870417,32.976176690233665,165.60961287674257,158.82199090778306,128.52390610729944,131.96458877963104,206.56242522225423,210.9009718008824
1.0343677010343677,27.286306927425105,32.90565001009924,165.78564995836527,158.8153145503314,128.3982108314927,132.0681936137366,206.57815682085703,210.93168400953363
1.0677344010677343,27.411754300633227,32.82625515520397,165.97979462765062,158.81316655503193,128.25197840841145,132.1587455220029,206.6206145583407,210.96990767166125
1.1011011011011012,27.551922716485056,32.793473914252246,166.19075971720002,158.89283516168018,128.08316772724402,132.22953443498162,206.703395551313,211.01648732205263
1.1344678011344678,27.70639959563263,32.7368902854018,166.4287374670124,158.94668001436054,127.90181863790264,132.2860735939408,206.8120604666481,211.0660625429405
1.1678345011678346,27.87073474276385,32.63903482142955,166.64905310538992,158.94431882802388,127.72062003606702,132.36112095844393,206.9180420180796,211.118206131112
1.2012012012012012,28.04156218934296,32.503021557895046,166.8866642604419,158.8960191616827,127.55425800938336,132.43819148993856,207.0321079265008,211.16601160929883
1.234567901234568,28.215477522828174,32.269417493720255,167.10092977499937,158.66085439454997,127.39840011399558,132.4199820745001,207.12986031615472,211.2099553411045
1.267934601267935,28.389059338731474,31.998272404637515,167.3448172348205,158.37925586249284,127.2456480003366,132.38422970354117,207.2515951738553,211.24500501280315
1.3013013013013013,28.5800636565245,31.676732764181786,167.616402678571,157.99873049882189,127.09629594860104,132.27710553986978,207.40352191677087,211.3082120984016
1.334668001334668,28.785179703349087,31.356923058910912,167.93014139947786,157.5911270931223,126.92436680215724,132.1549229855507,207.61005551267127,211.40544513539163
1.3680347013680347,29.04183968593912,31.01171353578045,168.33532573533122,157.07150953871732,126.76863607467727,132.00404566917248,207.7818168276396,211.4975075206564
1.4014014014014016,29.28674051018088,30.66077177880657,168.7947410225166,156.55074535250688,126.61593247299616,131.88737843296624,207.979775437152,211.58509381437835
1.4347681014347682,29.53147388727657,30.35836361570105,169.30709477481864,156.11217815240911,126.45631405062768,131.7964128342936,208.213939882576,211.6750261411293
1.4681348014681348,29.753013678338863,30.094122486818044,169.88254959523286,155.81458668226804,126.29871981611024,131.77699179050367,208.48121024167145,211.75619219292585
1.5015015015015016,29.943192648154945,29.92839701329702,170.50489523549132,155.67892758618927,126.16295537749627,131.80791251222453,208.7663398271875,211.82906323890955
1.5348682015348682,30.082518526893168,29.790937045221813,171.15270341515685,155.6462264889946,126.05808838484478,131.92012892696397,209.0666149858728,211.8726479953842
1.5682349015682349,30.20325270284656,29.67457739510992,171.82138380197043,155.67374811768855,125.94642463082606,132.09915519075668,209.4458457121093,211.91291231739245
1.6016016016016017,30.28957383056793,29.55635477681303,172.53763302533795,155.7700310390264,125.83671201473494,132.3598582313209,209.82978540968912,211.9236623634684
1.6349683016349683,30.377518901008106,29.45542168068403,173.31135420015374,155.9627989524034,125.69052315055956,132.66079340580904,210.42849467340963,211.92618901303604
1.6683350016683351,30.425089193499986,29.376916301044577,174.1065362339682,156.2998779203303,125.54991721089176,133.02598993755316,211.0748699950424,211.8861955713904
1.7017017017017018,30.40271928817994,29.33745752968975,174.84014405485794,156.76277773494496,125.5339092920898,133.42077999433164,211.59755017700925,211.8182369304845
1.7350684017350684,30.31513956804069,29.212613112015603,175.5759080581274,157.13648082322405,125.50797314784256,133.8428872590557,212.0943638720329,211.723425992316
1.7684351017684352,30.23879569406338,29.07792891848668,176.37922927108,157.4036343367862,125.46760919301744,134.37568683509872,212.44069573540804,211.54803430198405
1.8018018018018016,30.12409693390029,28.91636766545708,177.21515697620669,157.63926893449056,125.3979966004509,134.95975160843264,212.77745373070044,211.34026306944864
1.8351685018351689,30.01117288049493,28.82806810107657,177.96601300935149,158.04919838348573,125.28597836801106,135.5036152163139,213.13546546431223,211.16464667696525
1.8685352018685355,29.83654857669168,28.691689176805845,178.71390099892068,158.42626341287,125.13612670391696,136.00936486248946,213.5200783275432,211.0140378569821
1.901901901901902,29.616619622785034,28.49082484715127,179.3810005688467,158.706389221832,124.93832941369612,136.43698083302093,213.8716794805179,210.896631405547
1.9352686019352687,29.36720409316951,28.18334445635522,180.1290101726157,158.83914038320384,124.70107340684228,136.84388328431805,214.2346120749586,210.7676663323856
1.968635301968636,29.18491140992909,27.979718829458047,180.95253639392905,158.96823641347427,124.33354317127151,137.18163627946225,214.69504791059228,210.67483598536552
2.002002002002002,28.92546747518392,27.64913540408143,181.7689828546547,158.98736216972893,123.92869163971892,137.513489789216,215.18299649603188,210.5678920781974
2.035368702035369,28.68080228068244,27.09477692157005,182.763244378526,158.67865398258695,123.54940449057774,137.86267409027477,215.6372935657764,210.4137273161467
2.0687354020687354,28.341984051624284,26.47372854692648,183.69746205808684,158.37919087113025,123.20529056785809,138.26187078832498,216.05276471280257,210.2088609899997
2.1021021021021022,27.953908298296387,25.760473843944265,184.1753969441704,158.10963090979476,122.93701097538585,138.69786609100083,216.39302809760184,209.94114609514747
2.135468802135469,27.350919019134547,24.956140331737867,184.7999379765119,157.8418120375665,122.70926194176008,139.17937414274027,216.74267797101143,209.6243298039672
2.1688355021688355,26.54776385715658,24.06070057447976,184.9228140148132,157.40439674973345,122.50212032252873,139.65565855960116,217.0791539798824,209.3019840390765
2.2022022022022023,25.54157088377368,23.0954778565375,184.78975009447524,156.9493662902254,122.30684695019998,140.12873407001672,217.4161619315231,208.96755255497428
2.235568902235569,24.50228805551069,22.2382838036271,186.3295447262968,156.36100715915725,122.12700517762312,140.59841956481446,217.748261035713,208.61309649308708
2.2689356022689355,23.322321994144943,21.144602582688822,187.9615512624831,155.71267809346352,121.96080173624856,141.0550489490872,218.0635434556093,208.2487495796672
2.3023023023023024,22.05645917471489,19.885840851410503,188.86639699228388,155.4776491450384,121.79730640647394,141.48115956201286,218.35689976219868,207.88578202320085
2.335669002335669,20.6821517646808,18.53402365993357,189.23200688000767,155.3050965009378,121.6261301964152,141.83210987952492,218.6744407288439,207.5204679785272
2.369035702369036,18.972610754353205,17.183210260183838,186.399605775532,157.06842785962587,121.46274876151344,142.10635924586424,218.9901783369557,207.1495205389349
2.4024024024024024,17.215353569531302,15.746631268716108,183.81218642025723,158.18980652183953,121.30352652747072,142.40509198330412,219.3488174680129,206.7767123007013
2.4357691024357693,15.433423334686498,14.343090649151026,181.99580897916948,158.6924246538745,121.1561655437753,142.6649368707425,219.71949928787689,206.4190001394436
2.469135802469136,13.760704764854149,13.00956224458068,180.4983272691965,158.47009881193716,121.01052034160566,142.95617095642442,220.1020434687791,206.0330134237948
2.5025025025025025,11.904688997743197,11.70914504349751,178.38592903558103,157.6239030336603,120.90487278696892,143.25646990081353,220.4650182757012,205.62203145221204
2.5358692025358693,10.197053637752724,10.50963213388492,176.68992275427377,156.13048729367472,120.80142837371292,143.607646891664,220.9053500264052,205.2194340321132
2.569235902569236,8.563912803804818,9.111553002426035,175.50708116328784,154.59699632212073,120.69927031702642,143.95580209833432,221.3818415558285,204.8349110522207
2.6026026026026026,7.206748553005628,7.720726286378265,174.64148247196945,151.6671934542453,120.60310725572236,144.31615102484793,221.88305485004489,204.46806292881035
2.6359693026359694,5.974008949671727,6.642307079864885,175.34640868882104,149.24931233547198,120.50419735792325,144.67947038929574,222.4093861855946,204.1160699059661
2.669336002669336,5.134232328389827,5.72265279708365,175.83574136255965,146.0949733712813,120.37605066326036,145.04448281539288,222.980220774364,203.78424442980528
2.702702702702702,4.820705008576916,4.75156040857912,176.36221348032453,142.55527320167394,120.22105909939576,145.38709857270854,223.5968816532142,203.4818139679738
2.736069402736069,4.820705008576916,3.94958349454117,176.76255484776365,138.5332992524373,120.07793355665876,145.71585257197657,224.18229418522768,203.1774192824857
2.7694361027694363,4.820705008576916,3.2249289583696674,177.1849752401628,134.28674037171174,119.9446250056898,146.00194055024792,224.7960906251792,202.896055588402
2.802802802802803,4.820705008576916,2.75646379939944,177.33480588446488,129.5104309497707,119.88405690235842,146.28615239755027,225.1627119368715,202.6057958107758
2.836169502836169,4.820705008576916,2.460641006167155,177.39571064641643,122.6090249915422,119.87504131595676,146.55708961494534,225.3595738964651,202.33135564930487
2.8695362028695364,4.820705008576916,2.435977703470208,177.24921745409088,115.60921814674349,119.77485308493038,146.8260754284228,225.5456328227182,202.0769336253932
2.902902902902903,4.820705008576916,2.568555940175404,176.8291117723064,108.50603060731804,119.6591771964016,147.1294183427331,225.64737564474623,201.8531083819645
2.9362696029362696,4.820705008576916,2.973997644891967,176.10266386124266,101.58472517847966,119.51573014813503,147.30475257916748,225.8499891983094,201.73728737158385
2.9696363029696364,4.820705008576916,2.973997644891967,174.61095989439676,95.32078592956972,119.34584661796072,147.3684237566087,226.06476317690323,201.7046653151293
3.003003003003004,4.820705008576916,2.973997644891967,173.18075818280877,89.27306155871366,119.17214793893544,147.39095494533802,226.26822152275884,201.6847021532864
3.0363697030363697,4.820705008576916,2.973997644891967,171.9957056114568,83.80487265824028,118.97678656024004,147.35289029201095,226.4625931348492,201.67289078250835
3.0697364030697365,4.820705008576916,2.973997644891967,171.06786703043454,78.78304188524314,118.77767308000418,147.31857441588912,226.7125215137776,201.64037991439503
3.103103103103104,4.820705008576916,2.973997644891967,170.25868516406058,74.50215088053812,118.59356017985714,147.26557694475628,226.96472400755903,201.60506670122624
3.1364698031364697,4.820705008576916,2.973997644891967,169.52408289856305,70.6066827637087,118.55345199120424,147.27029181005875,227.111897241743,201.4985980693644
3.169836503169837,4.820705008576916,2.973997644891967,168.97490436333166,67.17884907148621,118.59594481695493,147.2929411741581,227.19655383611803,201.35261203625083
3.2032032032032034,4.820705008576916,2.973997644891967,168.2248949152405,64.47093122623703,118.67826364173278,147.3189941630449,227.2622019134473,201.1875047529108
3.2365699032365702,4.820705008576916,2.973997644891967,167.38093163608636,62.38555498104551,118.79791582212034,147.32353661703596,227.3014050072037,201.02600608045435
3.2699366032699366,4.820705008576916,2.973997644891967,166.9133854228469,60.83634525828089,118.90461669367308,147.29717858614654,227.3625799733081,200.89226816196364
3.3033033033033035,4.820705008576916,2.973997644891967,166.34711907114414,59.97468786360341,119.02047804694678,147.2503646291035,227.41367821244955,200.79182590276264
3.3366700033366703,4.820705008576916,2.973997644891967,166.28602327151182,59.97329192180545,119.14501499063329,147.21370813763764,227.4826933163405,200.6815098860326
3.3700367033700367,4.820705008576916,3.6895611844820375,166.72621087010805,60.76911942686032,119.2775775889473,147.19095218910292,227.56051945516663,200.56009783865696
3.4034034034034035,4.820705008576916,3.6895611844820375,165.20137392081162,62.555515268622926,119.40581722811812,147.1649542644739,227.65392180257268,200.43839632883763
3.4367701034367704,4.820705008576916,3.6895611844820375,162.52530092202244,65.25413012693913,119.52210811930496,147.14900305835624,227.7644983287944,200.29582834159544
3.4701368034701368,4.820705008576916,3.6895611844820375,159.35696654217247,68.34051415316527,119.63168308573393,147.1499934141618,227.89957412404232,200.13094580639856
3.503503503503504,4.820705008576916,3.6895611844820375,155.5965303945145,72.03790520259932,119.73663720497906,147.16253956126417,228.04326734599456,199.9502691951448
3.5368702035368704,4.820705008576916,3.6895611844820375,154.7787128549914,73.71104250391035,119.82678151425654,147.1799129920956,228.21721554774865,199.7652077703619
3.5702369035702373,4.820705008576916,3.6895611844820375,154.47376526421365,75.4213491924789,119.897272263032,147.1983890423967,228.4181721835893,199.58789805438064
3.603603603603604,4.820705008576916,3.6895611844820375,153.98344745558978,76.97373360735156,119.9490017153792,147.23381212753125,228.6400290742624,199.4033079857124
3.6369703036369705,4.820705008576916,3.6895611844820375,153.6250980728727,78.5269047207411,120.00322440508548,147.28932951268828,228.86628963531484,199.20832889743048
3.670337003670337,4.820705008576916,3.6895611844820375,154.50928363855343,79.91236206429305,120.03219021852192,147.3621074121175,229.10595639714333,199.00697805644663
3.703703703703704,4.820705008576916,3.6895611844820375,155.79801202112898,81.35639767027499,120.03884139717049,147.4479877007981,229.35181165177693,198.8035103797558
3.737070403737071,4.820705008576916,3.6895611844820375,157.32749079799217,82.07774448518919,120.02272929260212,147.54429752618378,229.5971621412377,198.5974295186801
3.770437103770437,4.820705008576916,3.6895611844820375,159.24968702867014,83.49621595030673,119.9759144541828,147.62109905680904,229.8441668568055,198.4028119107075
3.803803803803804,4.820705008576916,3.6895611844820375,159.85748441639262,83.6767860516223,119.91326869680285,147.68826453173736,230.08076016757204,198.21360039022187
3.8371705038371706,4.820705008576916,3.6895611844820375,160.51548109618494,83.50688079752851,119.83972607228198,147.77433655231064,230.31104115194395,198.0165554363
3.8705372038705375,4.820705008576916,3.6895611844820375,160.92285305094717,82.69364785041314,119.76183424468636,147.884013941314,230.5223454415248,197.81845206238344
3.903903903903904,4.820705008576916,3.6895611844820375,161.2048374443699,81.43145988200716,119.71117237900174,148.0255615377565,230.72006405544343,197.5930781768081
3.937270603937271,4.820705008576916,3.6895611844820375,161.11484592260354,79.35519901171715,119.67249981530308,148.21128166934128,230.88492057407925,197.3522581994576
