Time,Left Shoulder Angle,Right Shoulder Angle,Left Elbow Angle,Right Elbow Angle,Left Hip Angle,Right Hip Angle,Left Knee Angle,Right Knee Angle
0.0,7.517666140774287,29.938216790318464,150.14737697948746,165.14231272099744,150.71097964887178,147.48580530467413,201.3786701037264,201.83227524440807
0.0333667000333667,9.003668014223555,29.90691134869643,148.50698206027653,164.19548129311053,150.73710634316677,147.032003757449,201.6153704582984,202.18488608645328
0.0667334000667334,10.380139610128388,29.890820914126323,147.13781626899151,163.37435593492148,150.75930092895825,146.6119241494277,201.8045832076782,202.5050855150068
0.1001001001001001,11.651195058048891,29.88878065624554,146.02422132357557,162.67212203441633,150.77811679316025,146.22416904852068,201.94883964347176,202.7945605650554
0.1334668001334668,12.82094848754518,29.89962574469148,145.15053894197172,162.08196497958122,150.79410732268678,145.86734102263833,202.0506710572849,203.05499827158584
0.1668335001668335,13.89351402817736,29.92219134910154,144.50111084212313,161.59707015840218,150.80782590445185,145.54004263969105,202.1126087407233,203.2880856695849
0.2002002002002002,14.873005809505546,29.955312639113107,144.0602787419729,161.2106229588653,150.81982592536949,145.2408764675892,202.1371839853931,203.4955097940393
0.2335669002335669,15.763537961089844,29.99782478436358,143.81238435946403,160.91580876895665,150.8306607723537,144.96844507424322,202.1269280829,203.67895767993585
0.2669336002669336,16.56922461249037,30.04856295449036,143.74176941253972,160.70581297666232,150.84088383231853,144.7213510275635,202.0843723248498,203.8401163622612
0.3003003003003003,17.29417989326723,30.10636231913083,143.83277561914304,160.57382096996838,150.85104849217794,144.49819689546038,202.01204800284845,203.98067287600216
0.333667000333667,17.942517932980536,30.1700580479224,144.06974469721706,160.51301813686092,150.86170813884598,144.29758524584432,201.91248640850176,204.1023142561455
0.3670337003670337,18.5183528611904,30.23848531050245,144.43701836470493,160.516589865326,150.87341615923668,144.11811864662567,201.7882188334156,204.20672753767792
0.4004004004004004,19.02579880745692,30.310479276508392,144.9189383395497,160.57772154334975,150.88672594026406,143.95839966571486,201.6417765691958,204.29559975558612
0.4337671004337671,19.468969901340223,30.384875115577607,145.4998463396945,160.6895985589182,150.9021908688421,143.81703087102227,201.4756909074482,204.37061794485703
0.4671338004671338,19.85198027240041,30.46050799734749,146.1640840830824,160.8454063000174,150.92036433188483,143.6926148304583,201.2924931397787,204.4334691404773
0.5005005005005005,20.1789440501976,30.53621309145545,146.89599328765652,161.03833015463348,150.94179971630626,143.58375411193333,201.0947145577932,204.48584037743368
0.5338672005338673,20.45397536429189,30.610825567538875,147.67991567135996,161.26155551075252,150.96705040902046,143.48905128335778,200.88488645309727,204.52941869071287
0.5672339005672339,20.681188344243544,30.68318059523541,148.50019295213693,161.50826775636202,150.9966697969427,143.40710891264317,200.66554011729883,204.5658911153034
0.6006006006006006,20.58725755460034,30.72643998643319,149.23625265402876,161.72590613074937,150.95087207538282,143.33634354354928,200.4809678129917,204.5823481286664
0.6339673006339673,20.734807775590657,30.746855130797933,149.87207401318065,161.90293367531328,150.97437091571857,143.29770354055483,200.3092500984273,204.592663649996
0.6673340006673341,20.81013387672348,30.75506106097517,150.5311021889281,162.0690237983303,151.04119206125458,143.2749907746351,200.115909143172,204.60433355776885
0.7007007007007008,20.89919674652008,30.798484319415262,151.03163438359698,162.31491833406545,151.1464884373912,143.2624979127052,199.88414929892403,204.6221169834678
0.7340674007340674,20.982581274142778,30.877717629334985,151.56406472014666,162.63365278588597,151.29512192541668,143.23626561542824,199.6209874701944,204.65978860505788
0.7674341007674341,21.204225316642944,30.958412187954487,152.32897415585944,162.93750576803458,151.53849893192515,143.2057212911061,199.3401699012921,204.70548349502772
0.8008008008008008,21.34986853786532,31.00753766345249,152.98633198247396,163.17814156498474,151.7703395964368,143.1822389797797,199.0637995404448,204.75047018887253
0.8341675008341676,21.47759439056058,31.00549135594381,153.57993522832075,163.34019227693264,151.9553673724664,143.16397817168428,198.8328333068584,204.8024503161048
0.8675342008675342,21.57020210600591,30.96747964601228,154.0951596538383,163.4422232731363,152.10058003631715,143.1410051160011,198.62752924343275,204.869427382988
0.9009009009009008,21.64919130335089,30.906194481372413,154.5748998850761,163.52151902941802,152.2197594979072,143.12398135270718,198.44654810874152,204.9381205722822
0.9342676009342676,21.68680051957812,30.81724537971481,154.944461275924,163.5513356534929,152.3197881452139,143.10210461067274,198.2679053647024,205.01455918356527
0.9676343009676344,21.71088892163172,30.713006783930943,155.2799297031046,163.52569088295525,152.39217653671227,143.07989000710737,198.1121124215456,205.0976795110924
1.001001001001001,21.68180072661789,30.60439906351698,155.43727388018198,163.4640678573123,152.41949594007838,143.03458135726368,197.9860149603637,205.1944286352009
1.0343677010343677,21.59083416122516,30.50564349517811,155.49974496793286,163.44346766830176,152.41980281771254,142.97511561785743,197.88454832957703,205.28726891697977
1.0677344010677343,21.412911973392323,30.495233261131684,155.39989927591188,163.63298488654078,152.37508828553777,142.87821671736307,197.78454425366576,205.3934055210057
1.1011011011011012,21.448064257576124,30.51782345827481,155.71204686597545,163.69074726050556,152.27666635340813,142.6964492749835,197.7414053908861,205.5383289763137
1.1344678011344678,21.62276738048693,30.53029187832331,156.2697177143265,163.69716250213762,152.09996579029902,142.46751138036586,197.7310287316118,205.70980237121208
1.1678345011678346,21.795244688144194,30.799490218803488,156.75165473850015,164.1754181312453,151.88838141734809,142.19896350054975,197.70977339547213,205.9129685371902
1.2012012012012012,21.910584017512555,31.03046699559632,157.0715304902459,164.5845920184553,151.64047103472606,141.9164310093772,197.6754528169673,206.1369421032191
1.234567901234568,22.05818535777568,31.058977867114173,157.35960851913978,164.57657363071613,151.34292271803383,141.59240470369005,197.63498027476052,206.38553930938943
1.267934601267935,22.22552713732948,30.976679546366665,157.65412667860002,164.382842570316,150.98520995990592,141.26007226694688,197.5797167828104,206.65464792313412
1.3013013013013013,22.37061621635726,30.80050588577153,157.94292800502126,163.98583880231152,150.62163024015072,140.94696738441624,197.464944715276,206.9367887247413
1.334668001334668,22.506008443385586,30.558253041119176,158.2192246883257,163.45846369627844,150.2277772356004,140.64320091444887,197.342758601035,207.2325285854264
1.3680347013680347,22.597354735794006,30.23611682014654,158.403699769274,162.78162832787746,149.80787026361588,140.32494888129594,197.2622425980985,207.53347573779968
1.4014014014014016,22.68793104690949,29.88573968149142,158.6032723269125,162.041833511193,149.33849044472151,140.00269791667185,197.222787062084,207.81485133682395
1.4347681014347682,22.848720520687166,29.5308705711923,158.88400240369324,161.32860158458055,148.79947955741167,139.67507801796185,197.25332258987385,208.08932593078976
1.4681348014681348,23.035217531367547,29.20928922013772,159.19504228403355,160.68579495311607,148.19539340807484,139.36402473787214,197.3414893718165,208.34438628303
1.5015015015015016,23.265669576958903,28.89389546180015,159.47872390769575,159.92498482130978,147.44286716409945,139.07014396988464,197.5333359946713,208.59367737666912
1.5348682015348682,23.499868064624035,28.68040534680202,159.75799146935967,159.29528994260642,146.6489283962876,138.80489779740583,197.7672990642666,208.828510235083
1.5682349015682349,23.773821586294904,28.58278762490968,160.0406588039469,158.9004240333388,145.8093239577163,138.5670534006615,198.0476004098742,209.03112424191767
1.6016016016016017,24.032500717839007,28.4932089798646,160.35972893754138,158.59218687205322,145.02213862504402,138.37113826161402,198.31606502117955,209.19381828389515
1.6349683016349683,24.23623643418144,28.298460582144884,160.67708645863527,158.12773015200457,144.34138651612125,138.20913538996177,198.53712386685868,209.31903276109608
1.6683350016683351,24.37870612833084,28.04706994049941,161.0150629340707,157.5991550901299,143.75881282241733,138.0950963835527,198.7211900994718,209.39980254043343
1.7017017017017018,24.57496223696577,28.10014463996581,161.57759439372458,157.71713739057304,143.2419271764302,138.02503544725994,198.89478942914712,209.44758344416184
1.7350684017350684,24.78316880493564,28.06521828134965,162.29222312339647,157.7279446682694,142.81224128886242,138.0109858750948,199.0400869705065,209.45969774207327
1.7684351017684352,24.87334669621151,27.856415402580936,162.97858449124487,157.19225554451367,142.51325240795657,138.0551967847628,199.1440278675762,209.4090816237301
1.8018018018018016,24.892644659678894,27.516702115353908,163.65484102000576,156.45997689464875,142.28939458376524,138.16121201948744,199.2281436578638,209.319706028008
1.8351685018351689,25.01251884958751,27.23503347200781,164.1808950584229,155.95859467074118,142.1914223632335,138.37622975169404,199.3685561421402,209.1754704166173
1.8685352018685355,25.098032418243704,26.85618739493207,164.74065571768176,155.39796476831043,142.1290349237519,138.64509698085567,199.49572149731665,208.9798526207529
1.901901901901902,25.21810936047166,26.552986456795995,165.28152184600185,154.67957734708628,142.09768637965163,138.89441778807742,199.582865065332,208.7873822273271
1.9352686019352687,25.25596505577214,26.164063532074795,165.9584844906309,153.90015608798365,142.02674116496965,139.12490316138692,199.6118932872076,208.61912767784057
1.968635301968636,25.16494277579758,25.735743851895645,166.46603913998558,153.34573587107926,141.9337196183511,139.34749589256347,199.59443333740543,208.47382489254028
2.002002002002002,25.00329272347437,25.14921449594565,166.87170575917352,152.7680923080177,141.88729729992525,139.5935026907673,199.4908112534937,208.32997328723417
2.035368702035369,24.76708687108888,24.5032509212246,167.1697416100753,152.1623828298969,141.89702154005056,139.83254979532657,199.30200740046072,208.212327363444
2.0687354020687354,24.475597390907947,23.738622865717296,167.60135767993833,151.42742081091615,141.9777965852503,140.07148315736686,198.9778243710393,208.11092111931185
2.1021021021021022,24.030285957752444,22.895753839905645,168.0964886103891,151.53322217415055,141.90109209922008,140.2136824281309,198.6322694070228,208.06753123893893
2.135468802135469,23.447815601296604,21.813053623894863,168.61774535763985,152.2122899212791,141.8333240041691,140.3511770444196,198.2507678868461,208.0327792281444
2.1688355021688355,22.88280256839409,20.69803966620978,169.54027378746358,152.25531479901863,141.93300061422485,140.53671080508164,197.83673513393327,207.99488492108475
2.2022022022022023,22.32833275142441,19.63704025549005,170.61759350016882,151.7370816157695,142.09860924910143,140.74883295265386,197.4275405725696,207.96175907540663
2.235568902235569,21.78545345801121,18.591260029168943,172.01071927430618,149.5878766624359,142.33928913470217,140.95515896554528,197.0531376882991,207.97201212136443
2.2689356022689355,21.264275792415987,17.557144314790886,173.49711685550045,147.47555864096202,142.6165880888623,141.1922029271501,196.6257956401828,208.00357315179647
2.3023023023023024,21.176221617258328,16.2821127756813,176.1590722402943,145.9477991590829,142.9194355459722,141.4190571464905,196.0341324694807,208.1337907603185
2.335669002335669,21.09355980888712,14.806379279068594,178.64646017188707,143.90877423411337,143.23028916922186,141.69440093785994,195.4998645017945,208.2584423500108
2.369035702369036,21.235892953247475,13.920872134361549,181.16548147863364,142.13179123390142,143.60191767151906,142.53100350845926,194.9866242136445,208.5921962028718
2.4024024024024024,21.167242190418023,13.016911684818735,183.29473530224885,138.3219350024443,143.9627071609491,143.25402277550293,194.5373750068273,208.80527223332183
2.4357691024357693,20.450303214204204,12.309544699590852,185.5210258988478,134.682979410181,144.08671172577482,143.8740203172222,194.452707173888,208.66303224202872
2.469135802469136,19.650545761680487,11.504651968041696,187.4411854549413,130.77234388597967,144.17360219609486,144.34705291283342,194.4544365471248,208.44418029613576
2.5025025025025025,18.692464580679776,10.576822849330826,189.81496031641169,126.72657265571289,144.33448534473885,144.60474768512287,194.3963661109021,208.4828759328293
2.5358692025358693,17.981263920282554,9.745032017393914,191.4453106724324,122.77607462219578,144.4608886829807,144.8078813766086,194.4217154803188,208.3985887491717
2.569235902569236,16.92745828476856,8.972408479248594,191.53585008288627,120.08157217611443,145.03869748898114,144.41477060422235,194.2478094672718,208.25656688434168
2.6026026026026026,16.320204353802946,8.581096074917172,189.1075125423616,117.15208873449264,145.3139401686706,144.03026921708357,194.21162968827844,208.0282511343752
2.6359693026359694,16.03110238921577,7.835294679990446,189.22750061059435,112.13466758207144,145.2777025834693,144.0024825693596,194.384549281902,208.0169551491861
2.669336002669336,15.944325261488505,7.33855095229657,189.5572658247292,108.06601529968272,145.31005866577567,143.987681111646,194.6139604331709,207.79098125634528
2.702702702702702,15.960454823898068,6.477790911198866,185.03732855968585,107.68175934543788,145.67468449549912,143.74424760962282,194.6339430957776,207.1930190967648
2.736069402736069,16.41699153574771,6.033056260696477,180.47225129978665,106.66331648592605,146.04143290741064,143.6272997801225,194.666712742001,206.4325286391704
2.7694361027694363,17.22031364249036,6.033056260696477,177.9372412483613,105.14734493858992,146.32675921370944,143.60776425612525,194.58895137032312,205.49616993900528
2.802802802802803,17.696624313180493,6.033056260696477,174.44309656100168,103.10480521024422,146.49742905853452,143.67057671665876,194.6033938166408,204.49451656308185
2.836169502836169,18.23428388734497,6.033056260696477,171.08225618833546,102.4197562535453,146.616314235333,143.8876641570607,194.7626799548528,203.354936783201
2.8695362028695364,18.96407240015439,6.033056260696477,167.95373531411465,100.96800069954487,146.69453964009648,144.1891124992009,194.9641861721348,202.16308729929227
2.902902902902903,11.078398497992255,6.033056260696477,164.8803444116767,99.65039925753844,146.76134282992552,144.51378615997257,195.2014200859969,200.9735721083188
2.9362696029362696,6.349925978384063,6.033056260696477,161.83275915237118,98.8089834928668,146.73702468653298,144.87055012059088,195.49889918408843,199.8103691379206
2.9696363029696364,4.535577376663471,6.033056260696477,158.83546580161752,97.49196880202192,146.5924803041284,145.16744793481536,195.86125469342323,198.7032562259964
3.003003003003004,4.535577376663471,6.033056260696477,156.1978416296667,95.79374282809007,146.3236517823487,145.4201968553813,196.14845501724488,197.6505057673904
3.0363697030363697,4.535577376663471,6.033056260696477,154.46301228280828,94.2508542317063,146.15763498329753,145.64157015151304,196.07644733236577,196.8778369454257
3.0697364030697365,4.535577376663471,6.033056260696477,153.01066013891295,92.301215735652,145.93505732970013,145.92182821522604,196.0359855287632,196.1164548656368
3.103103103103104,4.535577376663471,6.033056260696477,151.29605701706865,90.2379889645637,145.56742792070168,146.26289179482734,196.15696231043057,195.31689339032536
3.1364698031364697,4.535577376663471,6.033056260696477,149.89241905172182,87.50321940894209,145.1561124061135,146.6091912457813,196.35748889895905,194.4417469047896
3.169836503169837,4.535577376663471,6.033056260696477,149.16712963522812,84.80011528158134,144.64863296618094,146.89509903437235,196.62376642693755,193.6451784221449
3.2032032032032034,4.535577376663471,6.033056260696477,148.96300904372953,82.21287299799677,144.0808974091209,147.23744963237831,196.91955170956984,192.89394206082733
3.2365699032365702,4.535577376663471,6.033056260696477,149.05047443047144,76.88511746246769,143.5031789448419,147.66565434829272,197.20026937538307,192.232535025408
3.2699366032699366,4.535577376663471,6.033056260696477,149.69167774313684,71.0868297231879,143.1320416707508,148.29091649403577,197.48496009666283,191.60872716343536
3.3033033033033035,4.535577376663471,6.033056260696477,150.76748677138838,65.01404213038333,142.8522566058267,149.01411265851883,197.82505486297964,191.05826837341303
3.3366700033366703,4.535577376663471,6.033056260696477,152.19684099991682,59.41279076107458,142.5320259546814,149.79701171752086,198.2044365408153,190.60686719471647
3.3700367033700367,4.535577376663471,6.033056260696477,154.5341019306608,54.1550752255868,142.1568578700669,150.6576789832131,198.65827322618003,190.2779411666125
3.4034034034034035,5.23553037821378,6.033056260696477,157.45551386564907,50.554221727139904,141.76042516476488,151.59096143081504,199.09304576841083,190.0587869396546
3.4367701034367704,17.120141188997973,6.033056260696477,160.9912675601776,47.667328295706334,141.34252106756597,152.5851424290083,199.52428990782911,189.9621523595003
3.4701368034701368,28.48582482127481,6.033056260696477,163.5199264425165,44.60002738482283,140.95595273866857,153.66265805216707,200.14232068601075,189.88215825970536
3.503503503503504,39.07615863434431,6.033056260696477,166.1649259315991,41.45026164645065,140.66523279449476,154.75251895579444,200.79116108104725,189.8855479532573
3.5368702035368704,49.24672957997974,6.033056260696477,168.52493705117493,37.45774651657536,140.34716207596395,155.1666784503626,201.53454913445432,189.67802554637063
3.5702369035702373,50.222523292335,6.033056260696477,170.69428205497957,35.620917914517754,140.0819014409093,155.45280692961424,202.33194091972405,189.4767696733978
3.603603603603604,53.31266810042734,6.033056260696477,172.31366857960904,34.0655199044558,140.18978373851195,155.57377887238908,202.74766227464417,189.6235672709327
3.6369703036369705,58.304672463582094,6.033056260696477,173.1423063916503,33.42211397417508,140.48678138135412,155.5769728942707,203.02628596629845,189.90324089977256
3.670337003670337,65.06265480857299,6.033056260696477,172.28021278490638,33.68647686067198,140.78707402649476,155.52969454979137,203.3983691860929,189.9340063757312
3.703703703703704,73.74873241755179,6.033056260696477,170.78601023211417,34.89052780621378,141.0945800725765,155.2947283141748,203.7484697651907,189.9870003391617
3.737070403737071,83.76360981399391,6.033056260696477,169.5819709828971,35.56061860440632,140.79245040238638,155.56178804515798,204.43808359223289,190.0311575719834
3.770437103770437,94.76041179250367,6.033056260696477,170.32450101968163,36.979856597710366,140.5946734281735,155.93860577251647,205.089535662421,190.0732729717144
3.803803803803804,106.67770756145109,6.033056260696477,167.9106218922126,41.69548904620354,140.68622792328938,155.996442608967,205.53800027233896,189.7524376543877
3.8371705038371706,119.3955077800742,6.033056260696477,163.4652149407778,47.63829761775198,140.8498563853083,156.02166540698394,205.8346617009153,189.2788282731338
3.8705372038705375,132.0834635989377,6.033056260696477,163.18649379982438,50.729897974889006,140.72320706994606,156.28351854904304,206.26639223173075,188.996867130059
3.903903903903904,144.87386813364498,6.033056260696477,163.94423180325734,54.341512423748696,140.64429672479932,156.52877807575445,206.5587257436112,188.75202451229043
3.937270603937271,157.2907069414721,6.033056260696477,163.03956473247055,58.37644198194111,140.632744584284,156.7230247918894,206.94539296657163,188.6877321749632
