Time,Left Shoulder Angle,Right Shoulder Angle,Left Elbow Angle,Right Elbow Angle,Left Hip Angle,Right Hip Angle,Left Knee Angle,Right Knee Angle
0.0,29.99925230393677,27.328403518921903,162.81459489071568,160.42506790710806,131.27813491577442,131.30281983969513,203.6396898674295,210.7309101561412
0.0333667000333667,28.66209395465057,27.7253737788051,162.49579596813118,161.29273391985464,131.87220023163746,131.3710078086799,203.49903823049712,211.04229920835056
0.0667334000667334,27.416523080093743,28.023823413410422,162.17368027312185,162.02546885817236,132.3510487560825,131.44198855418406,203.4010186205508,211.29932138080247
0.1001001001001001,26.25871256350881,28.22942998579828,161.8502694950889,162.6319924396391,132.72187288352313,131.5158138905347,203.3429802095396,211.5050447620092
0.1334668001334668,25.184835288138306,28.347871059029043,161.52758532343356,163.12102438183274,132.99186500837314,131.5925356320589,203.32227216941257,211.6625374404828
0.1668335001668335,24.19106413722475,28.384824196163127,161.207649447557,163.50128440233124,133.16821752504617,131.67220559308382,203.3362436721188,211.7748675047355
0.2002002002002002,23.273571994010663,28.345966960260924,160.89248355686044,163.78149221871243,133.25812282795584,131.75487558793654,203.3822438896072,211.84510304327952
0.2335669002335669,22.42853174173857,28.236976914382826,160.5841093407451,163.97036754855426,133.26877331151593,131.84059743094414,203.457621993827,211.876312144627
0.2669336002669336,21.65211626365101,28.06353162158923,160.28454848861222,164.0766301094346,133.20736137014006,131.92942293643375,203.5597271567272,211.87156289729012
0.3003003003003003,20.94049844299049,27.83130864494053,159.99582268986293,164.1089996189314,133.0810793982419,132.0214039187325,203.68590855025687,211.8339233897812
0.333667000333667,20.289851162999536,27.54598554749713,159.71995363389848,164.07619579462252,132.89711979023522,132.11659219216745,203.83351534636503,211.76646171061225
0.3670337003670337,19.69634730692068,27.21323989231941,159.4589630101201,163.9869383540859,132.6626749405336,132.21503957106574,203.9998967170008,211.67224594829548
0.4004004004004004,19.15615975799644,26.83874924246778,159.21487250792893,163.8499470148994,132.38493724355078,132.31679786975445,204.1824018341132,211.5543441913432
0.4337671004337671,18.665461399469343,26.42819116100263,158.98970381672626,163.67394149464093,132.07109909370044,132.42191890256072,204.37837986965133,211.41582452826745
0.4671338004671338,18.220425114581914,25.98724321098436,158.78547862591324,163.46764151088843,131.72835288539625,132.5304544838116,204.58517999556412,211.2597550475805
0.5005005005005005,17.817223786576676,25.52158295547335,158.6042186248911,163.23976678121977,131.36389101305187,132.64245642783425,204.8001513838008,211.0892038377945
0.5338672005338673,17.452030298696155,25.03688795753001,158.44794550306105,162.99903702321285,130.984905871081,132.75797654895575,205.0206432063104,210.9072389874217
0.5672339005672339,17.12101753418307,24.538835780214946,158.31868094982562,162.7541719544468,130.59858985389835,132.87706666150427,205.24400463504355,210.716928584976
0.6006006006006006,16.72520337939844,23.996358102321363,158.204564425913,162.5142831340807,130.29364194559116,132.971961421085,205.4424001998576,210.5175757556404
0.6339673006339673,16.347326343693336,23.50525744907205,158.1425419127374,162.37786094769254,129.98084230210236,133.05825031226718,205.65786046155145,210.34110630644915
0.6673340006673341,16.021306987695752,23.104953930248573,158.1808624401331,162.3843683544402,129.65561257317398,133.1562397465658,205.87883500422365,210.1998737195038
0.7007007007007008,15.76020037773051,22.69073710727545,158.21096616728028,162.4029930041365,129.35364273427314,133.27129531662243,206.0477819262656,210.0659966321121
0.7340674007340674,15.481825545046275,22.27624251383073,158.15937613594923,162.45153564434065,129.04111704011578,133.3972671869875,206.2403011909784,209.93571669412955
0.7674341007674341,15.20629265404134,21.87637585489058,158.11812450987134,162.51997463955186,128.82931545933252,133.54857154128086,206.35942520158065,209.8067648467324
0.8008008008008008,14.979643777333845,21.562008450462884,158.15991274783974,162.72550079631282,128.6925632066057,133.7397417212959,206.4335326748442,209.67314802403345
0.8341675008341676,14.831976569823654,21.317498551095884,158.29474510607696,163.0154057784598,128.6137156923438,133.9673145995864,206.4879848840912,209.5321573264397
0.8675342008675342,14.681749142551158,21.08050943081628,158.42762442885342,163.30114420960933,128.54945821822358,134.18648355387276,206.58179891507447,209.4031145571034
0.9009009009009008,14.55699138012306,20.863165886758207,158.6317410068545,163.54923509800997,128.50381639391628,134.39736651566943,206.70905267156024,209.29113291554205
0.9342676009342676,14.506971717335665,20.69744724489985,158.86498979877587,163.78722906173547,128.44984210856285,134.60197690441328,206.90940071192915,209.1984706763122
0.9676343009676344,14.48316212776645,20.54408100244872,159.1999036487738,164.02278839066864,128.3933422386096,134.82728224201412,207.1782556506864,209.075323713418
1.001001001001001,14.507723677760517,20.32263339629635,159.7400457701719,164.16738044865926,128.40736327404844,135.09934209786647,207.39902291117008,208.92440682392825
1.0343677010343677,14.590545365934364,20.038450325986723,160.36376648557373,164.23440348331692,128.44413983146617,135.38400662056256,207.58424153274123,208.7722904886007
1.0677344010677343,13.868251013828395,19.72374208795,161.57620051765264,164.26418246471405,128.53088723013846,135.7188517401666,207.72856943893424,208.57149975140035
1.1011011011011012,13.36896446281943,19.373192450191265,162.09238790164213,164.36217286175466,128.57969757838038,136.03247045437075,207.8395787713257,208.35809959189527
1.1344678011344678,12.884177370451123,18.962023898718304,162.7037958477327,164.37794155026572,128.6186109238049,136.3848981508305,207.94131027736657,208.09944902992729
1.1678345011678346,12.34635834712365,18.552136339110515,163.23702048999817,164.37794581230295,128.667859667297,136.77704420300347,208.02752975497737,207.7956571811856
1.2012012012012012,11.837569795568326,18.0768177246422,163.73838979449224,164.2902108554367,128.6975139944728,137.1899319981529,208.1173542226605,207.4609816230933
1.234567901234568,11.376254143549756,17.56799174363284,164.3318710804091,164.11125175157846,128.71934679574258,137.64164146129622,208.226979014641,207.098063774403
1.267934601267935,10.940214601922856,17.016740250373278,164.89692721784542,163.85631867545214,128.77090273020212,138.10773713103893,208.3174098252261,206.72398790071784
1.3013013013013013,10.479180809822184,16.441495520828187,165.40563097572007,163.53532818464876,128.84277110882903,138.5688509219552,208.3809155069292,206.3552065409158
1.334668001334668,10.0861162177009,15.815299697251216,166.11572264869025,163.15371311537274,128.9843407880969,139.03468891455267,208.37383092305532,205.9731444089272
1.3680347013680347,9.732142862269152,15.1792744634407,167.78282196804753,162.74973406229827,129.10782058105306,139.49209399166193,208.3720544848632,205.57844582655275
1.4014014014014016,9.290763646384445,14.520160306305057,168.89423916208352,162.2889505942312,129.2062039826277,139.93619509717152,208.3728269189205,205.18186193736145
1.4347681014347682,8.897746781930023,13.93084886557634,169.7596067091992,161.94884646201888,129.26699471905442,140.36617984692592,208.38367157246327,204.7831655580756
1.4681348014681348,8.51487523307817,13.333980774697215,170.48549668227687,161.49176121234308,129.30520496663624,140.77006633598,208.36379788879293,204.40479480789915
1.5015015015015016,8.128980439965636,12.61855652997845,170.78472974357203,160.96770885739346,129.36991871867792,141.16599546674524,208.3204181181288,204.0380928926239
1.5348682015348682,7.765550224238749,11.85948282757645,170.92979183700223,160.34807917888983,129.40363276823422,141.5323132763166,208.29384387109764,203.7021738113832
1.5682349015682349,7.502306345387536,11.094201908163688,171.2399381363409,159.65868341581512,129.3761737150776,141.84876396942235,208.28397181834487,203.40394751985812
1.6016016016016017,7.159456924534818,10.319431851222678,171.38618041969772,158.90380097160377,129.26390994376214,142.10419425551453,208.30418704176245,203.1455071703564
1.6349683016349683,6.745139984508267,9.514032276141766,171.31847306959256,158.16068669348203,129.08082151864613,142.31285439082345,208.3613876778258,202.919702721212
1.6683350016683351,6.245888561526935,8.708066146202123,171.39931761019423,157.5271285168209,128.86967758656652,142.51062715408298,208.3992804219893,202.71753394527065
1.7017017017017018,5.853645019789746,7.864478700874725,175.38764192616804,156.8685322021336,128.59607309302754,142.68484112957125,208.44711471709468,202.52165580211545
1.7350684017350684,5.700615121789865,7.03988721994185,173.89480609671716,156.22045507758926,128.2792611868612,142.85876446021666,208.5306652217799,202.32994477495373
1.7684351017684352,5.478414668613371,6.307696099228474,175.8503507155516,155.7898793159097,127.88457435924288,143.00957180913375,208.6203838217077,202.17375033128505
1.8018018018018016,5.049270450169242,5.659714511336188,179.478291195002,155.48273034895075,127.48044379351536,143.13890304575398,208.68865380993603,202.0461872469901
1.8351685018351689,4.6066284099637285,5.0524593825792,175.65832139953767,155.05074335023843,127.10479979494248,143.2409182661387,208.7505264537256,201.9417297986152
1.8685352018685355,4.140314348279602,4.31071958615119,174.9318467439276,154.1999310753185,126.76405257568828,143.31860880340537,208.86655633033268,201.8755953474933
1.901901901901902,3.693499843161195,3.693606207485296,173.93846464419144,153.52338400769804,126.50062125604497,143.3909584070248,208.96072128697628,201.82930256339972
1.9352686019352687,3.507527654914087,3.2375538211323063,172.8286520020062,152.36923739060532,126.20507184231448,143.43391816808608,209.1218781703653,201.8056516092681
1.968635301968636,3.416855259912439,2.9529176547463174,171.53054877549414,152.11020997212282,125.85631227471796,143.4468722222328,209.36072068457665,201.81438205755177
2.002002002002002,3.367611651986104,2.8395499776722737,170.05173757297277,151.09666200350313,125.4569381309216,143.42532709592018,209.6583501564212,201.8554683096024
2.035368702035369,3.32401643377786,1.7946100256450714,168.21778580269745,144.72312081824293,125.06263777255202,143.39418015315852,209.96513973994325,201.90105746813373
2.0687354020687354,3.32401643377786,1.2675683598100491,166.27438903505595,140.3107580372494,124.67311543411348,143.34992147149418,210.2659073870188,201.93733607937
2.1021021021021022,3.32401643377786,1.5297662318134646,164.32575245683392,140.85598656737184,124.300548681094,143.30678184567898,210.4817846004721,201.9449018887694
2.135468802135469,3.32401643377786,2.195256154921492,162.61970093554595,140.2487640698433,123.95803287273334,143.24649034522062,210.58731374757195,201.9660701364665
2.1688355021688355,3.32401643377786,2.195256154921492,161.65691866211435,139.2126416663871,123.63716491838002,143.16315732450283,210.6698182625124,202.00312143953207
2.2022022022022023,3.32401643377786,2.195256154921492,160.30103208811798,137.7406327773068,123.38387101047223,143.08023148981653,210.7280786439818,202.03035990582177
2.235568902235569,3.32401643377786,2.195256154921492,158.327479781115,136.23713468731998,123.18535460089048,142.96118840747616,210.80956638620444,202.07636871601548
2.2689356022689355,3.32401643377786,2.195256154921492,156.09795101203693,134.66821938587427,123.05946137623594,142.84419459446855,210.8738660901634,202.11944230758544
2.3023023023023024,3.32401643377786,2.195256154921492,153.482334516489,132.70469806632502,122.9527386185761,142.73035353213766,210.9196140177842,202.16645791494483
2.335669002335669,3.32401643377786,2.195256154921492,150.87756819412976,130.1692364593664,122.96014054163538,142.61152582200594,210.94924848179963,202.2116548936263
2.369035702369036,3.32401643377786,2.195256154921492,147.81082815413484,127.21081155643242,123.12763648358248,142.52921525138814,210.95782978039173,202.2315706207764
2.4024024024024024,3.32401643377786,2.195256154921492,144.6403105992026,123.91709283040484,123.42593892442612,142.46786783751486,210.9484366027018,202.2379069517587
2.4357691024357693,3.32401643377786,2.195256154921492,142.15403082632156,120.6685322401448,123.8369714450848,142.43256920687122,210.9195387698064,202.23513924896963
2.469135802469136,3.32401643377786,2.6583553321604625,139.55348765384508,117.39858920088125,124.31181655550571,142.3928762796888,210.8955864151793,202.2283194507039
2.5025025025025025,3.32401643377786,2.6583553321604625,136.9053827461946,114.22485041136268,124.78843111618534,142.34415294228262,210.9030591072427,202.21773297802105
2.5358692025358693,3.32401643377786,2.6583553321604625,133.25798056715294,110.86134114480949,125.34570076987076,142.29237558752038,210.92701031835395,202.2038345458275
2.569235902569236,3.32401643377786,2.6583553321604625,130.1309387785128,106.27304441969484,125.89458478188044,142.23642778952023,210.9604898943008,202.19401287772044
2.6026026026026026,3.32401643377786,2.6583553321604625,127.80588903967256,101.13822882021076,126.45210260544324,142.18262933008697,210.9746015804525,202.17508808916315
2.6359693026359694,3.32401643377786,2.6583553321604625,125.68942196610335,96.1641604211314,127.01061295567922,142.13241319515296,210.9975319008827,202.1496558674513
2.669336002669336,3.32401643377786,2.6583553321604625,124.38545049199148,91.2278001331153,127.50689530008869,142.08417674282745,211.0373336828505,202.12268979145892
2.702702702702702,3.32401643377786,2.6583553321604625,123.82073343311612,86.4860363062771,127.94446672743518,142.03887099437824,211.08701298736645,202.0945359494457
2.736069402736069,3.32401643377786,2.6583553321604625,123.7595901215015,81.86805148930803,128.33405096165905,141.99860537411473,211.13802535245745,202.0685457675874
2.7694361027694363,3.32401643377786,2.6583553321604625,124.34709935499072,77.54994861064249,128.7163865143108,141.97137958777557,211.1267630557901,202.0431586883724
2.802802802802803,3.32401643377786,2.6583553321604625,125.94748464233098,73.47498452765203,129.03177431468177,141.9555702382139,211.1246543802621,202.0192720444586
2.836169502836169,3.32401643377786,2.6583553321604625,128.39278565195482,69.60032923875576,129.27802637261456,141.9412179457271,211.15351981584223,201.9991322316429
2.8695362028695364,3.32401643377786,2.6583553321604625,126.43246613987486,65.97537925918034,129.5021430716246,141.94039407586558,211.22162461259427,201.9748866518053
2.902902902902903,3.32401643377786,3.058225045558709,129.6718676404953,62.75793552381108,129.6745123542555,141.94903226475387,211.2725883869592,201.9439859932328
2.9362696029362696,3.32401643377786,3.058225045558709,129.70386646378498,59.54618230191858,129.82530208701084,141.9713692244955,211.33645612160063,201.910554191786
2.9696363029696364,3.32401643377786,3.058225045558709,126.3619486638544,56.31333988609605,129.925172146629,142.0098366562976,211.4314680448427,201.87593995009345
3.003003003003004,3.32401643377786,3.058225045558709,129.88515562312708,53.262593600014746,129.9669867419684,142.06378697735656,211.5648146443416,201.8378115031476
3.0363697030363697,3.32401643377786,3.058225045558709,130.9047044409215,50.80539252329684,129.8782581281359,142.1290473647696,211.74969453683696,201.79006315667067
3.0697364030697365,3.32401643377786,3.058225045558709,132.13735864498494,48.29217010841473,129.68390685512367,142.1955548639387,212.00038273784213,201.73270493026504
3.103103103103104,3.32401643377786,3.058225045558709,133.35260806237426,46.43693851559373,129.39879695398514,142.26775778447546,212.2914599945429,201.6674258181818
3.1364698031364697,3.32401643377786,3.058225045558709,134.47770664110126,43.45587834435817,129.0315248854396,142.3310306836214,212.6121151417953,201.60352926771947
3.169836503169837,3.32401643377786,3.058225045558709,135.38043480067842,40.70035329252522,128.60606115490958,142.39447544045117,212.94908325193347,201.54047744161505
3.2032032032032034,3.32401643377786,3.255698148985436,136.5344212177218,44.494790433499126,128.1117070261008,142.44949500215455,213.2960871987644,201.48189453772704
3.2365699032365702,3.32401643377786,3.2226801450459903,138.02118035409532,48.89710384420716,127.52571077075072,142.49614782331125,213.68954358747243,201.4290568078132
3.2699366032699366,3.32401643377786,3.2226801450459903,139.86190229654548,49.210186337778985,126.9061223716867,142.5214621833505,214.12933738616883,201.3891678955084
3.3033033033033035,3.32401643377786,3.2923501905605232,141.69422212036426,50.31349472362913,126.31367065716488,142.53396695758113,214.58342588951288,201.3614435498116
3.3366700033366703,3.32401643377786,3.2923501905605232,142.5942239912538,51.73440127052895,125.723594555782,142.546515157942,215.0712378123292,201.34435175414885
3.3700367033700367,3.32401643377786,3.2923501905605232,143.34518328984825,53.53066347422972,125.15459259154647,142.5532879502711,215.5923402521314,201.33464215173595
3.4034034034034035,3.435949142873233,3.2923501905605232,144.2394491755548,55.27785374062586,124.62078982182112,142.5536195768429,216.1318386737059,201.32793887010635
3.4367701034367704,3.435949142873233,3.2923501905605232,144.54000777597835,56.67585460988814,124.0941655060147,142.56222260117968,216.6843511364667,201.32107414443263
3.4701368034701368,3.435949142873233,3.5401775086666376,144.78365265567876,57.99179913664382,123.6883315034909,142.57613938436415,217.22690655027225,201.30444235001008
3.503503503503504,3.435949142873233,3.5401775086666376,145.2364142584317,59.4022542426414,123.37293299227672,142.58863540512075,217.7761444943844,201.2828775478881
3.5368702035368704,3.435949142873233,3.5401775086666376,146.6699429136098,60.86399625144907,123.04600331329551,142.59512369343915,218.3411692591384,201.2668200910931
3.5702369035702373,3.6676220764597978,3.5401775086666376,147.90852194501187,62.40847016118804,122.80629659752704,142.58608461951837,218.8806445457875,201.2526717271592
3.603603603603604,3.6676220764597978,3.5401775086666376,148.1321415011199,63.62060948388172,122.63344389043873,142.5552085754623,219.4087672311493,201.24398739865308
3.6369703036369705,3.6676220764597978,3.5401775086666376,148.40068994669667,64.37838836476232,122.61583148614976,142.5137980874632,219.8911247916562,201.2334678117516
3.670337003670337,3.6676220764597978,3.5401775086666376,148.93639941572764,64.44165935188526,122.70017647238262,142.47266309186722,220.34543403618048,201.217778447426
3.703703703703704,3.6676220764597978,3.5401775086666376,149.60786742786556,63.95908558085856,122.76929364427488,142.45063840880542,220.7808775672784,201.1841071513093
3.737070403737071,3.6676220764597978,3.5401775086666376,150.04577209896382,64.20022300333252,122.84778210043926,142.43282426792285,221.19692147273105,201.14701409132576
3.770437103770437,3.6676220764597978,3.5401775086666376,150.2257278141837,64.902061158411,122.92907348184887,142.41240836225458,221.62078516420664,201.12006295899377
3.803803803803804,3.6676220764597978,3.5401775086666376,150.4656367518921,65.47853829077945,123.00036930772808,142.37144288617154,222.0287528033825,201.1131844100276
3.8371705038371706,3.6676220764597978,4.013531682090423,150.64666960687063,66.02946465356429,123.00783325602607,142.30417018718197,222.41712513080543,201.1400515446937
3.8705372038705375,3.6676220764597978,4.013531682090423,150.77709144201555,66.53930086986324,123.0827552526352,142.26174612438737,222.76174581758704,201.1167399519941
3.903903903903904,3.6676220764597978,4.013531682090423,150.8745767149368,67.14071813946025,123.1861857995827,142.25470100392943,223.07656354633875,201.04120571952143
3.937270603937271,3.6676220764597978,4.013531682090423,151.19359378720216,67.60231459992451,123.28052092661682,142.2705666467954,223.426161676959,200.93153751697503
