Time,Left Shoulder Angle,Right Shoulder Angle,Left Elbow Angle,Right Elbow Angle,Left Hip Angle,Right Hip Angle,Left Knee Angle,Right Knee Angle
0.0,26.186979043338965,30.780771020222435,147.85084078002106,156.55377239627214,138.35328525054194,136.94258514962175,198.1263770074112,201.4285199406807
0.0333667000333667,23.88159513076988,31.18093599186178,144.06698008464377,157.6547930223918,138.09437010604256,137.17951977193457,198.39051593379537,201.83368383250752
0.0667334000667334,21.955049797307367,31.55960169944728,140.9546768697643,158.64875258234088,137.90519684878916,137.35727489124204,198.5820617812928,202.17165649776533
0.1001001001001001,20.38760375084211,31.91731429792787,138.47671078546722,159.53905644301364,137.78071707766648,137.48005187385513,198.70502924016645,202.44614861050155
0.1334668001334668,19.1595176992648,32.2546199422525,136.595861481837,160.32910997130432,137.71588239155923,137.55205208608484,198.7634330006794,202.6608708447637
0.1668335001668335,18.251052350466125,32.572064787370124,135.2749086089582,161.02231853410717,137.7056443893522,137.57747689424207,198.7612877530948,202.8195338745992
0.2002002002002002,17.64246841233678,32.87019498822968,134.4766318169153,161.62208749831652,137.74495466993008,137.5605276646378,198.70260818767545,202.9258483740556
0.2335669002335669,17.314026592767448,33.149556699780106,134.1638107557928,162.13182223082654,137.82876483217763,137.50540576358298,198.5914089946845,202.98352501718017
0.2669336002669336,17.24598759964882,33.41069607697037,134.29922507567525,162.55492809853155,137.95202647497962,137.4163125573886,198.43170486438507,202.99627447802052
0.3003003003003003,17.41861214087158,33.6541592747494,134.84565442664712,162.8948104683258,138.10969119722077,137.29744941236558,198.2275104870401,202.9678074306242
0.333667000333667,17.81216092432643,33.88049244806615,135.76587845879297,163.15487470710357,138.29671059778585,137.1530176948249,197.98284055291265,202.9018345490385
0.3670337003670337,18.406894657904047,34.09024175186956,137.02267682219727,163.33852618175905,138.50803627555953,136.98721877107752,197.7017097522657,202.802066507311
0.4004004004004004,19.18307404949513,34.283953341108585,138.57882916694453,163.44917025918656,138.73861982942665,136.80425400743437,197.38813277536235,202.67221397948907
0.4337671004337671,20.12095980699036,34.46217337073216,140.39711514311932,163.49021230628034,138.9834128582719,136.60832477020642,197.0461243124656,202.51598763962025
0.4671338004671338,21.200812638280425,34.62544799568924,142.4403144008061,163.46505768993467,139.23736696097998,136.4036324257046,196.67969905383853,202.33709816175195
0.5005005005005005,22.402893251256017,34.77432337092877,144.6712065900894,163.37711177704378,139.49543373643573,136.19437834023995,196.2928716897441,202.13925621993167
0.5338672005338673,23.707462353807827,34.9093456513997,147.05257136105374,163.22977993450195,139.7525647835238,135.98476388012335,195.88965691044544,201.92617248820687
0.5672339005672339,25.09478065382675,35.03106099205122,149.54718836378473,163.02646752920472,140.00371170113013,135.7789904116669,195.4740694062071,201.70155764062665
0.6006006006006006,26.424079935270942,35.065401503146944,151.89243955854954,162.64438703338658,140.11729455953764,135.59240747588746,195.10857641543416,201.54345102705736
0.6339673006339673,27.67156920880909,35.10714928151086,154.2039522341256,162.26914082293197,140.26927780367438,135.4117998610673,194.74517567628223,201.37811227701312
0.6673340006673341,28.906937653776904,35.14249773296489,156.45746979248327,161.8762709477093,140.40237354620908,135.2803560892297,194.35981214814043,201.20700241146287
0.7007007007007008,30.22831097114015,35.23188176222281,158.65738874702856,161.49441663213864,140.54216239391587,135.14811391514715,193.95631392866872,201.0283406453025
0.7340674007340674,31.58888029340224,35.33685970463472,160.8399101589004,161.10116346752113,140.6380929933308,135.05420943491876,193.58863787997683,200.8370866548781
0.7674341007674341,32.976845886216736,35.5176148789892,163.22706199618568,160.7390328577468,140.681237762144,134.98292947535666,193.2418367833353,200.633045693659
0.8008008008008008,34.354988879260354,35.69623229577815,165.50137025978287,160.35456589353544,140.6846801852549,134.97662453221844,192.8815935545445,200.4339539032342
0.8341675008341676,35.692257915768835,35.94609436137167,167.61429063351682,160.06080709213103,140.69618541267448,135.04387935646577,192.51591467069323,200.23482544534548
0.8675342008675342,37.01501787541132,36.16548433828573,169.4984080750766,159.72772844570068,140.67463727449717,135.1665831217964,192.1466066250293,200.03108820924416
0.9009009009009008,38.24504284178313,36.36233336486831,170.90023603990812,159.39341276410383,140.6841288974778,135.34656094025937,191.6642557291928,199.8051241796649
0.9342676009342676,39.36543043274634,36.485907497155225,172.00984813525747,158.9931527312406,140.66921599455702,135.6062617431808,191.2148349638966,199.5342827909893
0.9676343009676344,40.51979398489343,36.57940622939822,173.1056130710013,158.59849896963547,140.59826552104624,135.78086324842857,190.80148059890607,199.3450196655006
1.001001001001001,41.561902260011145,36.59819964920453,173.99615261941307,158.1994972209679,140.51016522895063,135.97590737732503,190.42760799636207,199.22090888639707
1.0343677010343677,42.41291745091966,36.646954863536266,174.57796958057048,157.9390176182979,140.37891888390726,136.16488764001508,190.1309227973174,199.2253053518384
1.0677344010677343,43.05037996864031,36.61088242163807,174.99891072200384,157.51324613176817,140.16913967208572,136.34033057929042,189.9638238367772,199.3029923591515
1.1011011011011012,43.50845461407009,36.38333289157589,174.86277088515416,156.85156809521015,139.89073549765754,136.54129325550875,189.8676912919394,199.3852345511977
1.1344678011344678,43.81817208718171,36.06485268713761,174.39141544824247,156.13656779925452,139.5747943290725,136.8277592366549,189.8271824528016,199.4239537489925
1.1678345011678346,43.968089291252085,35.757892336051114,173.36543220900293,155.56397744021493,139.2694494891494,137.19082160408797,189.8213607526785,199.41791561133485
1.2012012012012012,44.35232882893701,35.332754244071054,172.65601984935802,154.81359014042656,138.9491491621079,137.6125609903741,189.85109328515745,199.32901122965404
1.234567901234568,44.71536677772226,34.920799153481745,170.8871148068068,154.389325157167,138.64622760696258,138.08034365921355,189.92882667111795,199.1934876160592
1.267934601267935,44.9879755228591,34.44682811938808,169.38515437649664,153.87750540330848,138.3361083674794,138.5677856409508,190.0763518110492,199.047730226551
1.3013013013013013,45.1962965849596,34.008481449520445,175.02965908622383,153.53632478802925,137.96290555625745,139.0792984311045,190.3609733147718,198.904331347458
1.334668001334668,45.541765571138896,33.531704686808375,179.57474071247626,153.06376946438422,137.53490476929812,139.56704744324364,190.71426230690645,198.78472676570027
1.3680347013680347,46.05768857427977,33.067741449470546,182.68529914677544,152.53962064108228,137.09641536138065,140.05143928895467,191.14135264065192,198.6837879437383
1.4014014014014016,46.67626212128276,32.4742453107099,184.6954206790806,151.58267534584763,136.59656638838,140.47953716838742,191.61220221852645,198.5658888435585
1.4347681014347682,47.39068586178583,31.798092187964127,185.35544356315145,150.81639115631356,136.0607769519426,140.84262765209775,192.1423215077064,198.43161233685208
1.4681348014681348,47.94923184936152,30.903097583194377,184.70908871107608,149.6368151683664,135.56848255752558,141.17670155942054,192.69843593799385,198.2347836527472
1.5015015015015016,48.3615164528503,29.625560715235203,182.4320159068492,147.15337043303114,135.0566211522722,141.45052449226094,193.32025100645137,198.0433984316995
1.5348682015348682,48.54622427755139,28.30610196183873,179.36214647186443,144.78854645617474,134.50053908995324,141.7090525865746,193.9539929997304,197.8604468527762
1.5682349015682349,48.92002104264765,26.88045868847265,175.2227279121184,142.53640873348365,133.99028340290192,141.92025478803083,194.53073968881867,197.6684957882653
1.6016016016016017,49.00460483711496,25.367648753382493,170.7555935906198,139.9581294950729,133.5055535604134,142.1041562427766,195.0660935024588,197.4559507887928
1.6349683016349683,48.77459740936016,23.754873034979045,165.4828662572071,137.1863181022593,133.10713135548934,142.28736274481258,195.5888834067821,197.23823463819028
1.6683350016683351,48.08554516680391,22.067854506115506,160.1231037448128,133.96522635343692,132.68055762212515,142.49006625343338,196.11327332893885,197.03147653827105
1.7017017017017018,46.75055590011768,20.339508625584536,155.04868107742155,130.5363198239114,132.28498455662137,142.68662113610029,196.60064135272728,196.836033178414
1.7350684017350684,45.19063338602693,18.70899043494873,150.15297987625283,126.87223781910684,131.89947086517432,142.8910013677558,197.0969513029151,196.6338216136901
1.7684351017684352,43.49403617247903,17.026626146809203,145.39050454982674,123.16222829664892,131.52280753535936,143.08540849230832,197.58506841939467,196.4211812862769
1.8018018018018016,41.75264308566936,15.44927123524576,140.78531095455048,119.2017354734013,131.13238394671936,143.26969508902272,198.0480611348479,196.1891544629193
1.8351685018351689,39.60900394608092,13.897370263251547,136.54002270834002,117.02062582045224,130.74669345595655,143.43415683680922,198.51967619110525,195.95714726269944
1.8685352018685355,37.39625526924629,12.481616849372154,132.46894058876816,114.06808488019726,130.36175477891524,143.62573558516917,198.9706735068117,195.71557184747283
1.901901901901902,34.96575720900881,11.124606718374242,128.52943736869435,110.5730103219598,130.0055313959234,143.8221023570844,199.3600986885013,195.4550715671794
1.9352686019352687,32.62912842804029,9.977932757437252,124.54987478543995,106.44750102542288,129.6974385633136,144.036214792645,199.6912117643634,195.1791955931952
1.968635301968636,30.503391221418376,9.057401856851794,120.8820039714832,101.59418431569917,129.50369408216204,144.24405699419154,199.8457213379744,194.89833952809792
2.002002002002002,28.43658336574251,8.328949066910695,117.28727862276618,96.17335743975904,129.30536057284328,144.44039841448378,199.956963010349,194.60266069210724
2.035368702035369,17.10155346854135,7.854614006936204,113.76953598956923,90.49074171134342,129.12068995607987,144.61102603669937,200.01940603678423,194.31044056115525
2.0687354020687354,9.166954474719782,7.639801396380443,111.03424618341988,84.72900583177866,128.85393291875764,144.71923844575736,200.2052350270921,194.0424002036366
2.1021021021021022,4.414682494356523,7.67336439404367,109.15127226008008,78.76930583554098,128.60502944367897,144.6641207957346,200.3595267062519,193.95503593280952
2.135468802135469,2.4877234891189985,7.956491143700575,107.88806432815622,72.90851169632954,128.32914082605257,144.61154636045455,200.6011125587787,193.9026252909279
2.1688355021688355,2.4877234891189985,8.432961107992021,107.23974537710475,67.05911342598678,128.01530052621965,144.50167953266035,200.91817705881465,193.89509950457528
2.2022022022022023,2.4877234891189985,9.030723019588754,107.29194475486126,61.29057675891624,127.6608614281246,144.41085149746215,201.30388366126985,193.79082330619573
2.235568902235569,2.4877234891189985,9.827506925760389,108.04959929778272,55.9291007042776,127.30512707323328,144.34862379541244,201.69104194038096,193.5462666799448
2.2689356022689355,2.4877234891189985,10.976311431746572,109.8446416577864,51.21304697813717,126.93288553471233,144.3178453170409,202.1481715498823,193.2357733383779
2.3023023023023024,2.4877234891189985,12.409817971580908,112.49880166103029,46.887831833013536,126.55986794428328,144.31245296819304,202.64157894980227,192.88823094305823
2.335669002335669,2.4877234891189985,14.032770207430987,116.47206741603893,43.04268860935088,126.15494420025948,144.31362691159245,203.1864325188101,192.5169319474536
2.369035702369036,2.4877234891189985,15.902507586924964,121.80633418860056,39.90504492897784,125.74555869034008,144.32550055328448,203.77182289904275,192.13106676572204
2.4024024024024024,2.4877234891189985,17.850268887019677,129.9598554359583,37.01356538302979,125.26908216942152,144.34073794275196,204.42968523872065,191.75028750633825
2.4357691024357693,2.4877234891189985,19.903097066886893,140.0922016659309,34.67553379370182,124.72575235503912,144.36023953064944,205.1668161400825,191.3838626364692
2.469135802469136,2.4877234891189985,21.91966602902626,143.24971910940417,32.59622349789658,124.13775834637394,144.37373569434126,205.96298731971385,191.02126726528604
2.5025025025025025,2.4877234891189985,23.93889262130294,145.78010234965524,30.991172053296047,123.56477818022306,144.36609798619665,206.7501024571135,190.6956386108208
2.5358692025358693,2.4877234891189985,25.828275415101896,147.84876787507724,29.7178717314756,122.94013866774314,144.31697821961015,207.58531542646512,190.382814210749
2.569235902569236,2.4877234891189985,27.605364761778205,149.3186322657118,29.01036925612788,122.28003317125112,144.24855395356838,208.4836293832017,190.0827480276148
2.6026026026026026,2.4877234891189985,29.170689567781768,150.3584050615596,28.204843163758262,121.59287757785717,144.19136321082783,209.41349984354616,189.79038939160432
2.6359693026359694,2.4877234891189985,30.65071916404332,150.98152937002857,27.74073679289006,120.89346900299502,144.12552256634274,210.35501522095825,189.5393790176689
2.669336002669336,2.4877234891189985,32.294086967705084,151.90199474810936,28.8424649512225,120.24786559629744,144.09505078953808,211.2407872425773,189.2454041624816
2.702702702702702,2.4877234891189985,33.78817210741858,152.62310702070005,30.185075383977104,119.62831153125616,144.0943195344979,212.0818039835674,188.90170637406536
2.736069402736069,2.4877234891189985,35.189605657842804,153.66270401890037,31.607302140809853,119.01022217304664,144.14547545388783,212.952370608188,188.54159294365488
2.7694361027694363,2.4877234891189985,36.45726348445967,154.4933483583467,33.36506607929503,118.3961633265979,144.2439236678713,213.84089440299792,188.1953697165304
2.802802802802803,2.4877234891189985,37.61573257074087,155.83453192918628,35.32747969936807,117.75110208980416,144.35135721062986,214.7152401981216,187.8672541024906
2.836169502836169,2.4877234891189985,38.760649415815486,157.2340608172275,37.88569962210814,117.06326592119667,144.48803909273605,215.62212646312145,187.58449345606627
2.8695362028695364,2.4877234891189985,39.76107061353794,158.33733192305118,40.726045989475125,116.34324732369664,144.6284048476838,216.5863596139401,187.3294881785556
2.902902902902903,3.28027283845691,40.57796386003047,159.33252378282722,44.05823418863253,115.5716265252194,144.7713208731596,217.59612438712372,187.08913565913736
2.9362696029362696,3.28027283845691,41.31338073988118,160.26550606386942,47.6049360787369,114.8505645488112,144.91451378014503,218.53839401334344,186.86100239574404
2.9696363029696364,3.28027283845691,42.00991529951538,160.8723501100334,51.6735724076843,114.23090736049473,145.0997571832482,219.37323264500685,186.6295566869905
3.003003003003004,3.28027283845691,42.63525195092112,161.23054462869536,53.40957014673084,113.71186275004472,145.27097503027062,220.03936751322183,186.4207561134058
3.0363697030363697,3.28027283845691,43.10490895079384,161.35734406310743,55.36663578871116,113.2094290136292,145.41510891025416,220.6769546634443,186.2016468003896
3.0697364030697365,3.28027283845691,43.5521426973141,161.56359089018292,56.741894810952,112.7749824020262,145.52128683977102,221.20095085662484,186.04501639416253
3.103103103103104,3.28027283845691,43.96987462020498,163.19217130826556,57.55149053807999,112.40424713343609,145.6765492886846,221.6074834937945,185.91421158866328
3.1364698031364697,6.622198617537952,44.23311817885716,163.89603603658514,57.88413278815131,112.06951849883872,145.79881528146834,221.95548439322567,185.8697758778832
3.169836503169837,12.468813421180636,44.65796211082638,164.4799000602377,56.391107078391165,111.7838758991215,145.8132718516472,222.1906905604835,185.9270727749368
3.2032032032032034,20.47859877667037,44.819175004280126,165.2280379768948,54.89511631717676,111.61429754333984,145.74207458325267,222.2561238773577,186.05685963286703
3.2365699032365702,30.53369449599637,44.659884387636914,166.9022986520222,53.381559790018194,111.4588549850938,145.57633607148352,222.1621979791984,186.29185383878377
3.2699366032699366,42.33085221576977,44.15414651724007,167.93175971050175,52.33505877661913,111.40713666023008,145.37393346067205,221.945635267608,186.5775519449728
3.3033033033033035,55.64907439738091,43.13726706082367,163.30651795925587,50.98587002456106,111.34289365063265,145.14694084341522,221.6279935557688,186.87458636999548
3.3366700033366703,70.28028939785685,42.10886695748844,160.02497285704823,49.63958674748552,111.4582435537416,144.92101007795736,221.12704496533752,187.1866697229804
3.3700367033700367,86.09630771084987,40.05852277749232,157.76626993193796,46.576144707371625,111.59794228276871,144.82470163323674,220.69157230227648,187.603442109552
3.4034034034034035,102.90166326484264,38.01138891037034,155.94135553182872,44.45494195930264,111.96284249238532,144.71158953321614,220.0651043819116,188.0885940150941
3.4367701034367704,120.52637077082385,36.10190731219125,154.74947907764394,43.55292239924744,112.35512563047769,144.56008444334057,219.34697349740733,188.51243074710908
3.4701368034701368,138.46583920840152,34.2639141321558,153.91507611540527,43.76861776850018,112.94422604582115,144.32074913942324,218.4041619408644,188.9288649375015
3.503503503503504,156.64724625968947,32.69736534475584,153.68951110090407,45.16609489704163,113.67675448851804,144.0486826392104,217.3760560626908,189.39388190118103
3.5368702035368704,174.70083929391348,31.15679378730504,153.59046346026233,47.16222336643784,114.61344895642176,143.75725271702552,216.13698411853323,189.876005802438
3.5702369035702373,192.5298521715083,29.34525867459362,154.29889472897747,49.12621273519972,115.79052972623089,143.35599483191712,214.6773339007799,190.4587833713597
3.603603603603604,209.8724201319764,27.59743247225785,154.9937882654011,51.51712369612687,117.18444171759457,142.9369643056001,213.05118901396887,191.0401046795581
3.6369703036369705,226.59065235598163,26.2338055407356,155.89622761640953,55.06042956626757,118.82614952407393,142.5741806322849,211.1861686930308,191.62996418645628
3.670337003670337,241.9336099314475,24.97496322902465,156.651703312776,59.20961094614542,120.56176492565868,142.2649951277034,209.2739581759544,192.14618732436932
3.703703703703704,256.0826422979865,24.112548770092182,157.15980872223818,63.52446563356644,122.5793569871795,141.92279778124535,207.310534093606,192.598844390676
3.737070403737071,268.7885277848012,23.33882115606774,157.43297591827542,68.37614219451329,124.62263108393404,141.59263289466534,205.33674399010624,193.012230380537
3.770437103770437,280.0473372369095,22.783667207753027,156.14852472174263,74.5723455735024,126.71859252000364,141.3499822162001,203.3496534159716,193.40718653877968
3.803803803803804,290.0287334679541,22.219243629106963,155.4670750589053,80.93305839109489,129.02895191282337,141.19308416499243,201.2061927058112,193.6892607972596
3.8371705038371706,298.31454959239704,21.70657516962844,155.7819220899954,84.67555121208073,131.0909860531876,141.22521543391625,199.2055235396962,193.80932414018864
3.8705372038705375,304.6539258146157,21.231626939285967,156.11834542448824,89.29164241575933,133.02650615928073,141.34179021270523,197.3396151772799,193.8558423387966
3.903903903903904,308.7967821282081,19.8212512865758,159.02056594423476,100.40295367679228,134.9584467223512,141.75329706688194,195.4010534845624,193.9788455202396
3.937270603937271,311.0574848536106,18.783575252948204,162.53795617249247,110.2184236766808,136.76664023675195,142.06501021640668,193.6245391515939,194.06316471164507
