Time,Left Shoulder Angle,Right Shoulder Angle,Left Elbow Angle,Right Elbow Angle,Left Hip Angle,Right Hip Angle,Left Knee Angle,Right Knee Angle
0.0,23.27095992943409,28.27287279808049,198.2829349209435,158.2800065745451,174.92584160109422,188.0332426581074,176.02958016094323,184.7687002005004
0.0333667000333667,22.82669624111019,29.05658579036476,197.5900281736852,152.78540976483816,175.0511999658843,187.57627758101475,175.96270719494274,184.86151376429265
0.0667334000667334,22.439854681845127,29.69120335077598,197.0237266746086,148.13674203997795,175.1715462497388,187.17274805850056,175.89434443586097,184.9369587681895
0.1001001001001001,22.106950445233213,30.186411260631363,196.57621762845665,144.28036867797871,175.28723347894535,186.82045714827723,175.82467520436924,184.9956139292296
0.1334668001334668,21.82449872486877,30.55189530124809,196.23968823997183,141.16265495685482,175.39861467979148,186.5172079080572,175.7538828211388,185.0380579644514
0.1668335001668335,21.589014714346124,30.79734125394336,196.00632571389704,138.7299661546205,175.5060428785648,186.2608033955528,175.68215060684096,185.0648695908937
0.2002002002002002,21.397013607259588,30.93243490003437,195.86831725497484,136.92866754929014,175.60987110155287,186.0490466684764,175.609661882147,185.0766275255951
0.2335669002335669,21.24501059720348,30.96686202083829,195.817850067948,135.705124418878,175.7104523750433,185.8797407845405,175.53659996772825,185.07391048559413
0.2669336002669336,21.129520877772123,30.91030839767233,195.8471113575591,135.0057020413984,175.8081397253236,185.7506888014576,175.4631481842559,185.05729718792952
0.3003003003003003,21.04705964255983,30.772459811853683,195.94828832855097,134.77676569486562,175.9032861786814,185.65969377693983,175.38948985240134,185.0273663496398
0.333667000333667,20.994142085160927,30.56300204469953,196.11356818566628,134.964680657294,175.9962447614043,185.6045587686998,175.31580829283578,184.9846966877637
0.3670337003670337,20.96728339916973,30.29162087752708,196.3351381336477,135.51581220669783,176.08736849977984,185.58308683444983,175.24228682623055,184.92986691933967
0.4004004004004004,20.962998778180555,29.968002091653503,196.605185377238,136.37652562109142,176.1770104200956,185.59308103190244,175.16910877325694,184.8634557614065
0.4337671004337671,20.97780341578772,29.601831468396007,196.91589712117968,137.49318617848903,176.26552354863918,185.63234441876992,175.0964574545862,184.7860419310027
0.4671338004671338,21.00821250558556,29.202794789071778,197.25946057021568,138.81215915690507,176.35326091169813,185.69868005276467,175.02451619088964,184.69820414516693
0.5005005005005005,21.050741241168367,28.78057783499801,197.62806292908857,140.27980983435378,176.44057553556004,185.78989099159915,174.95346830283856,184.60052112093788
0.5338672005338673,21.10190481613048,28.34486638749189,198.0138914025411,141.84250348884945,176.5278204465125,185.9037802929857,174.88349711110422,184.49357157535408
0.5672339005672339,21.1582184240664,27.90534622787084,198.40913319531765,143.44660539840768,176.6153486708445,186.0381510146384,174.81478593635936,184.3779342254556
0.6006006006006006,21.141206018030264,27.462497287014468,198.7436902992881,144.51416728595612,176.70132300239857,186.2704554264137,174.76864703859036,184.23554352218025
0.6339673006339673,21.130335743859828,27.10270955225062,199.11840451586176,145.448863094567,176.76439308841694,186.4106828905944,174.7214803952142,184.12601327389325
0.6673340006673341,21.149064739772594,26.82099814323309,199.5338253880205,146.43564154370162,176.8538983482856,186.54347540975817,174.6593444412993,184.00392586224967
0.7007007007007008,21.19873723570143,27.58278029959531,200.3514731704446,146.03718913686626,177.08637774881925,186.58474153873289,174.62555739772355,183.9582589388787
0.7340674007340674,21.09201483511461,28.02077377907701,200.2504994790704,145.97639495341846,177.28412841553828,186.68764586819137,174.58449536929487,183.87810759581149
0.7674341007674341,18.70473210882232,25.748782953863564,205.0279021248563,146.0923161205085,176.9302792201381,186.9040784317392,172.6667844254085,184.36698694368167
0.8008008008008008,16.882173968341696,24.224855236801083,208.61439541836248,146.42256324957154,176.8565098401654,186.88973459206693,173.0900505526599,182.97249067363816
0.8341675008341676,15.963716671850133,23.54538286090142,210.541625130954,145.95619113975164,176.8314781032158,187.02185620751743,172.8091977330014,182.67341286514707
0.8675342008675342,15.245751446696902,22.99850734562653,212.00625003839144,145.375156363259,176.83466041830974,187.1838547821862,172.59743932590297,182.38051899952225
0.9009009009009008,14.779495583589444,22.61468065776669,212.89859318888668,144.68875426121204,176.8734291370551,187.3799039703657,172.47010833314252,182.0986426659028
0.9342676009342676,14.616166373235195,22.424354764112337,213.10897763065333,143.90628017473034,176.95515661106117,187.6141774263497,172.44253775649943,181.83261745342963
0.9676343009676344,14.806981106341652,22.457981631453872,212.52772641190504,143.0370294449334,177.08721519193725,187.89084880443207,172.5300605977531,181.58727695124333
1.001001001001001,15.403157073616256,22.74601322658171,211.04516258085548,142.09029741294083,177.2769772312926,188.21409175890696,172.74800985868302,181.3674547484848
1.0343677010343677,16.455911565766485,23.318901516286296,208.55160918571823,141.0753794198721,177.53181508073652,188.5880799440679,173.11171854106843,181.1779844342946
1.0677344010677343,18.016461873499807,24.207098467358016,204.93738927470707,140.0015708068468,177.8591010918783,189.0169870142089,173.6365196466888,181.0236995978136
1.1011011011011012,20.13602528752367,25.441056046587327,200.09282589603555,138.8781669149845,178.26620761632722,189.5049866236238,174.33774617732354,180.90943382818244
1.1344678011344678,22.865819098545565,27.051226220764622,193.9082420979173,137.71446308540467,178.7605070056926,190.0562524266065,175.23073113475195,180.840020714542
1.1678345011678346,26.25706059727292,29.068060956680338,186.27396092856603,136.51975465922692,179.34937161158368,190.67495807745084,176.33080752075352,180.8202938460328
1.2012012012012012,30.36096707441324,31.52201222112488,177.08030543619537,135.3033369775708,180.0401737856098,191.3652772304507,177.6533083371076,180.8550868117958
1.234567901234568,35.228755820673975,34.44353198088865,166.21759866901905,134.07450538155584,180.8402858793802,192.1313835399,179.21356658559355,180.9492332009716
1.267934601267935,40.911644126762575,37.86307220276211,153.5761636752505,132.84255521230156,181.75708024450412,192.9774506600924,181.02691526799083,181.107566602701
1.3013013013013013,47.46084928338652,41.81108485353566,139.04632350310354,131.6167818109275,182.79792923259103,193.907652245322,183.1086873860788,181.3349206061248
1.3680347013680347,54.92758858125328,46.318021899999735,122.5184012007918,130.4064805185533,183.9702051952501,194.92616194988256,185.4742159416368,181.6361288003836
1.4014014014014016,63.36307931107031,51.41433530894472,103.88271981652883,129.2209466762984,185.2812804840906,196.037153428068,188.13883393644423,182.01602477461816
