Time,Left Shoulder Angle,Right Shoulder Angle,Left Elbow Angle,Right Elbow Angle,Left Hip Angle,Right Hip Angle,Left Knee Angle,Right Knee Angle
0.0,5.397995665689569,0.6750683052864385,195.61463985594932,170.21295698870702,164.1642784990137,207.20255312393675,185.606070494981,176.20553067086536
0.0333667000333667,5.874780586318762,0.6534209719536922,193.9341489530768,170.13961472355402,164.15670064438123,207.6992828076798,185.3634233447584,176.39567941531297
0.0667334000667334,6.199770194991279,0.6534209719536922,192.51919460254888,170.08978540006086,164.22302822158034,208.17997129997488,185.0418156396738,176.52966381124506
0.1001001001001001,6.386664966660995,0.6534209719536922,191.35632847395928,170.0622949180391,164.35669204667366,208.64365638062588,184.6489798186016,176.611388021723
0.1334668001334668,6.449165376281784,0.6534209719536922,190.43210223690164,170.05596917730034,164.5511229357239,209.0893758294368,184.19264832041588,176.6447562098081
0.1668335001668335,6.40097189880752,0.6534209719536922,189.7330675609696,170.06963407765613,164.79975170479366,209.51616742621133,183.6805535839912,176.63367253856154
0.2002002002002002,6.255785009192077,0.6534209719536922,189.24577611575663,170.10211551891803,165.0960091699457,209.9230689507536,183.1204280482016,176.58204117104478
0.2335669002335669,6.027305182389327,0.6534209719536922,188.95677957085653,170.15223940089763,165.43332614724258,210.3091181828673,182.5200041519216,176.49376627031907
0.2669336002669336,5.729232893353146,0.6534209719536922,188.8526295958629,170.21883162340652,165.805133452747,210.6733529023566,181.8870143340253,176.3727519994457
0.3003003003003003,5.375268617037408,0.6534209719536922,188.91987786036933,170.30071808625627,166.20486190252166,211.01481088902528,181.2291910333872,176.22290252148602
0.333667000333667,4.979112828395985,0.6534209719536922,189.1450760339696,170.3967246892584,166.6259423126292,211.3325299226772,180.55426668888148,176.04812199950132
0.3670337003670337,4.554466002382754,0.6534209719536922,189.514775786257,170.50567733222456,167.06180549913225,211.62554778311628,179.86997373938243,175.85231459655293
0.4004004004004004,4.115028613951585,0.6534209719536922,190.01552878682543,170.6264019149663,167.5058822780935,211.89290225014645,179.18404462376438,175.63938447570212
0.4337671004337671,3.674501138056356,0.6534209719536922,190.63388670526845,170.75772433729514,167.95160346557563,212.13363110357164,178.5042117809016,175.4132358000102
0.4671338004671338,3.246584049650938,0.6534209719536922,191.3564012111797,170.89847049902272,168.39239987764125,212.34677212319576,177.83820764966845,175.17777273253853
0.5005005005005005,2.8449778236892067,0.6534209719536922,192.1696239741528,171.04746629996058,168.8217023303531,212.53136308882267,177.19376466893917,174.93689943634837
0.5338672005338673,2.483382935125034,0.6534209719536922,193.0601066637813,171.2035376399203,169.23294163977377,212.6864417802564,176.57861527758806,174.69452007450104
0.5672339005672339,2.1754998589122825,0.6534209719536922,194.0144009496605,171.3655104187148,169.6195486219674,212.8110459773023,176.00049191449088,174.45453881005918
0.6006006006006006,2.1754998589122825,0.6534209719536922,194.4449633761364,171.388509012885,169.93024272212207,212.8983742399648,175.5691695580062,174.27660468219077
0.6339673006339673,2.1754998589122825,0.6534209719536922,195.9246673012712,173.443176393726,170.15974336342413,212.97259607988,175.24342732579683,174.0573116145954
0.6673340006673341,2.1754998589122825,0.6707247688854642,197.7968447495305,175.1992191884014,170.29255131246117,212.98568449424812,174.98363544721002,173.8458681198719
0.7007007007007008,2.1754998589122825,0.7274252185132446,197.6205939856337,176.33383398256362,170.36780487783517,212.9446154321712,174.7901938838971,173.6483952464823
0.7340674007340674,2.1754998589122825,0.7274252185132446,197.80469076584808,176.83395993225966,170.38793653726648,212.8259178107692,174.66786137368118,173.4924800247343
0.7674341007674341,2.1754998589122825,0.7274252185132446,198.0859938522416,176.139199282322,170.3690547763686,212.6708972778937,174.61839671292478,173.38424786821528
0.8008008008008008,2.1754998589122825,0.8239678432685239,198.49260406275425,174.97770405821456,170.3211548407467,212.46694679680868,174.62106219100224,173.3568020903424
0.8341675008341676,2.1754998589122825,0.8239678432685239,199.8175511135577,170.41744462390778,170.20815395053242,212.22785863286697,174.73090009658236,173.39231909749893
0.8675342008675342,2.1754998589122825,0.8239678432685239,201.9424009701596,166.70792787387495,170.07134690256322,212.0267021701092,174.87525570137913,173.43186456837137
0.9009009009009008,2.1754998589122825,0.9607981655827924,204.8117095932545,165.49481133203594,169.9073930957246,211.83571341446927,175.01609463173224,173.48802991090724
0.9342676009342676,2.1754998589122825,0.9607981655827924,207.79556406561284,165.7409757481086,169.75100151121376,211.64307531620747,175.13161660358142,173.57618257547583
0.9676343009676344,2.1754998589122825,0.9607981655827924,207.54978051500527,167.44213557272008,169.6008265462959,211.43859344391527,175.22818985781527,173.680798724379
1.001001001001001,2.1754998589122825,0.9607981655827924,207.37033747971049,168.77928997267904,169.4141427534907,211.1415777880488,175.27703492552348,173.83543279673128
1.0343677010343677,2.1754998589122825,0.9607981655827924,208.90851542829583,164.0283719313996,169.1649871915191,210.7757860209271,175.32708926087793,174.02718945558155
1.0677344010677343,2.1754998589122825,1.138361707887541,210.175584140502,160.12181205586865,168.86630729368306,210.33907053799388,175.38863090625964,174.22241675668602
1.1011011011011012,2.1754998589122825,1.138361707887541,211.23067583330933,156.93521339898038,168.55262286781988,209.8678231463214,175.50791589039952,174.41751465070487
1.1344678011344678,2.1754998589122825,1.138361707887541,211.9115173671034,154.60563888337128,168.22178402383236,209.4046760973,175.62596274025967,174.59685893252183
1.1678345011678346,2.1754998589122825,1.138361707887541,210.3881368073177,153.13742111223354,167.84281749402075,208.9645456608503,175.7799788182206,174.75782107963937
1.2012012012012012,2.1754998589122825,1.138361707887541,208.83379356707545,152.55850363942017,167.51795552416874,208.5490302999588,175.84628497594989,174.95316472024524
1.234567901234568,2.1754998589122825,1.138361707887541,209.24938021013412,156.18035736631904,167.18421989077893,208.1744191994689,175.8757329316378,175.1647669528873
1.267934601267935,2.1754998589122825,1.3571039926142592,209.6516751743849,159.35000917631672,166.92690320472002,207.8307231635933,175.8179296400459,175.36768322772767
1.3013013013013013,2.1754998589122825,1.3571039926142592,209.62164512099483,161.7191258150655,166.78824522183368,207.5133761046745,175.67404398994,175.55193549528116
1.334668001334668,2.1754998589122825,1.3571039926142592,209.208183352642,163.61897743910134,166.70683802630865,207.15348540767167,175.44957985508034,175.6813269068892
1.3680347013680347,2.1754998589122825,1.3571039926142592,209.6364185165948,165.2447758257991,166.62173595682313,206.82462736083767,175.24191621668427,175.7797447912114
1.4014014014014016,2.1754998589122825,1.3571039926142592,209.48291746331017,166.71833061699976,166.58891975055292,206.51754945270503,174.98149470231735,175.83755467050457
1.4347681014347682,2.1754998589122825,1.3571039926142592,208.6164991039965,167.4931532987522,166.63953393909787,206.21509229204696,174.64636351211044,175.86484364928037
1.4681348014681348,2.1754998589122825,1.3571039926142592,205.75013335968492,170.51007301158864,166.69369640489006,205.84605599923776,174.29585692201053,175.94323865139583
1.5015015015015016,2.1754998589122825,1.6174705421944382,203.1170880320463,171.03628708572523,166.71142123593265,205.44016043032903,174.0065148799327,176.04913022536888
1.5348682015348682,2.1754998589122825,1.6174705421944382,201.8791623590741,171.63704854900584,166.73955402114308,205.00678473449813,173.69033169762918,176.15451255381947
1.5682349015682349,2.1754998589122825,1.6174705421944382,201.4682697891861,171.9496355324057,166.8050353188704,204.58551539936084,173.25938487492772,176.24861213119655
1.6016016016016017,2.1754998589122825,1.6174705421944382,200.4626901138525,172.06437810765203,166.9537590463652,204.1543634609102,172.73969988742894,176.3471880327482
1.6349683016349683,2.1754998589122825,1.6174705421944382,198.6238689061352,172.23567471427552,167.1954286196364,203.74228823362915,172.12036862001125,176.42427353666295
1.6683350016683351,2.1754998589122825,1.6174705421944382,196.4897671055275,172.58480845534606,167.43255718877546,203.32650412427824,171.4985444758386,176.50844212901777
1.7017017017017018,2.1754998589122825,1.6174705421944382,193.79374109563688,173.41615587783073,167.70062882777395,202.9237465325129,170.8793833534648,176.62470080444857
1.7350684017350684,2.1754998589122825,1.6174705421944382,191.0110541109173,173.96130785240462,168.01899680515498,202.5285347749352,170.2454776815781,176.72208393187634
1.7684351017684352,2.1754998589122825,1.6174705421944382,188.66684206318388,173.67966484141107,168.4357320658708,202.1605561651136,169.59324374030234,176.7876053570251
1.8018018018018016,2.1754998589122825,1.919906879059568,184.92277305828915,170.83475715599232,168.88183893871968,201.78507545934647,168.90711533432636,176.87164390717055
1.8351685018351689,2.1754998589122825,1.919906879059568,179.78302990857503,167.24303193211566,169.31827735179186,201.4101151123353,168.1798186252354,176.97860841832292
1.8685352018685355,2.1754998589122825,1.919906879059568,176.62522513939163,162.2897642823286,169.72373617796,201.02347601970692,167.48424585552306,177.1161636329192
1.901901901901902,2.1754998589122825,1.919906879059568,174.059725885507,156.81080858156835,170.05077419392234,200.6778113741221,166.8143773163885,177.26772084492708
1.9352686019352687,2.1754998589122825,1.919906879059568,172.1392679081805,151.45677686724986,170.34636946458167,200.3190415947824,166.17601548163486,177.42833587470315
1.968635301968636,2.1754998589122825,1.919906879059568,171.2946153028341,146.3274615806914,170.6590435955553,200.00151351004777,165.54257882548688,177.57916734894008
2.002002002002002,2.1754998589122825,1.919906879059568,170.07964992680508,144.1907127137538,170.99092770997612,199.69708310641408,164.92639923956594,177.71220159248602
2.035368702035369,2.1754998589122825,1.919906879059568,167.9864932271361,142.06218165799055,171.37236894787355,199.39898709150532,164.36676762918907,177.82314819433054
2.0687354020687354,2.1754998589122825,1.919906879059568,164.58692502014964,138.09621288267397,171.7820931112201,199.1195993258781,163.8927585423741,177.9100431623702
2.1021021021021022,2.1754998589122825,2.264858525641139,160.9221986886946,132.76631074831909,172.1573566613204,198.8800350909536,163.38768701065334,177.95981339847464
2.135468802135469,2.1754998589122825,2.264858525641139,160.21081359247748,124.5590493458763,172.4976341809862,198.67180882497024,162.97702779054652,177.98102169480896
2.1688355021688355,2.1754998589122825,2.264858525641139,160.43006880869535,115.3196858144108,172.787037641323,198.5176145694004,162.67033279617314,177.97567689253373
2.2022022022022023,2.1754998589122825,2.264858525641139,159.08195884962203,111.90291952391055,173.05154578232447,198.38933615613035,162.46241194494203,177.94316826353972
2.235568902235569,2.2911871599213054,2.264858525641139,157.29252720938223,109.478690857836,173.31514182876705,198.2890708649589,162.32714046963594,177.87043613599468
2.2689356022689355,2.2911871599213054,2.264858525641139,154.7227151713172,107.8513069258638,173.56517928689112,198.1915407298492,162.24826165461735,177.76597786363791
2.3023023023023024,2.2911871599213054,2.264858525641139,151.81519107154307,107.1882560935303,173.78532122910005,198.0852291199921,162.23089251509492,177.6477274878977
2.335669002335669,2.2911871599213054,2.264858525641139,150.91539518877877,107.36120211196894,174.00689088015784,197.9590639196896,162.30728259630632,177.53008048197947
2.369035702369036,2.2911871599213054,2.264858525641139,150.48218712233677,108.1971689414792,174.19777074369122,197.7909896211709,162.51495583290043,177.421535020439
2.4024024024024024,2.2911871599213054,2.264858525641139,148.21237064466845,105.2541351740409,174.40430519264524,197.5899382736932,162.83434677055357,177.3016321761596
2.4357691024357693,2.2911871599213054,2.264858525641139,145.33415654575802,101.07029076091426,174.6290674971327,197.3621697101088,163.22682667603442,177.1772641735902
2.469135802469136,2.2911871599213054,2.6527710043706416,142.82540506689753,97.45459827975756,174.78773010179802,197.12823297493145,163.7521959514058,177.08290821524452
2.5025025025025025,2.2911871599213054,2.6527710043706416,140.54412816441155,94.44182971426623,174.8621667201031,196.85383425102188,164.4892003995289,177.07764695709494
2.5358692025358693,2.7350891648470443,2.6527710043706416,136.9920727211847,91.9579933174599,174.94281143693556,196.54349585529323,165.27018150978478,177.10631540392598
2.569235902569236,2.7350891648470443,2.6527710043706416,133.64353874066452,92.73019991697775,175.23311021551706,196.1193700773886,165.97629561122724,177.2154862517949
2.6026026026026026,2.7350891648470443,2.6527710043706416,130.7297034914504,93.4172461554166,175.464857130586,195.76956332894372,166.72761409718095,177.29322076498178
2.6359693026359694,2.7350891648470443,2.6527710043706416,130.5911027519234,88.52745933191729,175.6874003104586,195.54131060835545,167.4223048853091,177.2941661297402
2.669336002669336,2.7350891648470443,2.6527710043706416,130.57043421777163,85.67056989842659,175.80129223099112,195.4322127809831,168.08635339361717,177.2428356456793
2.702702702702702,2.7350891648470443,2.6527710043706416,130.43351836131237,84.16733084907553,175.74669908112014,195.3754556059112,168.90302888133846,177.1703740376896
2.736069402736069,2.7350891648470443,2.6527710043706416,128.69161767412467,82.56238495178765,175.6048079196672,195.3689373610729,169.77705310082212,177.08639107492456
2.7694361027694363,2.7350891648470443,2.6527710043706416,122.2439143929036,80.49398436981345,175.5917955032663,195.4287595838153,170.54845602243705,176.91656356807687
2.802802802802803,2.7350891648470443,2.6527710043706416,117.76605920884845,79.01344040822099,175.49838842480756,195.5650108632472,171.40158832142092,176.7059883379734
2.836169502836169,2.7350891648470443,2.6527710043706416,114.19774226317236,79.2102339585248,175.5259806306683,195.89601497412664,171.95425949284058,176.32088992900572
2.8695362028695364,2.7350891648470443,3.0840898376795662,112.27678248203512,78.06944032352922,175.46113409959955,196.31368020254152,172.50631884007015,175.88015944795126
2.902902902902903,2.7350891648470443,3.0840898376795662,111.38773008841528,76.76437724162365,175.29651765889864,196.8655250755039,173.1480263656326,175.28890640515803
2.9362696029362696,2.7350891648470443,3.0840898376795662,111.27853495125036,76.22171466821709,174.88599575506848,197.41924826403823,173.9250404381635,174.78919716358195
2.9696363029696364,2.7350891648470443,3.0840898376795662,112.73111414996546,75.57183612576821,174.42484027497514,198.05416401776145,174.59531644897788,174.2727465834355
3.003003003003004,2.7350891648470443,3.0840898376795662,115.56108297472892,74.67557244674073,173.87634454717332,198.7181261902409,175.34343651337707,173.84932756056634
3.0363697030363697,2.7350891648470443,3.0840898376795662,119.5503101137184,74.20294278040248,173.19216275510755,199.39127269872512,176.12832742004028,173.34925908908343
3.0697364030697365,3.3454830725754228,3.0840898376795662,123.57488587872037,73.7240138043971,172.53168824030877,200.022703114026,176.92482028652086,173.04510316974697
3.103103103103104,3.3454830725754228,3.0840898376795662,128.58412909692422,71.50306390422278,171.78671389801536,200.6676575244317,177.72953515466912,172.74312697677266
3.1364698031364697,3.3454830725754228,3.0840898376795662,133.88710360410283,69.09030090521559,170.9794702337596,201.2758720240495,178.60216773582025,172.6476557457791
3.169836503169837,3.3454830725754228,3.0840898376795662,140.61301927016427,67.5994449151001,170.10634225606947,201.73390985153992,179.47522094830742,172.87573165434785
3.2032032032032034,3.3454830725754228,3.0840898376795662,147.81622355997263,67.50587962428112,169.1690266800654,202.1349877176536,180.3287845547761,173.34000149018684
3.2365699032365702,3.3454830725754228,3.0840898376795662,155.45058788316828,68.76221998776056,168.19984000450805,202.61186346703192,181.1087541505092,173.87648136764818
3.2699366032699366,3.3454830725754228,3.0840898376795662,162.33134634940933,70.48188323645313,167.27769966234547,203.06548692413065,181.89860342513907,174.5862898027103
3.3033033033033035,3.3454830725754228,3.0840898376795662,168.96809451836094,73.50926357833882,166.18063631808056,203.3850395296463,182.7092448535791,175.38305089041526
3.3366700033366703,3.3454830725754228,3.559260547999404,174.8156963202719,76.6512030786792,165.22959545605408,203.7090321446364,183.4291293321878,176.2667534386475
3.3700367033700367,3.3454830725754228,3.559260547999404,179.8346041264672,79.73207515327937,164.41421276740158,204.14824856856845,184.03182538075373,177.27728583683998
3.4034034034034035,3.3454830725754228,3.559260547999404,184.23766069715543,82.60553518332156,163.77966349288073,204.5226028530963,184.57526594628803,178.50611687607105
3.4367701034367704,3.3454830725754228,3.559260547999404,189.11449972486167,85.92747209350757,163.4179200938584,204.88915177478628,184.92712123994573,179.89393749400597
3.4701368034701368,3.3454830725754228,3.559260547999404,193.5153069887588,90.22293523022192,163.26030003680805,205.14009498252048,185.2334610656023,181.47777651511444
3.503503503503504,3.3454830725754228,3.559260547999404,196.556734646136,92.94461235113968,163.1947767948775,205.52225617353915,185.45090936051665,183.20135874848245
3.5368702035368704,3.3454830725754228,3.559260547999404,199.06709161928228,95.83934791554806,163.316124207306,205.70776152929432,185.61972483143725,185.1251985945692
3.5702369035702373,3.3454830725754228,3.559260547999404,200.8095784134499,99.00850396355622,163.52885526008558,205.777647088786,185.7703373953952,187.26700836462743
3.603603603603604,3.8568133995537583,3.559260547999404,202.72258386929835,103.85449326135318,163.92155553171156,205.635471199767,185.949727780192,189.5784811976665
3.6369703036369705,3.8568133995537583,3.559260547999404,204.25918983967983,109.49435803800422,164.58387283549808,205.2788384724932,186.0882358216309,191.9595569712704
3.670337003670337,3.8568133995537583,3.559260547999404,205.32827441821948,115.4260956342882,165.4544726559078,204.738411840982,186.09011377785075,194.34589571076185
3.703703703703704,3.8568133995537583,3.559260547999404,206.2069390798912,121.8488683471913,166.35292595959402,203.9016753110256,185.99510131930165,196.7791402354774
3.737070403737071,3.8568133995537583,3.559260547999404,206.16507677395225,124.65762447987188,167.13670284832804,203.02501453883428,185.9494805161564,199.0666238243438
3.770437103770437,3.8568133995537583,3.559260547999404,206.65191393724592,126.79682851103917,168.12324108484054,202.0991998180125,185.766881427749,201.169966870984
3.803803803803804,3.8568133995537583,3.559260547999404,205.4860479114162,131.41899513186175,169.06623880581787,201.1136279669504,185.668618141088,203.14647465802307
3.8371705038371706,3.8568133995537583,4.078728657761643,201.0037473777093,136.58640138211817,170.15533511985586,200.1285692021786,185.50993488629047,204.87432812578905
3.8705372038705375,3.8568133995537583,4.078728657761643,194.53344348269,140.34551691175162,171.3595763421593,199.13596155959647,185.1945681918579,206.4257621195852
3.903903903903904,3.8568133995537583,4.078728657761643,188.44888971336783,145.2445252625123,172.6143298895798,198.2265142797267,184.7275244599042,207.7826689190267
