Time,Left Shoulder Angle,Right Shoulder Angle,Left Elbow Angle,Right Elbow Angle,Left Hip Angle,Right Hip Angle,Left Knee Angle,Right Knee Angle
0.0,6.837803951192577,4.974124208679184,176.5650280839395,172.89868751986705,166.68315747391728,208.53286510446333,179.85342321075976,181.40371363474964
0.0333667000333667,6.603586680016731,5.179120096686949,176.6773051897942,172.8086125358304,166.45696244043484,208.16280595742532,179.3526896896262,181.74768160154372
0.0667334000667334,6.433697169978295,5.328388039585184,176.71959738876998,172.74062833800747,166.25807817023448,207.854082010873,178.90735570993658,182.02669923534515
0.1001001001001001,6.323900761172703,5.426564971213482,176.698619906313,172.69406328317126,166.08573758585055,207.60292674943707,178.51499930344974,182.24435031787755
0.1334668001334668,6.2699627936953855,5.478287825411433,176.6210879678694,172.66824572809475,165.9391736098173,207.4055736577485,178.1731985019246,182.4042186308648
0.1668335001668335,6.267648607641775,5.48819353601863,176.4937167988854,172.662504029551,165.81761916466897,207.25825622043817,177.87953133711991,182.5098879560305
0.2002002002002002,6.267648607641775,5.460919036874665,176.3232216248071,172.6761665443129,165.7203071729399,207.1572079221369,177.63157584079457,182.56494207509863
0.2335669002335669,6.267648607641775,5.401101261819129,176.1163176710807,172.70856162915365,165.64647055716432,207.0986622474756,177.42691004470743,182.57296476979292
0.2669336002669336,6.267648607641775,5.313377144691614,175.87972016315234,172.75901764084605,165.59534223987657,207.07885268108515,177.2631119806173,182.53753982183727
0.3003003003003003,6.267648607641775,5.202383619331713,175.6201443264682,172.8268629361632,165.56615514361087,207.09401270759645,177.1377596802831,182.4622510129553
0.333667000333667,6.267648607641775,5.072757619579017,175.34430538647442,172.91142587187807,165.55814219090152,207.14037581164035,177.04843117546363,182.35068212487093
0.3670337003670337,6.267648607641775,4.929136079273118,175.05891856861717,173.0120348047637,165.5705363042828,207.21417547784768,176.9927044979177,182.20641693930787
0.4004004004004004,6.267648607641775,4.776155932253606,174.77069909834262,173.12801809159305,165.60257040628898,207.31164519084936,176.96815767940427,182.03303923798995
0.4337671004337671,6.267648607641775,4.618454112360076,174.4863622010969,173.25870408913912,165.65347741945436,207.4290184352763,176.97236875168207,181.8341328026409
0.4671338004671338,6.267648607641775,4.460667553432119,174.21262310232623,173.40342115417496,165.7224902663132,207.5625286957593,177.00291574651,181.6132814149846
0.5005005005005005,6.267648607641775,4.307433189309325,173.95619702747672,173.56149764347353,165.8088418693998,207.70840945692936,177.05737669564695,181.37406885674483
0.5338672005338673,6.267648607641775,4.163387953831288,173.72379920199455,173.73226191380783,165.91176515124843,207.86289420341723,177.1333296308517,181.1200789096453
0.5672339005672339,6.267648607641775,4.033168780837627,173.52214485132717,173.9150423219522,166.03049303439474,208.02221641985548,177.22835258388443,180.8548953554113
0.6006006006006006,6.267648607641775,3.9281704686179295,173.48924433392787,174.24926986029712,166.22696269308597,208.1336156791051,177.3248974136306,180.5709492633176
0.6339673006339673,6.267648607641775,3.899507241429957,173.57736057473733,174.4707909561756,166.4265216895921,208.2130379784036,177.43992120687685,180.3286579109287
0.6673340006673341,6.267648607641775,3.899507241429957,173.7116534601937,174.6866124952776,166.6151170027889,208.28769940474183,177.56937196077556,180.0943965144524
0.7007007007007008,6.267648607641775,3.899507241429957,173.84274227832998,174.89014423412817,166.81001685334428,208.3432748953994,177.7087013201099,179.86066783806967
0.7340674007340674,6.267648607641775,3.899507241429957,174.01905210857336,175.12603610186122,166.99249143444382,208.39240939059803,177.86711327344787,179.63750670297176
0.7674341007674341,6.267648607641775,3.899507241429957,174.22008673215683,175.32099674209482,167.1539836029605,208.4344688461763,178.01631232917066,179.42096549628718
0.8008008008008008,6.267648607641775,3.899507241429957,174.40033007009427,175.49045896929132,167.30673906915166,208.4219098280028,178.1652381660679,179.24512362050692
0.8341675008341676,6.267648607641775,3.899507241429957,174.5923201234641,175.66590931949017,167.4710365257447,208.41896736267577,178.31307871758716,179.0835303430198
0.8675342008675342,6.267648607641775,3.899507241429957,174.84623213088565,175.97167915539984,167.6446218951775,208.44843559521044,178.46404585461806,178.9079173822719
0.9009009009009008,6.267648607641775,3.899507241429957,175.15234336865885,176.34483637612237,167.83712731964533,208.55649583626305,178.60895457998387,178.71584678782165
0.9342676009342676,6.267648607641775,3.899507241429957,175.4641040650706,176.58665798086582,168.03973339570777,208.7535352023412,178.74665697499864,178.4617188070518
0.9676343009676344,6.267648607641775,3.899507241429957,175.78090472082025,176.77090868018135,168.2585327562824,208.98952519272515,178.86767732890112,178.2199384254158
1.001001001001001,6.267648607641775,3.899507241429957,176.22544592340233,176.9541913631463,168.4571006785875,209.22495289393007,178.98695891096736,177.9948166670087
1.0343677010343677,6.267648607641775,3.899507241429957,176.73029195104206,177.1029648787306,168.6498217708196,209.47810417552844,179.0924706572764,177.8097773182662
1.0677344010677343,6.267648607641775,3.899507241429957,177.179075706225,177.17043278972284,168.8122978238173,209.69446908908125,179.19075415010946,177.6874589342394
1.1011011011011012,6.267648607641775,3.899507241429957,177.631454220787,177.21866865984737,169.03215560600046,209.94635988827528,179.2456113707807,177.56563078444177
1.1344678011344678,6.267648607641775,3.899507241429957,178.0398186119997,177.21753475770225,169.19382667856578,210.15290749987304,179.31994973713628,177.50874826223597
1.1678345011678346,6.267648607641775,3.899507241429957,178.41943142634145,177.24038456935423,169.2994153687317,210.33476497049585,179.41854901376684,177.45710864960236
1.2012012012012012,6.267648607641775,3.899507241429957,178.84506340794263,177.16610231948306,169.36311186330312,210.53717763865345,179.53114993652252,177.40086855723175
1.234567901234568,6.267648607641775,3.899507241429957,179.26929444911246,177.0126343619602,169.37575092679225,210.6820884374556,179.66294225135917,177.37456827443583
1.267934601267935,6.267648607641775,3.899507241429957,179.79618479598537,176.80483470328906,169.33194055627234,210.76323488856443,179.8095546438274,177.38849286640317
1.3013013013013013,6.267648607641775,3.899507241429957,180.3029254126625,176.5450754706338,169.26167420725974,210.7915972955129,179.97000227233448,177.4339910189422
1.334668001334668,6.267648607641775,3.899507241429957,180.81240765428387,176.1441763428905,169.16236504991696,210.75346828420945,180.14111767363295,177.51683103834478
1.3680347013680347,6.267648607641775,3.899507241429957,181.23619232067264,175.57212796670868,169.04355063670482,210.61768461468785,180.3152681654093,177.64674187605476
1.4014014014014016,6.267648607641775,3.899507241429957,181.63524855448503,175.04137671819635,168.86243574780033,210.42340505793763,180.4931285028532,177.77887763387
1.4347681014347682,6.267648607641775,3.899507241429957,182.06831227432824,174.379179527719,168.6957086117789,210.1824991224396,180.67714610087012,177.91907494606468
1.4681348014681348,6.267648607641775,3.899507241429957,182.5551565352026,173.83898537468676,168.588297075601,209.9549744689517,180.84071044192143,178.02156269751356
1.5015015015015016,6.267648607641775,3.899507241429957,182.94008031778617,173.41159138744902,168.51246314549564,209.7431692297464,180.97691125596552,178.11015396040568
1.5348682015348682,6.267648607641775,3.899507241429957,183.46538171973552,172.9736832327201,168.3992460902344,209.46666988745704,181.137864758528,178.22722272163315
1.5682349015682349,6.267648607641775,3.899507241429957,184.159061251862,172.76794293837608,168.30322419395,209.13248221615447,181.31121670083627,178.346372016789
1.6016016016016017,6.267648607641775,3.899507241429957,185.04467398705484,172.69241871589858,168.191858630976,208.729696173506,181.4932700606598,178.48101785319065
1.6349683016349683,6.267648607641775,3.899507241429957,186.0837255056719,172.89581139627506,168.08805518648546,208.2560716259569,181.6515456181532,178.62911322806076
1.6683350016683351,6.267648607641775,3.899507241429957,186.9109212139605,173.12586077779835,168.00296154563162,207.7261026249145,181.78246838213488,178.8018483496743
1.7017017017017018,6.267648607641775,3.899507241429957,187.4854232984574,173.4089072545284,167.9597763892875,207.15396943473056,181.8992013145299,178.98318642933012
1.7350684017350684,6.267648607641775,3.899507241429957,187.9801153752658,173.72411303763164,167.9015666240408,206.5433208319465,182.0156060018716,179.19307065522872
1.7684351017684352,6.267648607641775,3.899507241429957,188.2344334822693,174.19094259549485,167.85656758648338,205.88096851948387,182.1213933270817,179.45758561003444
1.8018018018018016,6.267648607641775,3.899507241429957,188.3528377664493,174.79880862584713,167.87402397374686,205.20492274606693,182.1990110812561,179.729169057242
1.8351685018351689,6.267648607641775,3.899507241429957,188.4635896534764,175.63143825390125,167.95462513790616,204.5250210521489,182.2450337248856,180.0026542243577
1.8685352018685355,6.267648607641775,3.899507241429957,188.46901186956867,176.6977660280398,168.01255564475372,203.86711854017648,182.29242021766555,180.2775043601364
1.901901901901902,6.267648607641775,3.899507241429957,188.4845260756349,177.93038800393626,168.1120656230012,203.28389082807595,182.32151427278245,180.5129532847576
1.9352686019352687,6.267648607641775,3.899507241429957,188.4273834730317,179.30433098165943,168.2988392619039,202.7905360077401,182.31750430167887,180.69982602952103
1.968635301968636,6.267648607641775,3.899507241429957,188.2932888095313,180.7783323327555,168.5424711946366,202.45743421626625,182.2899232532512,180.7965339107796
2.002002002002002,6.267648607641775,3.899507241429957,188.27314671454675,182.4686492672812,168.81302765008832,202.26660478565825,182.2334821399727,180.8137850170636
2.035368702035369,6.267648607641775,3.899507241429957,188.17891812010524,184.05617014460853,169.17183627096486,202.21379650259635,182.1286326371322,180.7789412850315
2.0687354020687354,6.267648607641775,3.899507241429957,188.12750670987108,185.62386037136605,169.61680150546846,202.2353619976853,181.9801807047381,180.7065779352247
2.1021021021021022,6.267648607641775,3.899507241429957,188.14637593718248,187.273324203428,170.1363492856733,202.30435678464545,181.7711296625617,180.6602213715261
2.135468802135469,6.267648607641775,3.899507241429957,188.2216656630127,188.98203049799787,170.68354185181158,202.4114981791394,181.5351841649085,180.61598132534692
2.1688355021688355,6.267648607641775,3.899507241429957,188.17119695835103,190.5401221826216,171.3080821690929,202.57040368570085,181.2559663592113,180.5869182953516
2.2022022022022023,6.267648607641775,3.899507241429957,188.02272414666555,193.9786490538407,171.9418748661211,202.7500069354307,180.9638892226139,180.55126684907177
2.235568902235569,6.267648607641775,3.899507241429957,187.7290760815998,196.7980509923252,172.6018622417475,202.9886097870928,180.6538467667034,180.4818236862144
2.2689356022689355,6.267648607641775,3.899507241429957,187.339837347434,198.5904444437724,173.25462064454862,203.20499571614585,180.3905270280401,180.44392349333265
2.3023023023023024,6.267648607641775,3.899507241429957,186.74124018770644,199.3552434756573,173.9286876840723,203.48993530684223,180.1322257779989,180.36996896135128
2.335669002335669,6.267648607641775,3.899507241429957,186.24798661304447,199.63050768396337,174.65036762495015,203.8208488551991,179.887752466114,180.2641875321558
2.369035702369036,6.267648607641775,3.899507241429957,185.77553217229035,200.03660250084312,175.3916652966018,204.07205669060792,179.66905518865383,180.1796618928116
2.4024024024024024,6.267648607641775,3.899507241429957,185.43853095108983,199.9300592906852,176.14528311903106,204.2993317123199,179.4711974337982,180.0845912386062
2.4357691024357693,6.267648607641775,3.899507241429957,185.21700506100024,199.05232094254,176.88104205823055,204.5344908507913,179.2751137203572,179.9819987903645
2.469135802469136,6.267648607641775,3.899507241429957,185.2887249661656,197.98931285700144,177.5581956322631,204.7550208056144,179.04538151999608,179.8769082050962
2.5025025025025025,6.267648607641775,3.899507241429957,185.450752526528,196.62130764226745,178.23516844033904,204.95123864059263,178.79725884526138,179.76231825553327
2.5358692025358693,6.267648607641775,3.899507241429957,187.1539752812033,195.2556453822316,178.9443921835826,205.1287484012564,178.52574760349097,179.61546137987003
2.569235902569236,6.267648607641775,3.899507241429957,188.52525673224704,193.5748654432184,179.6869944748682,205.2823568922592,178.24286394560596,179.45548362136856
2.6026026026026026,6.267648607641775,3.899507241429957,189.70802705017303,191.97387442489403,180.4851026700904,205.4291785297392,177.94843887947917,179.27100721075897
2.6359693026359694,6.267648607641775,3.899507241429957,190.6849208295197,190.6544318855311,181.2696030450984,205.50583565004672,177.6758410060499,179.09615176684207
2.669336002669336,6.267648607641775,3.899507241429957,191.4607619751413,189.1521886617843,181.9813186977435,205.4744009186964,177.43984972514147,178.95784257771606
2.702702702702702,6.267648607641775,3.899507241429957,192.02150441655144,187.71927663444765,182.70437061923545,205.41132713892543,177.20301278871025,178.81452205253086
2.736069402736069,6.267648607641775,3.899507241429957,192.1186236557168,185.4226076489308,183.413025118007,205.3317289038822,176.9462649178751,178.66378087834838
2.7694361027694363,6.267648607641775,3.899507241429957,192.0227604598361,183.5662847590024,184.153998651498,205.203420073574,176.68735281155728,178.52605689593562
2.802802802802803,6.267648607641775,3.899507241429957,191.6291330504289,183.98530679695503,184.8962209992952,205.061901914393,176.49428821068565,178.40097595865095
2.836169502836169,6.267648607641775,3.899507241429957,190.5646793037333,184.38186081423288,185.60854364808608,204.91685298146456,176.32771438487754,178.27376995202766
2.8695362028695364,6.267648607641775,3.899507241429957,189.1501549790384,185.17807926812137,186.27959654920613,204.74732085670945,176.1440812444068,178.17315876887793
2.902902902902903,6.267648607641775,3.899507241429957,187.41982407334143,184.99405076122028,186.93613481074823,204.59522276325492,175.97108725429743,178.07840101836436
2.9362696029362696,6.267648607641775,3.899507241429957,185.58586734216607,185.12611423507,187.5722594444836,204.4398319865749,175.81653222251597,177.96357115659583
2.9696363029696364,6.267648607641775,3.899507241429957,183.6905715833485,185.26775595171088,188.16673584030056,204.2764547990444,175.64892064071313,177.819540220934
3.003003003003004,6.267648607641775,3.899507241429957,181.4227342040731,185.5112722551574,188.65023771734624,204.13340769844365,175.48723788223742,177.6358423918216
3.0363697030363697,6.267648607641775,3.899507241429957,179.32981356739944,185.9443661115344,189.1324304524715,204.0053299488176,175.30049988015597,177.4178707615741
3.0697364030697365,6.267648607641775,3.899507241429957,176.96714148934524,186.2673558904734,189.55924701223563,203.8561161198965,175.096393647021,177.17853568327774
3.103103103103104,6.267648607641775,3.899507241429957,174.57136107666778,186.40688467440475,190.01061753924705,203.76570776707905,174.8993660308642,176.9204868994468
3.1364698031364697,6.267648607641775,3.899507241429957,172.26362362852987,187.0415102446708,190.54994202916964,203.58845153922064,174.7081813155394,176.66446087207106
3.169836503169837,6.267648607641775,3.899507241429957,170.1366763586085,187.198109565007,190.9719942751072,203.4535691282389,174.51301140186604,176.4223162760184
3.2032032032032034,6.267648607641775,3.899507241429957,168.10755249552946,187.05652478941903,191.25090355512464,203.34330373663568,174.3475216537213,176.2299409446652
3.2365699032365702,6.267648607641775,3.899507241429957,165.80780422149954,186.6349549845513,191.41097537821705,203.229382503194,174.17950776314802,176.08734234670024
3.2699366032699366,6.267648607641775,3.899507241429957,162.98451651042402,186.5623758169601,191.4138423094581,203.1193737551464,174.0072120272217,175.98981695091035
3.3033033033033035,6.267648607641775,3.899507241429957,159.96006080056463,187.40589569324288,191.3163466840821,202.9665428514085,173.8167293606592,175.9322655727566
3.3366700033366703,6.267648607641775,3.899507241429957,156.6269616747218,187.5861330140432,191.100462796717,202.85952488405573,173.6278485070604,175.89774163427407
3.3700367033700367,6.267648607641775,3.899507241429957,153.08702427191517,184.9626376240992,190.8773954401835,202.7498404571309,173.43024468085252,175.9050879010664
3.4034034034034035,6.267648607641775,3.899507241429957,150.0104799768324,181.7534502547996,190.5632376759964,202.64031624568813,173.25000991990626,175.9395613516371
3.4367701034367704,6.267648607641775,3.899507241429957,146.8639136498592,181.06231077353212,190.1133036185977,202.54238419948447,173.06880747082693,176.02489426896472
3.4701368034701368,6.267648607641775,3.899507241429957,143.8247070884722,175.5800549862908,189.58541463613108,202.47190002411256,172.8757040364241,176.1178504390986
3.503503503503504,6.267648607641775,3.899507241429957,141.28498044054942,175.1108255214072,188.98038533554492,202.3660346590846,172.6385759193031,176.2584700692938
3.5368702035368704,6.267648607641775,3.899507241429957,139.44699808018404,171.9543604548161,188.2754580362411,202.31161913919928,172.3643631542852,176.4161185630324
3.5702369035702373,6.267648607641775,3.899507241429957,138.48686127163293,166.43235933664644,187.36993507422983,202.5168960707896,171.8974182719784,176.76174865884832
3.603603603603604,6.267648607641775,3.899507241429957,137.43493476384995,164.95309496637918,186.6023268797092,202.25629258471292,171.446996851774,177.03799783526844
3.6369703036369705,6.267648607641775,3.899507241429957,136.12385039432831,160.00910698702066,185.9687547007869,202.15788333208977,171.0258060964888,177.25335142552922
3.670337003670337,6.267648607641775,3.899507241429957,134.2875546081208,154.97228577922294,185.4040477603832,202.1170306079613,170.61866789739264,177.42678842550876
3.703703703703704,6.267648607641775,3.899507241429957,129.71525598635873,147.04592098363528,184.84940599070973,202.1574624800668,170.2470759593051,177.53835724392272
3.737070403737071,6.267648607641775,3.899507241429957,126.61106493734634,142.76016608651793,184.40305367931828,202.27192663306548,169.90901857685105,177.5742258177891
3.770437103770437,6.267648607641775,3.899507241429957,123.01019683882429,138.45099777118122,183.95677822623,202.445502653871,169.60611796081054,177.57522606388082
3.803803803803804,6.267648607641775,3.899507241429957,119.5320777197212,130.2464078523624,183.4996955698749,202.71277133905883,169.33343918226092,177.53118957684566
3.8371705038371706,6.267648607641775,3.899507241429957,116.39560803365912,122.9853648667743,183.084041583498,202.97086919807725,169.09762305115797,177.43425775964573
3.8705372038705375,6.267648607641775,3.899507241429957,113.16545885920844,115.82622589560138,182.7746730032057,203.28654405074872,168.88648467144762,177.28799702473944
3.903903903903904,6.267648607641775,3.9045859689770137,110.26022754290952,111.36114307182768,182.52631979958264,203.65376311893533,168.7235151130314,177.10345252858218
3.937270603937271,6.267648607641775,3.923457328905239,107.90375147967792,107.83084738149228,182.3198205611628,204.2758610283687,168.4656947417971,176.96158850343082
