Time,Left Shoulder Angle,Right Shoulder Angle,Left Elbow Angle,Right Elbow Angle,Left Hip Angle,Right Hip Angle,Left Knee Angle,Right Knee Angle
0.0,23.81577560270106,30.07394071282224,159.13916981086146,165.78552910583858,144.20954743342187,139.97367146716934,199.6285751948581,201.85100084191728
0.0333667000333667,24.173624629801537,30.369858312532216,158.92276747004232,166.03156354178472,143.4914802787214,140.0175854049176,200.5065024367592,201.84909609736235
0.0667334000667334,24.512656030398485,30.61729778597202,158.78703014784497,166.23524433998276,142.85104721898836,140.05037039226465,201.2567659505428,201.89593106359345
0.1001001001001001,24.834970001257616,30.819719238828714,158.72850016635164,166.3983514828523,142.28276715556586,140.07276062378128,201.888618190042,201.9871151373277
0.1334668001334668,25.142666739144666,30.980582776789355,158.74371984764457,166.52266495281296,141.78115898979715,140.08549029403846,202.41131160908984,202.11825771528208
0.1668335001668335,25.43784644082534,31.103348505541,158.829231513806,166.60996473228437,141.34074162302534,140.08929359760708,202.8340986615196,202.28496819417376
0.2002002002002002,25.722609303065365,31.19147653077071,158.98157748691816,166.6620308036861,140.9560339565936,140.08490472905802,203.1662318011641,202.48285597071987
0.2335669002335669,25.999055522630464,31.248426958165545,159.19730008906322,166.68064314943774,140.6215548918451,140.07305788296222,203.4169634818566,202.7075304416374
0.2669336002669336,26.26928529628636,31.27765989341256,159.4729416423235,166.66758175195898,140.33182333012303,140.05448725389056,203.5955461574302,202.9546010036435
0.3003003003003003,26.535398820798765,31.28263544219882,159.80504446878112,166.62462659366938,140.0813581727705,140.02992703641394,203.711232281718,203.21967705345523
0.333667000333667,26.79949629293341,31.26681371021138,160.1901508905184,166.55355765698854,139.86467832113075,140.00011142510328,203.77327430855297,203.4983679877897
0.3670337003670337,27.06367790945601,31.2336548031373,160.62480322961756,166.45615492433612,139.67630267654687,139.9657746145295,203.7909246917684,203.7862832033639
0.4004004004004004,27.330043867132293,31.18661882666364,161.10554380816075,166.33419837813167,139.51075014036206,139.9276507992634,203.7734358851972,204.07903209689505
0.4337671004337671,27.60069436272797,31.129165886477445,161.6289149482303,166.18946800079482,139.3625396139195,139.88647417387602,203.7300603426725,204.3722240651001
0.4671338004671338,27.877729593008773,31.064756088265792,162.1914589719084,166.02374377474518,139.22618999856232,139.84297893293817,203.67005051802752,204.6614685046964
0.5005005005005005,28.163249754740413,30.99684953771573,162.78971820127722,165.83880568240238,139.09622019563372,139.79789927102078,203.6026588650953,204.94237481240063
0.5338672005338673,28.45935504468861,30.928906340514327,163.4202349584191,165.636433706186,138.96714910647685,139.75196938269477,203.53713783770883,205.21055238493025
0.5672339005672339,28.768145659619293,30.864386602348883,164.07955156541743,165.41840782851702,138.83349563243598,139.7059234625321,203.48273988970288,205.4616106190037
0.6006006006006006,29.15724337471123,30.872792227384608,164.74774152381184,165.23685948055075,138.6187839309531,139.64151650727558,203.59935053427463,205.64477924425805
0.6339673006339673,29.588233824902364,30.906675254017447,165.45172810701655,165.03480816839394,138.3623131632894,139.59423954716135,203.74444962755933,205.75812475803409
0.6673340006673341,29.98115510065553,30.934771268163008,166.04691693970443,164.84189530456118,138.0894930208134,139.56319898970747,203.918023238894,205.81352916496363
0.7007007007007008,30.384423165932084,30.96668833901108,166.7111230295347,164.61237489015434,137.78297110998,139.54742160249896,204.12468209113112,205.8214875528644
0.7340674007340674,30.837453626860487,31.005161077293003,167.4756729356148,164.3432849135705,137.4241770861768,139.53538496789147,204.3964920491589,205.7922382611556
0.7674341007674341,31.366094645268262,31.065684143167463,168.3380319192517,164.046971313997,137.02242964525672,139.5158207398426,204.7519730587217,205.75106927432665
0.8008008008008008,31.923290661018925,31.17657305836088,169.25354687402194,163.78790657122815,136.60001820768085,139.46303468288983,205.1357368639291,205.71715175479892
0.8341675008341676,32.49247925634429,31.315026211670627,170.1807297834956,163.51931759409507,136.1612284406734,139.40360421834657,205.56961943039883,205.6906326866712
0.8675342008675342,33.0273242015596,31.46173589850359,171.04504070790003,163.2551319473619,135.70600288073888,139.3314086465614,206.04848955528612,205.6637179437745
0.9009009009009008,33.52927900873024,31.62283987513777,171.85013668937148,162.97583631731675,135.2621966387485,139.27528047453302,206.5543270687663,205.625712163115
0.9342676009342676,34.01303577608647,31.77945982180824,172.64680498051143,162.63956965249557,134.83237995270937,139.20982421754132,207.11696847726435,205.57833711173825
0.9676343009676344,34.479772561894094,31.93099520622023,173.37015356013535,162.25629150598445,134.4166322371048,139.17158235919948,207.70888670817504,205.5130324376313
1.001001001001001,34.882431350144635,32.06871597558578,173.81158197497678,161.78432340511804,134.0554517011467,139.17704451422657,208.2904690992757,205.409821079351
1.0343677010343677,35.28857503629713,32.19946993151191,174.19604132015152,161.31673521670552,133.6944870483142,139.21799767343006,208.8828508554288,205.28368364409232
1.0677344010677343,35.62925135118402,32.37676476761264,174.4915274080573,161.0029467047134,133.327318266571,139.24860952739715,209.47854201941544,205.14185683037803
1.1011011011011012,36.00441656463554,32.57400786703451,174.7599102785188,160.65978543190928,132.99686909605805,139.2974599087618,210.0355575968984,205.0081437933106
1.1344678011344678,36.38332446583919,32.831858519913155,174.94918349783995,160.12147623182796,132.70181834725852,139.36060588235284,210.5497510320851,204.87580493868532
1.1678345011678346,36.77157830308312,33.04764635734728,175.21699478613073,159.58343934699082,132.44646164860904,139.48412538875178,211.01492113789988,204.74998099191447
1.2012012012012012,37.198981762052895,33.35232601845883,175.50793914173164,159.4374554802753,132.22734148787137,139.64203132296623,211.45013960343772,204.639364761753
1.234567901234568,37.60732327584995,33.551376921516365,175.78312137438422,159.2080161368837,131.98634344950509,139.8332506721149,211.85431005486285,204.5198518207311
1.267934601267935,37.97083495132284,33.61351591513129,175.9987265342415,158.95615601755233,131.7613154697426,140.0437045204189,212.212437644584,204.39696134791487
1.3013013013013013,38.27888850221253,33.56461421001413,176.23442936661456,158.64573332775132,131.52647504016193,140.25857110469087,212.5713754504982,204.29363373767447
1.334668001334668,38.63887685794572,33.570316581341224,175.91554050300456,158.45794490628006,131.3292317810252,140.47835147256473,212.8949862966469,204.1957530561137
1.3680347013680347,38.97926044708621,33.43130991153536,175.78812469257284,158.1759214547332,131.20701743361957,140.73440343953246,213.1850037166548,204.10748329629112
1.4014014014014016,39.32196034917198,33.068186894950365,181.10803298042765,157.77014907739888,131.1534650967877,141.01434507670908,213.42056014941903,204.03506936666483
1.4347681014347682,39.59473528972078,32.55295249529426,185.3194969715542,157.2212159618569,131.14811627466557,141.32996637826133,213.5845161048608,203.9977167698816
1.4681348014681348,39.80828567026469,31.945925689582204,188.2380810068259,156.62767955414557,131.22262509360945,141.65673879947417,213.65665987829345,203.99732205737308
1.5015015015015016,39.828361294739366,31.220657654171507,189.85907852281343,155.8331618700687,131.3283391223681,142.00137347223105,213.65656162014463,204.04341313370875
1.5348682015348682,39.920913867756006,30.475336266917186,189.87975994635423,155.05466648061062,131.49551041513544,142.38539294381002,213.5470615454857,204.0999702900212
1.5682349015682349,39.84930385237512,29.67440090232796,188.798280332096,154.133690144975,131.6408320871869,142.78795761982062,213.4488613943117,204.1306406051713
1.6016016016016017,39.82585477748809,29.038047551159966,186.62063742428344,153.50110839930215,131.73589264753406,143.20002294623657,213.398711290712,204.161354799956
1.6349683016349683,39.60758166991565,28.37799556470299,183.93050220621285,152.8234557177456,131.77355393634966,143.6434540995135,213.43579713175328,204.14898127939315
1.6683350016683351,38.97221932608933,27.372530249645425,180.20463409701784,152.13345602460353,131.770150540462,144.10471475347538,213.51656846438365,204.09805766715715
1.7017017017017018,38.07923138237479,26.133426545707355,175.9829881622911,151.25298949357352,131.75160202074346,144.58301555038508,213.63369935646364,204.02698800912407
1.7350684017350684,37.06245126292058,25.10933296751132,167.49303454853634,150.26022038068965,131.69252189401496,145.09030318410694,213.7702870343649,203.93907960556405
1.7684351017684352,35.60413467382088,23.87875793200777,159.8854559059981,148.91903250376933,131.64149888282589,145.58950188498727,213.90843992080872,203.8593490561788
1.8018018018018016,33.721899261847646,22.39285917120325,153.0238883307858,147.7818100825991,131.56548739333493,146.0615934259878,214.0884204614894,203.79114648650588
1.8351685018351689,31.6996457609132,20.741831491847105,147.42417265951337,146.16175958516305,131.482964207877,146.50822800666126,214.2779057931423,203.727559032475
1.8685352018685355,30.198850672132163,18.919612127410154,148.1990380656323,143.7944468512368,131.4198457313246,146.9278224434692,214.4767663550931,203.6664630071084
1.901901901901902,28.404152344535927,17.291176362510694,148.47473479847682,141.35016610594948,131.41833771309553,147.3303935943133,214.63704995287523,203.6144146225791
1.9352686019352687,26.420090571594784,15.68849651688664,148.35139750937356,137.5654116229445,131.4853083505707,147.7089409318706,214.75521432880373,203.5699869761251
1.968635301968636,24.263128556139336,13.980258084718589,147.69271497550983,134.76693585345146,131.61026386466787,148.10053292772554,214.86221802398163,203.5083154687719
2.002002002002002,22.223820163066648,12.479781250805631,146.9808903008164,133.04514110209695,131.69905557941098,148.49020153034635,214.9604393231014,203.4427690822889
2.035368702035369,20.328301408267947,10.583725069663496,146.23413303073934,132.72994684242948,131.860945382762,148.87747914986758,215.0410753019761,203.3643456572397
2.0687354020687354,18.0969076247367,9.300313706412831,145.06766373732776,131.2881691943737,132.07775368526518,149.23518653844158,215.1159999379348,203.27714134188048
2.1021021021021022,15.438219203330446,8.499040637877096,143.1301740110677,129.18311535301152,132.36729424338387,149.58699130048424,215.15699947789165,203.17709141872407
2.135468802135469,13.044370468648864,7.718823771804412,141.1470000597795,126.6500320437872,132.72974218516714,149.89926382142386,215.17878175723652,203.0612614877008
2.1688355021688355,10.922814294108589,7.304320404363399,139.28316773742938,123.76083475000844,133.10989591044137,150.16354235837642,215.21587181201943,202.94600382136093
2.2022022022022023,8.881784263545198,7.435534996802804,137.39202527747702,120.8702375085676,133.508831882911,150.38121465503542,215.25184829486776,202.83210953522203
2.235568902235569,7.090272048475694,7.233781978016201,135.50452204495744,116.30590649462096,133.9589958614392,150.5836992691495,215.27659223212768,202.72297955492627
2.2689356022689355,5.24344185740996,8.823105777968761,133.63155909977922,112.87444165114198,134.4262539234813,150.74400868894605,215.2932796498581,202.63022791070057
2.3023023023023024,3.7968720476859374,11.4530719102344,132.16848319723383,108.45966991064228,134.9008705203047,150.86122600638348,215.30295110352463,202.5543117074281
2.335669002335669,3.7968720476859374,4.440368882626451,131.38555094913602,104.5722758158314,135.38384151364994,150.93195775614325,215.302593637162,202.484071248282
2.369035702369036,3.7968720476859374,0.4006672036355763,131.3355431601302,99.91174344540786,135.8997807630953,150.96297080501353,215.26616892104528,202.4097897819072
2.4024024024024024,3.7968720476859374,0.2638937732776227,131.82392230262977,91.57047813299688,136.4343772833212,150.9139120572577,215.23572872317612,202.34144899583268
2.4357691024357693,3.7968720476859374,2.3301805842183665,133.34920178831393,84.32676220561022,136.9905419869221,150.8469988377231,215.20672942909343,202.27706111007467
2.469135802469136,3.7968720476859374,2.3301805842183665,135.84990109344128,78.82217642525713,137.53391085576098,150.75843048769082,215.16614911402883,202.22201295458265
2.5025025025025025,3.7968720476859374,2.3301805842183665,140.14544695704686,74.45010688467407,138.06390049344262,150.6644319577708,215.13261935438604,202.19140216899552
2.5358692025358693,3.7968720476859374,2.3301805842183665,145.97900742038794,72.98561344254594,138.59029357531,150.57232389831836,215.1100493509742,202.1840504317489
2.569235902569236,3.7968720476859374,2.3301805842183665,146.33123866479278,71.93457509737172,139.1064978724432,150.49444672919793,215.09719183189208,202.1931296499442
2.6026026026026026,3.7968720476859374,2.3301805842183665,145.90350050106966,71.14333300977029,139.610911827748,150.42190826081773,215.10211256104736,202.2195251214241
2.6359693026359694,3.7968720476859374,2.3301805842183665,145.02096858948474,70.60179094127989,140.068683552303,150.3846343890166,215.13752353450195,202.2520040847207
2.669336002669336,3.7968720476859374,2.3301805842183665,143.50693528019548,70.53119824124416,140.45636988091223,150.37312120201764,215.18931639327457,202.2948735994405
2.702702702702702,3.7968720476859374,2.3301805842183665,141.93421213000283,70.63662179261186,140.7743261267752,150.3895243704856,215.3124768833803,202.3414414008243
2.736069402736069,3.7968720476859374,2.3301805842183665,139.7536948839089,71.0859967966669,140.9571128445885,150.43509267237317,215.5237661920528,202.3868344826831
2.7694361027694363,3.7968720476859374,2.3301805842183665,137.45624252182455,71.43260253693397,141.11642306602872,150.5148787873057,215.762464713818,202.4246101977316
2.802802802802803,3.7968720476859374,2.3301805842183665,135.04584975352327,71.76569788453904,141.23861673411218,150.59897646522955,216.01410283648687,202.48171797016545
2.836169502836169,3.7968720476859374,2.3301805842183665,133.15024830610028,71.9945024995717,141.34994103714735,150.71309695632698,216.27274608624373,202.5309073128491
2.8695362028695364,3.7968720476859374,2.3301805842183665,131.43939147841726,72.26130493979632,141.38601102937284,150.85364512716333,216.553809305982,202.56988276694844
2.902902902902903,3.7968720476859374,2.3301805842183665,134.96383584661848,72.16616120275272,141.45522648771512,151.0009083553647,216.84479829426823,202.5954850345068
2.9362696029362696,3.7968720476859374,2.3301805842183665,139.84498601829202,72.38792637326321,141.54285665041385,151.17378141087997,217.14200308041129,202.6047357491942
2.9696363029696364,3.7968720476859374,2.3301805842183665,146.40407209046347,72.3330677548335,141.6854582813911,151.37995065790432,217.398876205608,202.5937844888805
3.003003003003004,3.7968720476859374,2.3301805842183665,154.42922439704876,72.29914166129883,141.87114429255573,151.6267033938428,217.624184390596,202.55027574127047
3.0363697030363697,3.7968720476859374,2.3301805842183665,157.15198430429336,73.13378229299079,142.080238357637,151.90818220418927,217.8105898802665,202.4829020998244
3.0697364030697365,3.7968720476859374,2.3301805842183665,159.59998555916567,74.34834781225493,142.29093623650596,152.21594539989871,217.9656869670706,202.40032784506027
3.103103103103104,3.7968720476859374,2.3301805842183665,161.80042869331004,77.64719741958298,142.48548712813897,152.54405238727227,218.09879815345383,202.30301062204165
3.1364698031364697,3.7968720476859374,2.3301805842183665,163.92275972143338,81.14900052699005,142.65922115016858,152.88134410464895,218.2240245530844,202.19504774900352
3.169836503169837,3.7968720476859374,2.3301805842183665,165.5488503401058,84.0297685426753,142.9191798243436,153.2101782304772,218.3347996686268,202.06548628893668
3.2032032032032034,3.7968720476859374,2.3301805842183665,166.66664869334664,85.34148390453234,143.19378046974904,153.52209526292788,218.41530007141307,201.92489892913213
3.2365699032365702,3.7968720476859374,2.3301805842183665,167.62247544271798,86.89482258695341,143.48814171762194,153.826488860994,218.4701989116161,201.76902473079684
3.2699366032699366,3.7968720476859374,2.3301805842183665,168.8350538676883,89.99946538114685,143.8054278281053,154.12936704476266,218.4661691351065,201.58806751745976
3.3033033033033035,3.7968720476859374,2.3301805842183665,169.7099619187072,90.85380735413555,144.1155666968339,154.43710350326845,218.4262776176772,201.38974046516407
3.3366700033366703,3.7968720476859374,2.3301805842183665,170.37978884881758,90.0479236561853,144.43945268887342,154.74616167469776,218.32034285438263,201.1706135680708
3.3700367033700367,3.7968720476859374,2.3301805842183665,170.99025884770148,87.83612059447668,144.77385734614725,155.02517931717472,218.18211531133625,200.9520637499083
3.4034034034034035,3.7968720476859374,2.3301805842183665,171.60316209989878,86.34189507162945,145.11866588592324,155.29916870994583,218.02369362584605,200.68236421745013
3.4367701034367704,3.7968720476859374,2.3301805842183665,172.4208670282271,83.23895048742534,145.40509909236113,155.53982718414915,217.88506372625943,200.4020866748183
3.4701368034701368,3.7968720476859374,2.3301805842183665,173.42463393537955,81.04146314287998,145.65993448798284,155.78808296952587,217.75639523741376,200.0632737479661
3.503503503503504,3.7968720476859374,2.3301805842183665,174.34875246108498,77.92697037360888,145.85216681028004,155.99107519069892,217.6562149448481,199.7593616267888
3.5368702035368704,3.7968720476859374,2.3301805842183665,175.2123903026331,74.99331095060944,145.9736193930199,156.18526257440297,217.60830567871287,199.41086951863213
3.5702369035702373,3.7968720476859374,2.3301805842183665,176.29041489552722,76.3918230679374,146.00894553627091,156.36787957685473,217.58582124379856,199.129955632412
3.603603603603604,3.7968720476859374,2.3301805842183665,177.93339052448164,78.16320741972402,145.95737065279272,156.51545649396647,217.61552274752825,198.9085222252833
3.6369703036369705,3.7968720476859374,2.3301805842183665,179.36736612282198,79.938992298368,145.84817878827943,156.60210456994426,217.6950247949108,198.80402029284568
3.670337003670337,3.7968720476859374,2.3301805842183665,179.8885555824549,80.16643343887549,145.71044638532595,156.67718431415028,217.82029628241725,198.7313677464484
3.703703703703704,3.7968720476859374,2.3301805842183665,179.8889267578695,78.68624823510004,145.4991206774933,156.68857571008596,217.98062915840964,198.75719108869416
3.737070403737071,3.7968720476859374,2.3301805842183665,179.50167888157478,77.3741478329142,145.15011918613433,156.64027335255832,218.23540884420044,198.86841204550487
3.770437103770437,3.7968720476859374,2.3301805842183665,178.95815773715722,76.7623857434485,144.70455161955135,156.50364184839708,218.5166769107668,199.13427576602243
3.803803803803804,3.7968720476859374,2.3301805842183665,178.56089235636162,79.94752224401623,144.0112632986242,156.2752425678618,218.9883073124232,199.5859694699478
3.8371705038371706,3.7968720476859374,2.3301805842183665,177.89516250774662,81.53890203021187,143.26737575393693,155.9913160614289,219.44334448409668,200.2157152720784
3.8705372038705375,3.7968720476859374,2.3301805842183665,178.55620971877607,83.54524579007605,142.5340467378717,155.53885199507283,219.8702491649428,200.99453090036155
3.903903903903904,3.7968720476859374,2.3301805842183665,178.97115369838352,85.29192584915381,141.89320054189926,154.9906393964532,220.25271239979503,201.9189220842143
