Time,Left Shoulder Angle,Right Shoulder Angle,Left Elbow Angle,Right Elbow Angle,Left Hip Angle,Right Hip Angle,Left Knee Angle,Right Knee Angle
0.0,23.9706919560872,5.583229904667543,155.9874138407201,147.11033260218062,143.57597033080344,135.40935243577496,203.14381694811428,201.6559491108368
0.0333667000333667,27.141984441870843,19.04512157187753,154.07406720711057,154.30506648361944,143.87614549223753,136.4768902353818,202.86078857373028,202.0318587131077
0.0667334000667334,29.353612528494708,29.75955472422866,152.7920112500333,160.0753100740235,144.053271628957,137.38591258152374,202.63943968862296,202.3853213416531
0.1001001001001001,30.72794980622041,37.945139283958206,152.0922760811221,164.50493680655035,144.1158314212078,138.14711073908305,202.4777417411176,202.715172557336
0.1334668001334668,31.387369865309573,43.82048517330343,151.92589181201066,167.67782011435756,144.07230754923586,138.77117597294196,202.3736661795391,203.02024792101952
0.1668335001668335,31.45424629602382,47.604202314501606,152.2438885543328,169.67783343060273,143.93118269328716,139.26879954798275,202.3251844522128,203.2993829935668
0.2002002002002002,31.05095268862477,49.51490062979,152.99729641972232,170.58885018844336,143.70093953360762,139.65067272908766,202.3302680074638,203.55141333584103
0.2335669002335669,30.29986263337404,49.77119004140587,154.1371455198129,170.49474382103708,143.39006075044327,139.92748678113895,202.3868882936172,203.7751745087053
0.2669336002669336,29.32334972053325,48.59168047158651,155.61446596623836,169.47938776154143,143.00702902403998,140.10993296901887,202.49301675899807,203.9695020730228
0.3003003003003003,28.243787540364043,46.19498184256916,157.38028787063243,167.62665544311395,142.56032703464373,140.20870255760968,202.64662485193185,204.13323158965656
0.333667000333667,27.18354968312802,42.79970407659111,159.38564134462894,165.02042029891226,142.0584374625005,140.23448681179366,202.8456840207433,204.26519861946983
0.3670337003670337,26.265009739086807,38.62445709588962,161.5815564998616,161.74455576209385,141.50984298785625,140.197976996453,203.0881657137577,204.36423872332568
0.4004004004004004,25.610541298502028,33.88785082270192,163.91906344796416,157.88293526581634,140.92302629095687,140.10986437647,203.3720413793004,204.42918746208727
0.4337671004337671,25.3425179516353,28.80849517926536,166.34919230057045,153.5194322432373,140.30647005204838,139.98084021672693,203.69528246569607,204.4588803966177
0.4671338004671338,25.58331328874825,23.60500008781711,168.82297316931422,148.73792012751426,139.6686569513767,139.82159578210602,204.0558604212704,204.45215308778012
0.5005005005005005,26.455300900102497,18.4959754705945,171.2914361658292,143.62227235180478,139.01806966918778,139.6428223374895,204.4517466943481,204.40784109643772
0.5338672005338673,28.080854375959664,13.700031249834804,173.7056114017492,138.25636234926645,138.36319088572762,139.45521114775968,204.88091273325452,204.32477998345365
0.5672339005672339,30.582347306581003,9.435777347774756,176.01652898870933,132.72406355305804,137.71250328124324,139.26945347779983,205.3413299863164,204.20180530969265
0.6006006006006006,38.06410270524803,6.737309694488898,177.22225146934323,127.79090845462842,137.07584507788104,139.24396648597664,205.85396502700107,203.9517382771577
0.6339673006339673,46.908865480804295,6.68329187323297,178.30980299923115,122.83297068670797,136.4691568608313,139.28194482035602,206.40573058868188,203.5507603561392
0.6673340006673341,56.8700011732981,9.082533182029357,179.18004135597528,118.01401984278527,135.99308123839418,139.36621509795083,206.9767831407653,203.08074588461105
0.7007007007007008,67.85347746886583,13.775197197165188,179.69906787457302,113.1593449857219,135.65380937804272,139.55986937490837,207.5657358018404,202.50118396063863
0.7340674007340674,79.53955005781691,20.531876548702986,180.08488923313465,109.1519043410021,135.2455923512945,139.82549886231132,208.16807870616543,201.80316145168288
0.7674341007674341,100.00053642576356,39.09826725262965,180.5371456906221,106.89676761622184,134.83303093309866,140.1675035254008,208.73053801799867,201.04364049725592
0.8008008008008008,120.60333897985473,55.91130466118404,179.86279343801058,102.44946967766488,134.43693526161482,140.3635842804268,209.464046726214,200.57135342638577
0.8341675008341676,138.5950644866353,71.1893448801436,180.97878003188387,98.7397231863194,133.67532237009272,140.4395957005615,210.5608466874444,200.22307149597887
0.8675342008675342,153.606832554935,85.15292967016542,180.73436814614823,95.07701245468614,133.0235800655285,140.5872998534204,211.8015332654636,200.16123903870368
0.9009009009009008,166.4072640652391,97.38061966994992,179.59841170889294,90.1496260218884,132.66853649154797,140.8993846205046,212.9059828228208,200.30475295653548
0.9342676009342676,177.61918641864807,107.66231484894476,178.91735522232673,86.75210697315944,132.3040539809178,140.96870242779173,213.99359875005248,200.4333679907246
0.9676343009676344,187.0352355968881,116.59054425227272,178.2654985935184,84.7005838654298,132.11381657405542,141.1088121898808,214.83357940263164,200.7088137907848
1.001001001001001,194.5258192517909,124.03754526459826,178.5205286919177,86.76770152815416,132.2102680712355,141.26924195834422,215.2550319358409,200.9235227587462
1.0343677010343677,199.61681829179145,130.70749089508294,179.24290356238143,89.96998184176003,132.49580432581,141.25130538635486,215.36717993911896,201.254764988247
1.0677344010677343,201.7996074133028,136.21859588249808,179.90672545383913,93.438087724553,132.64214229806873,140.97112640569804,215.39734979139675,201.83822153307932
1.1011011011011012,202.78807153235093,140.45107824968034,177.46959526327026,96.66205519381444,133.03715217035966,140.65158390516342,215.2541633014788,202.45300699984853
1.1344678011344678,200.9769178488361,138.04043595762997,175.02205393022598,90.85090074884626,133.46864428920182,140.41196113457517,215.00493185625007,203.1554641385974
1.1678345011678346,196.98581074898263,133.53411753810755,173.6374659597816,90.17596417970448,133.9402630631703,140.09858750738866,214.8012033200552,203.92670425102605
1.2012012012012012,190.0444807959816,129.6481664111586,170.31508508140408,91.44077699563262,134.5069595424069,139.88640084530545,214.3961656528822,204.49004836077475
1.234567901234568,181.7088215164615,127.4123607311668,166.11771891360553,92.68724828214845,135.38032211303144,139.9715825109772,213.5133370833861,204.7423064075859
1.267934601267935,171.56300483942658,125.83734073136746,162.5789375270029,94.54494629254688,136.36553908037573,140.074916635969,211.9516234355727,205.08372622707
1.3013013013013013,158.94530158887144,124.01707063566766,159.2468472083938,97.47817489195693,137.4827150592535,140.36996085268115,210.6040167872064,205.21910803233607
1.334668001334668,144.80958976312246,122.32781159257668,153.33161832507295,100.12819358987808,138.84334430626546,140.91004930762455,209.1987872887373,205.0630708280193
1.3680347013680347,129.07683194450513,120.75863717059772,149.37519838824682,102.9653583382093,140.47302966096754,141.6145806999463,207.6882951519312,204.665950430746
1.4014014014014016,112.28995180166584,119.22177884030474,145.10534292140164,105.34755876648272,142.43370895968565,142.52671481599864,205.96626948508268,203.93669481010207
1.4347681014347682,94.35120635299587,118.43961372930782,140.81532144331626,110.06974739707432,144.61574710603043,143.54944360087032,204.10948561082063,202.97215584073376
1.4681348014681348,87.77517341637568,118.55267510102269,135.9526960455502,110.00592065620457,147.00808279528238,144.7033176799375,202.1431425255204,201.79039419041743
1.5015015015015016,71.26750822354003,118.97128956601895,130.80377117198572,110.53236623813484,149.59975379930466,145.75845863503304,200.04323796701692,200.4679793554865
1.5348682015348682,52.94779027347563,119.5747731326161,125.28835274426112,113.88864764728584,152.35354665592328,146.98353400884088,197.83170244237945,198.91637719612123
1.5682349015682349,46.05619903495241,119.95896322515266,118.80436534446918,116.45949077869147,155.2777221331818,148.45854303850663,195.5179451404045,197.19178189490373
1.6016016016016017,40.079588346599,120.17893730018643,112.66158742260367,119.6785439767229,158.3608130346321,150.16147633940682,193.1641535450033,195.2682200204356
1.6349683016349683,35.64822591514868,120.05887453399386,106.90330569978909,122.61069989371998,161.34427644612268,151.9217124154198,190.9908242619818,193.2980889470196
1.6683350016683351,32.76623087396608,119.50352846878964,101.44580973994552,125.57980663489494,164.3016993210414,153.73295071163852,188.9053130559514,191.27197144798825
1.7017017017017018,31.60994345884514,129.2803892576664,96.36259117792903,128.87911521586824,167.20871519135278,155.5430655312964,186.9142911763035,189.19104941076267
1.7350684017350684,32.33022172960661,141.1568716644124,91.5129611019852,132.10302759351694,169.994606040739,157.34949789471838,185.07613437356247,187.0813800745547
1.7684351017684352,35.11612638635172,155.1183521512072,86.92670164147647,135.34694677092088,172.692269473616,159.1689149892163,183.3871748150451,184.92615901809057
1.8018018018018016,40.04165725054551,171.069516936511,82.65505398231517,138.76114991259493,175.2006454397118,160.91686020074928,181.8832992752676,182.9130528159233
1.8351685018351689,47.35860072835162,188.9672659976821,78.82902676619628,142.3187739594553,177.38527958132718,162.61159754755835,180.6176107921396,181.03276963478137
1.8685352018685355,57.15675106562091,215.9429024555032,75.66617701908025,146.21464726035074,179.1880623779396,164.10280638513973,179.59744101832695,179.4154957094092
1.901901901901902,69.80353922755464,235.6890402779405,73.0486006941612,149.17503502227768,180.76176635289323,165.36261755118966,178.8494971819293,178.1708122497511
1.9352686019352687,74.65296755118946,244.441195185217,70.74234187263023,149.6599223951446,182.053503900758,166.30760313909502,178.4809538686435,177.386360012399
1.968635301968636,77.02850429889618,252.28288770336468,70.21511643869508,151.92954301097285,183.06284209427105,167.18005834317177,178.26363501775484,176.74306592800022
2.002002002002002,79.10544055103357,266.0166699941561,68.26157201038416,153.7414108628907,184.19358164938885,168.0092461261097,177.93649180322384,176.39307741210402
2.035368702035369,80.85864969157701,270.69885623125106,69.01517703078932,156.82556906371795,184.9822788504776,168.25742055204506,177.4671858485615,176.37341250043914
2.0687354020687354,82.27992430155857,274.04709592441804,69.9618984553878,159.6406484795575,185.62764575765303,168.400323879295,177.06107401128986,176.45653377197124
2.1021021021021022,83.36686158848748,276.0819914848928,71.01502400135936,162.1211320297328,186.13706752806235,168.4526838883922,176.71445197432348,176.62156812296917
2.135468802135469,84.11705875987342,276.8241453239132,72.08784138588462,164.20150263356842,186.51792931885376,168.42922835987054,176.4236154205787,176.84764244970313
2.1688355021688355,84.52811302322608,276.29415985271675,73.09363832614429,165.81624321038908,186.7776162871756,168.34468507426402,176.18486003297173,177.11388364844348
2.2022022022022023,84.59762158605514,274.51263748254127,73.9457025393189,166.89983667951935,186.92351359017624,168.21378181210656,175.99448149441884,177.39941861546043
2.235568902235569,84.32318165587027,271.5001806246242,74.55732174258922,167.38676596028398,186.96300638500395,168.05124635393207,175.84877548783624,177.6833742470243
2.2689356022689355,83.70239044018118,267.2773916902034,74.84178365313582,167.21151397200757,186.90347982880704,167.87180648027453,175.74403769614017,177.94487743940536
2.3023023023023024,82.73284514649752,261.8648730905164,74.71237598813929,166.30856363401472,186.7523190787339,167.69018997166782,175.67656380224693,178.16305508887388
2.335669002335669,81.412142982329,255.28322723680088,74.08238646478026,164.61239786563016,186.5169092919328,167.52112460864592,175.6426494890727,178.31703409170018
2.369035702369036,79.73788115518529,247.55305654029456,72.86510280023948,162.0574995861785,186.20463562555207,167.37933817174277,175.6385904395338,178.38594134415447
2.4024024024024024,77.70765687257605,238.69496341223504,70.97381271169743,158.57835171498436,185.82288323674004,167.27955844149227,175.66068233654644,178.34890374250705
2.4357691024357693,75.31906734201098,228.7295502638599,68.32180391633489,154.10943717137243,185.37903728264504,167.23651319842838,175.70522086302685,178.18504818302824
2.469135802469136,72.5697097709998,217.67741950640675,64.8223641313324,148.5852388746673,184.8804829204154,167.26493022308506,175.7685017018913,177.8735015619883
2.5025025025025025,69.45718136705213,205.55917355111347,60.38878107387066,141.94023974419372,184.3346053071994,167.37953729599622,175.84682053605604,177.3933907756575
2.5358692025358693,65.97907933767767,192.3954148092176,54.9343424611302,134.1089226992763,183.74878960014544,167.59506219769577,175.93647304843728,176.7238427203061
2.569235902569236,62.13300089038614,178.2067456919566,48.37233601029186,125.0257706592396,183.1304209564018,167.92623270871766,176.0337549219513,175.8439842922044
