Time,Left Shoulder Angle,Right Shoulder Angle,Left Elbow Angle,Right Elbow Angle,Left Hip Angle,Right Hip Angle,Left Knee Angle,Right Knee Angle
0.0,9.66390884103499,24.59015516125641,155.89852001678094,162.3378781094015,130.98366902302482,135.1212665871464,206.0608975195232,202.88217031456807
0.0333667000333667,10.057158503323382,24.615832477771644,155.18076504801405,162.450129096304,130.7370619301376,135.35622581669577,207.53119283961507,202.90239660332213
0.0667334000667334,10.464026073140657,24.62457587122271,154.57911772985875,162.53995232255122,130.49387885462556,135.53472716743568,208.8640096461092,202.96002101645152
0.1001001001001001,10.881917871281743,24.6169778380419,154.08827442123618,162.60900476743603,130.25501789960342,135.6604078005272,210.0647925767022,203.0524646071113
0.1334668001334668,11.30824021854158,24.59363087466151,153.70293148106748,162.65894341025145,130.02137716818586,135.73690487713137,211.13898626909088,203.17714842845643
0.1668335001668335,11.7403994357151,24.55512747751383,153.41778526827383,162.69142523029043,129.7938547634877,135.76785555840928,212.092035360972,203.3314935336421
0.2002002002002002,12.175801843597238,24.502060143031155,153.22753214177632,162.70810720684594,129.5733487886236,135.75689700552198,212.92938449004228,203.51292097582328
0.2335669002335669,12.611853762982928,24.43502136764577,153.12686846049615,162.71064631921092,129.36075734670834,135.70766637963052,213.6564782939985,203.71885180815505
0.2669336002669336,13.045961514667107,24.35460364778997,153.11049058335448,162.70069954667835,129.1569785408566,135.623800841896,214.2787614105374,203.9467070837925
0.3003003003003003,13.475531419444708,24.261399479896056,153.17309486927243,162.67992386854124,128.9629104741832,135.50893755347946,214.8016784773557,204.1939078558907
0.333667000333667,13.897969798110664,24.156001360396303,153.30937767717117,162.6499762640925,128.77945124980278,135.36671367554197,215.23067413215017,204.45787517760468
0.3670337003670337,14.310682971459912,24.039001785723023,153.51403536597184,162.61251371262506,128.6074989708301,135.2007663692446,215.5711930126176,204.73603010208947
0.4004004004004004,14.711077260287386,23.910993252308494,153.78176429459558,162.569193193432,128.44795174037992,135.0147327957484,215.82867975645465,205.02579368250017
0.4337671004337671,15.096558985388022,23.77256825658501,154.10726082196354,162.52167168580618,128.30170766156695,134.81225011621444,216.0085790013581,205.32458697199183
0.4671338004671338,15.46453446755675,23.624319294984872,154.4852213069969,162.47160616904063,128.16966483750593,134.59695549180378,216.1163353850247,205.6298310237196
0.5005005005005005,15.812410027588507,23.466838863940364,154.9103421086168,162.4206536224283,128.05272137131158,134.3724860836775,216.15739354515125,205.9389468908383
0.5338672005338673,16.13759198627823,23.30071945988378,155.37731958574437,162.3704710252621,127.95177536609866,134.14247905299663,216.13719811943443,206.2493556265032
0.5672339005672339,16.437486664420977,23.126553579247613,155.8808500973021,162.32271535683634,127.86772492498284,133.9105715609233,216.06119374557267,206.558478283871
0.6006006006006006,16.99406436609858,22.980841025695693,156.405603465623,162.3692579046557,127.88166931428586,133.68352433097348,215.81731647401688,206.8757824876261
0.6339673006339673,17.33483303187285,22.7647255068493,157.0664811615365,162.29967049153194,127.87817484427524,133.44867660593223,215.6766273230928,207.19296566337584
0.6673340006673341,17.345221694306336,22.524585996514546,157.89616148694762,162.18577463453846,127.89858791972712,133.20112489632032,215.53358885879672,207.5131467280493
0.7007007007007008,17.326734866844475,22.285808168668275,158.6520336077474,162.08480243535166,127.9146452091012,132.9646340821976,215.36839660609056,207.8114491089845
0.7340674007340674,17.246171126390543,22.058638684435543,159.186442695173,162.04391721005672,127.86415877583497,132.74946946506918,215.2167034011713,208.07727742816832
0.7674341007674341,17.21922288329778,21.84635110410272,159.56908701155157,162.04605050671725,127.83917242541123,132.57504978945468,214.9332153401689,208.3091405634106
0.8008008008008008,17.189135769531777,21.651768193325488,159.91080143645004,162.06352225176474,127.79875904031758,132.42916289045343,214.65851558288327,208.51262997590007
0.8341675008341676,17.127572662328916,21.45613726127999,160.32496768363086,162.09902474498955,127.72489175513148,132.32909185502584,214.4743826846042,208.68477569212484
0.8675342008675342,17.132000804571614,21.260170069964555,160.77341491118844,162.18034591010132,127.75223142372448,132.29905192926338,214.2304696131236,208.8094204409924
0.9009009009009008,17.119766610531016,21.071509091806263,161.24460314584613,162.31428691522865,127.8420037115704,132.34611556274294,213.9611929141883,208.88571737364344
0.9342676009342676,17.06327196142077,20.912658912152924,161.67195791445326,162.53184259091,128.00286442042906,132.45720650503722,213.6072755536454,208.92096426429617
0.9676343009676344,16.945231113368266,20.81360108588112,162.14057554491075,162.88935534676128,128.23950812735634,132.61101970554233,213.22646094994377,208.9270441113385
1.001001001001001,16.756918042703013,20.766313881974924,162.7969956475909,163.33053693679514,128.5679328139751,132.80670307026955,212.85075884939383,208.8986021935063
1.0343677010343677,16.54566439138675,20.71482582634967,163.2368289806814,163.7776599333911,128.9877280040299,133.03697647886446,212.3067348838036,208.85916430689903
1.0677344010677343,16.311510193247663,20.674910487013808,163.6030598445132,164.26760728720126,129.3538000628896,133.27798263085612,211.81943963798344,208.8154323673752
1.1011011011011012,16.115032605007364,20.63039980156867,164.0597482312801,164.81475232149023,129.70801278870815,133.57964517056757,211.3563965954906,208.73394985219383
1.1344678011344678,16.118872462441505,20.569622036022988,164.83753229385232,165.35011403531755,130.1044715393492,133.9150979344514,210.8129284622117,208.62120782263085
1.1678345011678346,16.151861239088163,20.5072217992287,165.74177407118566,165.88912607416418,130.5829306431203,134.25025072567487,210.28824354151453,208.49692861376732
1.2012012012012012,16.182991443843413,20.45195503749865,166.53078558570238,166.43189616860568,131.01711077518445,134.5892896185231,209.80989457119864,208.352290164459
1.234567901234568,16.23104978636456,20.381947374309338,167.2935509889468,166.95018852524694,131.4335906624847,134.9389364543905,209.35125493495408,208.17703910618724
1.267934601267935,16.30065062419808,20.22535427401042,168.08097941650556,167.29016974420793,131.82496289046722,135.3025826642122,208.9000778446678,207.9703186605521
1.3013013013013013,16.189626582318596,19.962101827516204,168.46583139478471,167.4505993206736,132.2362415131567,135.70085838081428,208.41669251121573,207.7329119475411
1.334668001334668,15.93953576101659,19.54593547158876,169.1032457942908,167.3720274895438,132.56588644724062,136.15837968195737,208.0140655135972,207.43971870419767
1.3680347013680347,15.636612469641138,19.065979815194407,169.61010517940295,167.19781849447315,132.85748523253923,136.63811374730437,207.6553142270973,207.1113682846962
1.4014014014014016,15.285085915250471,18.56446337289901,170.05761060564572,166.8552753175376,133.16698620241095,137.1041316349334,207.30068370003943,206.7837933867037
1.4347681014347682,15.041108333328276,18.0560924986338,170.3263811147134,166.4364211862623,133.48113159969313,137.5858353415442,206.95009184059845,206.44062206379024
1.4681348014681348,14.89133493993028,17.54876740710868,170.9001349844035,165.9767146961941,133.72957993600468,138.0196249864865,206.6759073263292,206.1115782575123
1.5015015015015016,14.76044192038684,17.105966266636084,171.4982046359459,165.43177934280305,133.85820095800145,138.37204829856458,206.5277681954232,205.82613556530708
1.5348682015348682,14.650435867962212,16.638722391116747,172.07987591732194,164.8488794938678,133.8543288905408,138.65964813966107,206.4648260590447,205.5918878935091
1.5682349015682349,14.55822780664264,16.124499692131813,172.48157186551043,164.21379167599474,133.7501258345212,138.92059681479054,206.4808117422357,205.3865499092313
1.6016016016016017,14.36609384884364,15.615590781636842,172.9469275451714,163.4450118659059,133.57058410137043,139.150051720833,206.5939778712989,205.2281847956221
1.6349683016349683,14.048952576419309,14.970354356261872,173.51104128395392,162.53623612775615,133.3531412594872,139.34928314476247,206.7990973631509,205.10244681440884
1.6683350016683351,13.545445635671294,14.256392592960369,174.0835999074217,161.6389922131997,133.07933385759688,139.52040736372263,207.0921772383055,205.0033532698554
1.7017017017017018,12.965279491283088,13.50830298597084,174.6548017803371,160.69774921769593,132.75479631034526,139.63240764220097,207.4266074327052,204.95661176056137
1.7350684017350684,12.241010346235791,12.61566605908074,175.31577904918143,159.77484007220943,132.30869568492565,139.6614712212476,207.8647440239772,204.95881450411488
1.7684351017684352,11.334122345284834,11.733603335036292,176.18690833343945,158.71314747365068,131.74546195443648,139.59953893960468,208.37307595841625,205.0105773509376
1.8018018018018016,10.319282191978822,10.728917199926649,176.86209402919144,157.870091826195,131.04359939778053,139.49083769101975,208.9486415128042,205.08980828247425
1.8351685018351689,9.3322520454721,9.667876442027357,177.1734979426971,157.15383616607792,130.2249688256182,139.38244096290234,209.6163861073185,205.1628690787442
1.8685352018685355,8.502996983276176,8.392213807833445,178.77231520857455,157.11388676024347,129.2969849709945,139.279184731701,210.3585730647455,205.233006982521
1.901901901901902,7.753652790477013,6.598050659969282,180.03171309491398,154.45240690324215,128.31112023363997,139.16168080606838,211.18585339708304,205.31774882794508
1.9352686019352687,7.186885971609079,5.311836540637897,181.1196398747491,152.8256880937114,127.2678438219209,139.01631458153236,212.154388725922,205.42051680655047
1.968635301968636,6.714712294133478,5.153387000893016,182.92241474187657,154.7366295268447,126.20856409054473,138.8806817587959,213.10479447717503,205.51838575632016
2.002002002002002,6.296417386487134,5.218196010811392,183.3683133419344,155.62260883537118,125.23294836769468,138.742174623639,213.98341463860072,205.61773042420012
2.035368702035369,6.40001585710095,4.214157490590565,183.01781555316657,151.41396319614407,124.28543509095962,138.6034132364087,214.8164841454782,205.7203244694917
2.0687354020687354,6.549176105200914,3.6918875895429215,182.58045597755424,148.01377626094,123.36445020032644,138.45290834837454,215.60124496891768,205.8273798901838
2.1021021021021022,6.977438473670208,3.5025124355808286,181.825716397402,145.31886587812224,122.50567810367424,138.28014023517056,216.38292520828355,205.9441606849144
2.135468802135469,7.599454856809208,3.5025124355808286,180.8334008544216,143.21439048529572,121.660597689968,138.09844410187614,217.11809336506025,206.06860615724864
2.1688355021688355,8.143151547654028,3.5025124355808286,179.45892554635134,146.01823935797185,120.83457299446614,137.88856916658614,217.7647682046077,206.2181356698292
2.2022022022022023,9.034525497067772,3.5025124355808286,178.15508167936642,147.90988792444105,119.87246160589962,137.6802624464733,218.51458674459164,206.3437308567087
2.235568902235569,10.07574041067415,3.5025124355808286,176.84286102154766,148.5290530007854,118.96272367825948,137.52083013044876,219.17359212352332,206.4326755211389
2.2689356022689355,10.995763163168135,3.5025124355808286,174.95995745593763,148.5614788971017,118.16273486903016,137.3549924407005,219.8145193385887,206.5037116521362
2.3023023023023024,10.89891511723682,3.5025124355808286,171.48244914561246,148.01263477747403,117.449494196313,137.20618552734223,220.4899781318389,206.5679578380923
2.335669002335669,10.553094963975756,3.5025124355808286,167.6213050852383,147.09237314164983,116.83919364250056,137.07625490668357,221.13493585396984,206.6116502168588
2.369035702369036,10.316990500409752,3.5025124355808286,163.24662587142228,145.62248444984118,116.40339474453212,136.9989880357862,221.70918264688373,206.6179500758726
2.4024024024024024,10.508988903787582,3.5025124355808286,158.8597006470592,143.65973469586257,116.06546963521303,136.9767570004594,222.2261377198878,206.59048981012648
2.4357691024357693,11.429260383656416,3.5025124355808286,154.72760395919516,141.93190821074964,115.97973777271774,136.94523812005542,222.67674211874493,206.5406600253345
2.469135802469136,12.577619159886828,3.5025124355808286,150.66590216469712,134.29836958197706,116.1869775145467,136.86589729967045,223.1403042983002,206.46832548850657
2.5025025025025025,13.382522683004895,3.5025124355808286,146.06001209673542,127.78090367705762,116.53096685306754,136.7530115020226,223.6022181201828,206.41691026380929
2.5358692025358693,14.163422362808172,3.5025124355808286,141.29425225480426,129.28060154643217,116.98949419753026,136.61806761520128,223.99527518253709,206.39920852024744
2.569235902569236,15.1604953296293,3.5025124355808286,136.75156970915555,129.07018340986434,117.53796976732733,136.4829081017818,224.3268483026181,206.38288791394672
2.6026026026026026,16.27520448993331,3.5025124355808286,132.34850722389018,127.891013329443,118.1406496171364,136.36225046274723,224.607373817972,206.3782551566032
2.6359693026359694,17.511661585247065,3.5025124355808286,128.33071921613538,121.34573193315418,118.83376489389698,136.26720039247252,224.7861670088242,206.3664725377041
2.669336002669336,18.84051750966793,3.5025124355808286,124.62532657962105,114.78406781155624,119.57367350760886,136.1932232239665,224.9506746811497,206.3567158476612
2.702702702702702,20.17352688226188,3.5025124355808286,120.95571135668744,107.877092808968,120.37828893104243,136.1368965293325,225.1274055168015,206.3644932969706
2.736069402736069,11.831413077255146,3.5025124355808286,117.69773888937404,106.77537222108576,121.15608997029334,136.1111202169595,225.29945257745527,206.37524127115785
2.7694361027694363,6.844154138472349,3.5025124355808286,114.74450158681448,105.84812545605448,121.86270762766836,136.1091327648646,225.4221886228464,206.3867417103317
2.802802802802803,4.721448069196143,3.5025124355808286,112.43509807461454,104.16605833174788,122.52545607655122,136.13439934336364,225.50815827278552,206.4025948748256
2.836169502836169,4.721448069196143,3.5025124355808286,110.83244232856084,103.08927164972305,123.11454465010029,136.1742879480132,225.5456508146563,206.4307687131223
2.8695362028695364,4.721448069196143,3.5025124355808286,110.03190035133588,101.32855938598108,123.619763780166,136.2270302003059,225.5358225149264,206.43845316843075
2.902902902902903,4.721448069196143,3.5025124355808286,110.00431518271112,100.31291135039665,124.06095903376092,136.29168119407151,225.4836199244762,206.42323708728892
2.9362696029362696,4.721448069196143,3.5025124355808286,110.51316054128552,100.18527627000016,124.40771352078274,136.38241341938817,225.4440060967351,206.37686535871583
2.9696363029696364,4.721448069196143,3.5025124355808286,111.89833803287324,99.3642928627642,124.6273782342146,136.4850788592953,225.44082068682465,206.3058056685365
3.003003003003004,4.721448069196143,3.5025124355808286,114.54135481375206,97.83636046848795,124.6858930682533,136.59167179417176,225.47567636881192,206.21413650054936
3.0363697030363697,4.721448069196143,3.5025124355808286,116.37146614158377,94.987229479306,124.56144048802616,136.66998877356357,225.5529236547345,206.1218603654364
3.0697364030697365,4.721448069196143,3.5025124355808286,118.67174897995233,94.56312740575562,124.28925559277964,136.72941605483743,225.6560339643159,206.0250479096158
3.103103103103104,4.721448069196143,3.5025124355808286,121.29785644042305,93.22453788523458,123.90647301396628,136.78533788562217,225.7606185527795,205.9178799637235
3.1364698031364697,4.721448069196143,3.5025124355808286,122.92117997526644,87.43115568880475,123.45636477336672,136.8225402685426,225.90673582141247,205.8052059514348
3.169836503169837,4.721448069196143,3.5025124355808286,125.38770864701652,80.73505738831912,122.88430181281048,136.8428987833742,226.12171837870525,205.6876602981488
3.2032032032032034,4.721448069196143,3.5025124355808286,128.5164243722577,78.7798157190797,122.1735472647793,136.84793843748022,226.4211583554187,205.5666373787712
3.2365699032365702,5.208041847869225,3.5025124355808286,131.62744061752915,75.61327503878546,121.38912065298145,136.83357822862817,226.7667127474014,205.4275614477623
3.2699366032699366,8.00840430196275,3.5025124355808286,134.89035629512733,73.29272712488648,120.49762058728884,136.79795234835368,227.1601256336262,205.2883419288048
3.3033033033033035,12.94237578382531,3.5025124355808286,138.1391811109588,72.93229697717395,119.53088950434376,136.76771851556572,227.5481118144658,205.0865839127516
3.3366700033366703,20.00928075516504,3.5025124355808286,141.4073869129476,69.2064430186681,118.50005633749726,136.77954318237408,227.91138156720865,204.818507693448
3.3700367033700367,29.034836250603963,3.5025124355808286,144.00684074501788,65.78906811254632,117.54593659154806,136.8023434592783,228.1757868551801,204.5560602606132
3.4034034034034035,39.83373127920805,3.5025124355808286,145.58862733360365,61.74912526776377,116.73923117438822,136.79422699574388,228.5039799336472,204.34850727798656
3.4367701034367704,52.11469739658993,3.5025124355808286,146.5875583499669,58.09707929534894,116.00972788178672,136.71407922601443,228.8265084270139,204.21181569662443
3.4701368034701368,65.71175869942199,3.5025124355808286,148.39574833897242,54.24101312994319,115.35444310716343,136.5949799600031,229.1482054607053,204.14169859942592
3.503503503503504,80.3984029866952,3.5025124355808286,150.77146331695317,49.72864975447928,114.538428529196,136.42534349098443,229.52738271547827,204.12692180979616
3.5368702035368704,96.05359735771442,3.5025124355808286,152.77731940650608,44.857670718815,113.94568218772352,136.19131962501058,229.98753554835312,204.15303179893047
3.5702369035702373,112.60876682150268,3.5025124355808286,154.376049684956,33.64453379609383,113.60977291438095,135.67619307313836,230.5221479801557,204.2664386626054
3.603603603603604,129.38825935187074,3.5025124355808286,155.501537203482,28.432748919032456,113.37459042976954,135.14176644703983,230.9761158449619,204.49516878191548
3.6369703036369705,146.48272729204416,3.769048244854911,155.5167249241148,25.12139625518237,113.19485101769888,134.62704422684527,231.4817092513082,204.8233863575791
3.670337003670337,163.44579613527858,3.769048244854911,156.10624573264533,28.441113945231905,113.18452835729236,134.31275666311265,231.78252991784828,205.23538128126413
3.703703703703704,179.99219534815813,3.769048244854911,152.88187286538542,24.579740543635005,113.40431991880384,134.0402937108331,231.9495411217869,205.7632507460428
3.737070403737071,196.2543479512282,3.769048244854911,152.00614143904497,19.650024276626755,113.84318515085192,133.75401769767402,232.05504146743428,206.3739434004562
3.770437103770437,211.5795714039616,3.769048244854911,152.57486017231597,16.50805296052497,114.33515259634387,133.47293586716,232.08155196092065,207.0391529441329
3.803803803803804,225.855132306117,3.769048244854911,153.4069038781724,18.837840227860823,114.905741189216,133.23797082745014,231.97836314978537,207.7561994317857
3.8371705038371706,239.0748683346964,3.769048244854911,147.83811450217226,23.62373116367648,115.49652208292248,133.02892024531934,231.7747211414801,208.5214577022957
3.8705372038705375,252.1497410673313,3.769048244854911,143.7295555065017,31.536295048615187,116.08520063234567,132.82413866710712,231.3900462025229,209.3434517286593
3.903903903903904,273.6079298747533,3.769048244854911,143.79333121910153,35.606298564482,116.71814945194156,132.608634075481,230.79797251246464,210.2014520249784
3.937270603937271,291.6615671801192,3.769048244854911,144.19810588737667,39.74651202728474,117.43779524836268,132.4543751471983,230.0295626487292,211.0703475752482
