Time,Left Shoulder Angle,Right Shoulder Angle,Left Elbow Angle,Right Elbow Angle,Left Hip Angle,Right Hip Angle,Left Knee Angle,Right Knee Angle
0.0,10.005765114470142,154.55966061996182,187.30887084907505,156.30906898976505,159.66094879903164,188.29735317137428,178.689251792761,190.98642842243072
0.0333667000333667,9.694747269108689,159.59131018167113,186.2113741960493,156.55743954378676,158.65812197750324,188.73863100851912,178.75488010292898,189.9147387945173
0.0667334000667334,9.393544658300852,164.6121109634739,185.2818334263832,156.51910159270605,157.69581133041078,189.173421479823,178.94905024546603,188.8965960640552
0.1001001001001001,9.107021739091852,169.60654722869705,184.50815618815187,156.22079620925592,156.7748278508134,189.60064570416665,179.2610687380453,187.93079357354657
0.1334668001334668,8.840042968526909,174.55910324066753,183.8782501294305,155.68926446616933,155.8959825317704,190.01922480043064,179.6802420983398,187.0161246654936
0.1668335001668335,8.597472803651247,179.45426326271215,183.3800228982944,154.95124743617933,155.060086366341,190.42807988749576,180.1958768440225,186.15138268239852
0.2002002002002002,8.384175701510083,184.27651155815795,183.00138214281847,154.03348619201884,154.26795034758447,190.8261320842427,180.79727949276656,185.3353609667637
0.2335669002335669,8.205016119148642,189.01033239033177,182.7302355110781,152.96272180642092,153.52038546855997,191.21230250955205,181.4737565622449,184.5668528610913
0.2669336002669336,8.064858513612142,193.64021002256047,182.5544906511484,151.7656953521185,152.81820272232676,191.5855122823045,182.21461457013064,183.8446517078834
0.3003003003003003,7.968567341945807,198.1506287181712,182.46205521110448,150.46914790184462,152.16221310194408,191.94468252138088,183.0091600340968,183.1675508496424
0.333667000333667,7.921007061194857,202.52607274049052,182.4408368390216,149.0998205283323,151.55322760047116,192.28873434566168,183.8466994718164,182.5343436288705
0.3670337003670337,7.927042128404512,206.75102635284568,182.47874318297485,147.6844543043144,150.99205721096723,192.6165888740277,184.7165394009625,181.94382338807
0.4004004004004004,7.991537000619994,210.80997381856332,182.5636818910395,146.24979030252408,150.47951292649154,192.9271672253596,185.60798633920808,181.394783469743
0.4337671004337671,8.119356134886525,214.6873994009706,182.68356061129063,144.8225695956942,150.0164057401033,193.219390518538,186.5103468042263,180.88601721639185
0.4671338004671338,8.315363988249326,218.36778736339423,182.82628699180347,143.42953325655785,149.60354664486172,193.49217987244367,187.4129273136901,180.41631797051863
0.5005005005005005,8.584425017753617,221.83562196916125,182.9797686806532,142.09742235784796,149.2417466338261,193.74445640595724,188.30503438527256,179.9844790746257
0.5338672005338673,8.931403680444618,225.0753874815985,183.1319133259149,140.85297797229754,148.9318167000556,193.9751412379594,189.17597453664675,179.5892938712153
0.5672339005672339,9.36116443336758,228.07156816403457,183.27062857566543,139.7229411726407,148.67456783661072,194.1831554873324,190.0150542854872,179.22955570279117
0.6006006006006006,9.79904795708432,234.36697189032225,183.2283767081041,138.72404585820735,148.5306255133397,194.51265680725825,191.0820721510394,178.7019075717918
0.6339673006339673,10.231103303339896,241.31507065836013,183.17632137396788,137.75978611226466,148.33636018164916,194.6442586315552,191.873356686174,178.54737856599246
0.6673340006673341,10.641419196616065,249.8186078492335,182.9951220492933,134.70465443488482,148.1363183771511,194.67846758894143,192.5653556389763,178.34760470764434
0.7007007007007008,11.008009359120695,248.93543046856803,182.73480774752983,136.75585583164292,148.08223424525298,194.51730322541377,193.09354808740304,178.3544162765068
0.7340674007340674,11.653394433321797,243.71914325150732,184.2163664435556,137.61577531745084,148.34803912282888,194.8866123004053,193.17014939562304,177.92814308422436
0.7674341007674341,15.006738464050676,236.7925137856577,182.67704717341903,140.85482337583443,148.9443664375676,194.7884687692336,192.5324768672901,177.7837800050556
0.8008008008008008,16.65529208022203,237.7922712691196,181.6914031535502,145.3157198904034,149.2936330492392,194.80640362485065,192.26175222997972,177.716722998944
0.8341675008341676,17.807311424908384,243.44929894692007,180.8054445098477,145.4439307793266,149.57377564104365,195.0115120583717,192.12074325214743,177.55602313691455
0.8675342008675342,19.191339089627053,247.6484924080859,180.10276861473585,150.95309778024244,149.69571348264245,195.082285301768,192.2626137879128,177.45595000771917
0.9009009009009008,20.65583181581353,240.6048053951516,179.58581497189869,149.18800734155326,149.82977503287344,195.0312343085878,192.4749544205612,177.40483011183792
0.9342676009342676,22.17881680309955,234.171697972436,178.98744870950443,147.7090147859158,150.05908253962588,194.9723397129932,192.64711416642336,177.30275650285472
0.9676343009676344,23.73555306798581,228.31128362873488,178.65102484746566,146.6339483324184,150.315252125162,194.88966389649568,192.8107052667539,177.13527526636878
1.001001001001001,25.442788611540333,222.96961568948308,178.4002833944422,145.98409194543856,150.64024757898935,194.7223317207988,192.82773075060305,177.0459800776596
1.0343677010343677,27.189711026204176,218.120979341924,178.48709300583187,145.775226689137,151.00977061634396,194.49111983735816,192.7269076788748,177.01112160674384
1.0677344010677343,28.95710289598233,214.16271060363965,178.38047302573418,143.95391218178258,151.41129462739127,194.25784400888992,192.53638286958287,177.0188553737905
1.1011011011011012,30.67859251320631,210.88341963440087,178.27851328602011,142.3888639234035,151.8675471346199,194.0939217055759,192.23629250131825,176.8756518283573
1.1344678011344678,32.32025988869218,207.96360586444845,177.85936086203353,142.18967585141473,152.34309138392769,193.9327394871165,192.11121896093263,176.82415603795036
1.1678345011678346,33.66538924850333,205.65205691494955,176.95047106606737,142.35601951687545,152.80131027841506,193.6382176940416,192.0188609823809,177.2545553053839
1.2012012012012012,35.025483913489246,204.56059254286083,175.72265970114864,140.7813738728246,153.0760288011044,193.1452510750726,191.97062209578849,177.74768992999054
1.234567901234568,36.20503729217053,204.12395706127484,174.36830508766354,140.5472087822316,153.29286357330517,192.54671085689748,191.8793388985935,178.31860708838516
1.267934601267935,37.44444149618892,204.1311514657087,172.60494054395838,140.00157074899303,153.5304167592602,191.8899455962304,191.7136245996269,178.96088741714206
1.3013013013013013,38.68699633899173,204.6223854469276,170.93357677963422,140.27768497997556,153.74347289702612,191.1693950211968,191.5017459922128,179.5206504423751
1.334668001334668,40.16929099760365,205.55049331415788,169.30328810915694,140.93712385586412,153.93956784352545,190.3733360666268,191.2577936459834,180.04488466609268
1.3680347013680347,41.56009888461694,198.1210724392207,167.63175434167175,139.40708244536742,154.1395438992362,189.54521286079768,190.9696009503926,180.5810291029983
1.4014014014014016,43.24453355113479,198.2130402997012,166.12753153149595,139.19254077413208,154.1720458406826,188.7384489810032,190.87997060721253,181.11371384817343
1.4347681014347682,45.0160208184452,198.53242150200705,164.91529780673395,139.3865426468139,154.10718412150288,187.9364983639205,190.9020779378257,181.64776727577183
1.4681348014681348,47.064123049235846,199.27631847375744,164.0073773650982,139.74963507311517,154.12135237737135,187.1649278498475,190.92202096489663,182.1856773072672
1.5015015015015016,49.11571468476182,200.54071218245383,163.37740290964797,140.1642107563986,154.1838516538243,186.4821221103864,190.91748873938863,182.6524644500761
1.5348682015348682,51.26358947730687,202.248847974965,162.66009892239398,140.6842215991784,154.30907598680187,185.8803733933683,190.88848177422383,183.1325832866756
1.5682349015682349,53.49937607051445,204.58098245419865,162.10343247240263,141.23641336660617,154.4081146929826,185.2884310442588,190.822255178601,183.71735500941
1.6016016016016017,55.81977473802807,207.17730636331245,161.29551405410456,141.93360996819948,154.5908031856837,184.83945385386207,190.6950247256304,184.29183784709548
1.6349683016349683,52.91307475780563,214.3479506821751,160.0421066265989,139.92781265316202,154.59689185126382,184.7505065995652,190.55142103456367,184.7475767094789
1.6683350016683351,51.817002674397344,219.63282298521307,159.18453652231983,139.65820019232436,154.66391533845947,184.6289956788136,190.3905408749576,185.20631070632663
1.7017017017017018,52.032178247779285,225.7198245993853,158.89580748615816,141.06663209649005,154.57523149256855,184.58867967651256,190.1921978064755,185.7632816480812
1.7350684017350684,54.113785304129536,230.63296624409747,158.6830312268907,143.34410419482597,154.63037724327248,184.6012310546251,189.92898356647103,186.40247545254377
1.7684351017684352,57.58823600027488,234.86119388335263,158.17665687114172,145.64297730580606,154.96414559294882,184.41404347999864,189.6748082010122,187.05665412030964
1.8018018018018016,62.63567020633445,238.39852745393063,158.05208633753256,148.87388596654378,155.46973829740088,184.12104714438465,189.40944375179345,187.71780907763184
1.8351685018351689,68.16848536659379,241.11507050659063,159.45914600921645,152.77326555845465,156.04060405709805,183.8617417476298,189.15394682581416,188.30595460004795
1.8685352018685355,75.02524226580691,243.2288230427614,159.70879612932166,157.32011228970578,156.68629556034531,183.60693026640644,188.9136174188536,188.87636029321607
1.901901901901902,87.33061818982988,239.78727266249496,156.33984399026983,164.2676511143872,157.55813891341504,183.2962093476785,188.725390042988,189.49093358596983
1.9352686019352687,98.77428459402476,237.6253253983364,154.33466651420397,171.01038422959817,158.45605957384782,183.0067780428233,188.557337000844,190.1540616857776
1.968635301968636,109.20532882701276,226.50077550506148,152.56311068127812,172.9110940458562,159.48161266620428,182.65423287578136,188.4081577706293,190.781495196746
2.002002002002002,118.8241849218534,214.0117179690877,151.92810387569017,178.10675101237698,160.54633518632608,182.11671358654257,188.18736012775707,191.38175039102453
2.035368702035369,127.51429893953876,198.42913321350304,151.98727140616273,175.89354201679063,161.53312235596186,181.61251874208665,187.99847496805265,191.944141962868
2.0687354020687354,135.66056971621967,192.4656026692584,153.27345347914468,179.11861695390118,162.35264260044215,181.1840375563672,187.8589572631439,192.47599445846163
2.1021021021021022,143.26060177090022,187.22846780064563,156.90943363434707,181.9029012654076,162.98653722372447,180.81022043518573,187.78991057853816,192.98008817148656
2.135468802135469,149.39856402850498,182.83551551071608,161.9965845026608,184.1237490101516,163.5042037160572,180.43795681768864,187.7505094906775,193.5559873757829
2.1688355021688355,156.62031224624067,179.14569385810572,166.75658538200716,186.11703257767323,163.810482067025,180.18074540991324,187.7457281849536,194.03383710224932
2.2022022022022023,163.04809892246453,179.87296121606445,171.00620099337212,185.6641144612054,164.0281389515932,179.91924624100548,187.7777260937403,194.55867059098784
2.235568902235569,168.72170327305778,176.57452819359852,175.62033567533712,187.92947150386527,164.1224527160001,179.65163339015874,187.82786718110185,195.1154247601701
2.2689356022689355,173.01343544196567,174.11941826625443,180.457495603682,189.79396806987648,164.13948308811425,179.23024069991078,187.91051374081425,196.01565256519729
2.3023023023023024,176.39458914572845,172.68334805319222,185.15143272520595,191.22674574237453,164.04112517039806,178.69963554550822,188.0503082928629,197.07701181362344
2.335669002335669,176.45390827568565,173.2057228810964,191.603766235656,191.84482398276424,163.890937641789,178.1441672495715,188.2273456104626,197.88609875977167
2.369035702369036,178.60795285221533,172.86175280207945,196.3334747385909,192.60793658703548,163.69305478697785,177.73287677809554,188.4633614158218,198.654243238053
2.4024024024024024,180.340152153949,173.38827292555928,200.8301071516881,192.7583117653216,163.4319839879547,177.36883906859768,188.73591322035523,199.3345055601923
2.4357691024357693,176.97018243180392,178.68275604594697,208.51645604312955,189.3043784627787,163.05078398983375,177.481041872191,188.67227417922783,199.9695754972128
2.469135802469136,174.0577081205045,183.296719217943,214.9069270307401,186.3763817928956,162.86151035606923,177.62246998889736,188.49955550352053,200.73969398971505
2.5025025025025025,170.9057533100694,187.93856339882447,220.16244670280904,183.89213304086056,162.78882874652496,177.59252425909935,188.5618141640931,201.56448016883067
2.5358692025358693,168.06074670439796,192.2836036461537,224.5993171792743,181.7345313221976,162.41317695318804,177.59061886411797,188.94473900790908,202.3216852325988
2.569235902569236,169.6661899866931,191.68359617275647,225.5171168770389,182.8550221791313,161.9420085211584,177.4409321700731,189.71870376308271,202.917698376141
2.6026026026026026,170.2437041899976,192.30373507853207,226.1198505281289,183.1510955626757,161.2572289356451,177.45269660922403,190.61538281828123,203.3866373219317
2.6359693026359694,169.21036222497673,193.9910394386517,226.68074569004207,182.7091608128933,160.59442007274995,177.7917028805168,191.4531697729437,203.6769500508652
2.669336002669336,166.88252789582916,196.7726476868756,227.0505094253917,181.6128307973688,159.82793539349728,178.22723195505816,192.3175157772211,204.0116590351764
2.702702702702702,163.36672742016887,200.67995143681463,227.01347753931,179.92697664483734,158.9596233080368,178.70098139837964,193.17269118251087,204.3599647770612
2.736069402736069,158.55368145436194,205.3705623847847,226.4598307622323,177.71688221858588,158.05068995412736,179.34423097511592,194.01253731732325,204.58828211233265
2.7694361027694363,152.2477026659401,211.17724249845023,225.768256344316,174.87999702774857,157.02672459112392,179.94077359369507,194.82792820961683,204.9111634082872
2.802802802802803,151.53893892099666,212.42173077138705,225.59127343551424,175.32627493649036,156.21008059687315,180.22732009687752,195.59227604440585,205.3528379152673
2.836169502836169,150.86288477804894,214.52393714551064,225.0809591484553,175.4450267968421,155.48438189586847,180.5412066899817,196.220771492023,205.56301596493532
2.8695362028695364,150.94367793506717,214.504812148551,223.6402821747698,175.0713358575769,155.10094812540734,180.6938918442177,196.74853828762264,205.59767564749347
2.902902902902903,151.9238347862911,213.91232326057883,221.20359641889547,174.72668865342754,154.91737365992574,180.602220977714,197.2253141163023,205.6645692148209
2.9362696029362696,153.64924361037453,212.2871108315074,219.0341361068841,175.34648520146035,154.68805702476195,180.51390388715183,197.6356782402304,205.71673441833013
2.9696363029696364,155.90358411327253,209.4889186773968,221.1688123508416,176.20025775862308,154.56644554800067,180.4856596049832,198.0159137518473,205.73336086268543
3.003003003003004,159.4567676624272,205.7047781520528,219.73570424883664,177.50081704221174,154.55550005941447,180.34876765100972,198.31748711808623,205.75862204325568
3.0363697030363697,163.65161864752272,200.7760627484904,216.14312760366803,179.13544253702193,154.53555974468276,180.188969421908,198.57300938173407,205.71168179460764
3.0697364030697365,162.28347886635524,201.31406883945704,215.51544421516508,178.7376829031634,154.38325357292342,180.14170218174056,198.7110724010919,205.50063213892835
3.103103103103104,161.15630645611546,202.0646204981256,213.7208582881764,178.46886187094796,154.18344651625742,179.99331714186968,198.7811018453885,205.4392613476655
3.1364698031364697,159.3530712662732,203.41401965651264,212.6345181646663,177.65048626856063,153.83060884186796,179.9058760583503,198.76160242089168,205.19827944204525
3.169836503169837,157.22411756742076,205.09550777844817,211.26864090018444,176.38656470048238,153.30297678244233,179.89734546348987,198.80326995896868,205.00745890143827
3.2032032032032034,154.49260516077038,207.136273680333,210.5849119595388,174.80285510318708,152.87506138766736,180.03277021015683,198.660647660531,204.54569978672387
3.2365699032365702,150.37836140452134,209.5675860000553,211.4869715958408,172.9877695828739,152.44181365283157,180.2537999784084,198.4875592215803,203.74490239240183
3.2699366032699366,146.37350165794908,212.31678404663745,209.48666403968963,171.16265578213694,152.1099596055279,180.56224022979947,198.19543093317336,202.71044706770672
3.3033033033033035,143.23573611354877,215.3365093466217,209.0716194187685,169.42984167858455,152.12021872272604,180.85500188454057,197.7398890665201,201.6926804767704
3.3366700033366703,137.50437977501494,218.6473066713283,207.83711401070624,167.67594422651044,152.35030499828062,181.1231830277972,197.1185127687913,200.6769858792855
3.3700367033700367,130.60629995171806,217.6057138169416,200.0320431510212,168.58043605756683,152.5648773411198,181.4280590102298,196.3427736019003,199.589047747643
3.4034034034034035,122.43039807927433,220.6712866688977,193.40354653230224,166.86062138787725,152.75473355679162,181.8140908404106,195.46804514762425,198.36051424082245
3.4367701034367704,113.91320052893488,223.94822634385872,187.0927267671714,166.58253079900865,152.77987359566256,182.3046861408818,194.7356828769988,197.02154098741656
3.4701368034701368,104.52250878274543,227.5129772552352,181.9045644011296,163.81157296362605,152.80068320000282,182.9411937918716,193.9673196722388,195.6035797796106
3.503503503503504,98.49575994874571,229.97547518543885,176.14968715228528,161.413649645464,152.86031187129262,183.45290077737448,193.21826435602807,194.22733092903653
3.5368702035368704,89.61907424752201,233.9250582135584,172.8335792645846,158.3183676178426,153.00240399255352,183.98888739774893,192.34851428417872,192.8426064017627
3.5702369035702373,79.82390408010541,237.92809018610944,170.7867022948458,155.17159279859925,153.2115033997168,184.8572000293948,191.46137096893187,191.368883109443
3.603603603603604,74.75935992264365,236.83113964937044,165.64517695444962,155.96853223942637,153.52371239191618,185.35312233680543,190.97696161240097,189.8360927268729
3.6369703036369705,69.89791251927548,234.84069014877844,160.63687297046934,157.4818341560437,153.46575167539532,185.7388627571315,190.88621587906104,188.4160320289916
3.670337003670337,66.55433148623455,231.2576644968317,155.54231347373488,159.7552126098012,153.10216879897186,186.31099925834187,190.84108076255484,186.82956170335177
3.703703703703704,64.52479981593012,226.08699148657087,150.08302551323052,163.0113854308663,152.8393825880288,187.0946823002529,190.71020142712635,184.98656997702184
3.737070403737071,58.145202045037614,225.635129220148,148.22586638845874,163.1572788096684,152.61524406056384,188.1517820414336,190.15863170607247,183.14944763649967
3.770437103770437,51.37113032906287,225.2652300699468,147.1624274684678,163.2632073786511,152.69284502625115,189.31737430627032,189.3837279552524,181.3243116161371
3.803803803803804,45.64604185645787,225.14615422868928,146.28814325472226,163.30821207323166,152.81643683702342,190.28824377487464,188.4504457253065,179.6463076441527
3.8371705038371706,39.578975184233485,225.41842717423543,146.58577440622105,163.12748408887472,152.77987156067763,190.82635064686696,187.5093128547521,178.37601594384182
3.8705372038705375,33.86187787879851,225.89758382709925,148.0418425354875,162.78438666669723,152.73185806209236,191.099213473048,186.4563332280016,177.33686927185056
3.903903903903904,28.08111836057416,226.732014980624,150.81964224836474,162.21586751532672,152.60520790951986,191.2833365986905,185.33720541025784,176.3854729882753
3.937270603937271,23.24163053981698,227.61367250265545,154.54790259109177,161.73837264409318,152.5531503508629,191.42621344164263,184.1128082781134,175.38658397351705
