Time,Left Shoulder Angle,Right Shoulder Angle,Left Elbow Angle,Right Elbow Angle,Left Hip Angle,Right Hip Angle,Left Knee Angle,Right Knee Angle
0.0,38.18626452662789,53.51071667876592,186.78066560566523,173.9077977951247,136.13279080547682,129.41583009419418,193.84814632362475,189.37644764133472
0.0333667000333667,38.43378105142514,53.104701370236896,187.011941358167,173.7412678921674,137.1945259327936,129.68147247798484,192.3551034354974,190.57134719618972
0.0667334000667334,38.63165747454168,52.68249972866672,187.2015098857217,173.55773158171985,138.01843468484617,129.9310649602226,191.16177578138507,191.5772056552869
0.1001001001001001,38.78086335395868,52.24292614245104,187.35314689017,173.3585019082182,138.62031377409946,130.16579561439931,190.2514158612227,192.4056173774038
0.1334668001334668,38.88236824765731,51.78479499998548,187.4706280733528,173.14489191609852,139.01595991301838,130.38685251400685,189.6072761749453,193.06817672131783
0.1668335001668335,38.93714171361875,51.30692068966568,187.5577291371106,172.9182146497969,139.2211698140679,130.59542373253706,189.21260922248777,193.5764780458065
0.2002002002002002,38.94615330982417,50.80811759988728,187.6182257832844,172.67978315374947,139.25174018971296,130.79269734348182,189.0506675037851,193.9421157096474
0.2335669002335669,38.910372594254746,50.28720011904592,187.65589371371465,172.4309104723923,139.1234677524185,130.97986142033298,189.10470351877223,194.176684071618
0.2669336002669336,38.83076912489166,49.74298263553723,187.67450863024231,172.17290965016147,138.85214921464942,131.15810403658242,189.35796976738413,194.2917774904957
0.3003003003003003,38.70831245971608,49.17427953775686,187.67784623470808,171.90709373149312,138.45358128887074,131.32861326572197,189.79371874955572,194.29899032505827
0.333667000333667,38.54397215670917,48.57990521410043,187.6696822289526,171.6347757608233,137.94356068754735,131.49257718124355,190.3952029652221,194.209916934083
0.3670337003670337,38.33871777385213,47.95867405296359,187.65379231481668,171.35726878258814,137.3378841231442,131.65118385663894,191.14567491431805,194.0361516763475
0.4004004004004004,38.09351886912612,47.30940044274197,187.63395219414107,171.0758858412237,136.65234830812622,131.80562136540007,192.02838709677863,193.7892889106292
0.4337671004337671,37.80934500051232,46.630898771831205,187.6139375687665,170.7919399811661,135.90274995495838,131.9570777810188,193.0265920125388,193.48092299570573
0.4671338004671338,37.487165725991886,45.92198342862695,187.5975241405337,170.50674424685144,135.1048857761056,132.10674117698696,194.1235421615334,193.1226482903545
0.5005005005005005,37.12795060354602,45.181468801524815,187.5884876112833,170.2216116827158,134.2745524840328,132.2557996267964,195.3024900436976,192.72605915335305
0.5338672005338673,36.73266919115588,44.40816927892046,187.5906036828562,169.93785533319527,133.42754679120495,132.40544120393903,196.54668815896613,192.3027499434789
0.5672339005672339,36.30229104680299,43.60089924920997,187.60764805709448,169.65678824272743,132.57966541008813,132.55685398190775,197.83938900727568,191.8643150195111
0.6006006006006006,35.852532742436004,42.77992548224677,187.670248376898,169.30232830129165,132.37432836671496,132.6843120576266,198.7170206466413,191.49848943613333
0.6339673006339673,35.370695771098966,41.81127772843968,187.79979359383964,168.96557101361768,132.1640325387751,132.90333495471808,199.6641960348533,191.15171173111148
0.6673340006673341,34.82728791453206,40.80261468589897,187.8870542477616,168.50860614652356,131.88970139426456,133.1274260840521,200.61165722578525,190.9439546995964
0.7007007007007008,34.213950545321254,39.72104140199728,187.9875209671948,168.13432043029428,131.53290201871087,133.35269985686406,201.65072583116304,190.8240494064434
0.7340674007340674,33.577631517534854,38.69050507409941,188.04047642890723,167.9217729081457,131.07932733905471,133.56796170193562,202.78629780909463,190.7232454245939
0.7674341007674341,32.93307366719773,37.636759037979445,188.22223538240115,167.78891238821927,130.55487695658985,133.7531052436895,204.0470266908812,190.67824888027985
0.8008008008008008,32.277857646023875,36.92041231041945,188.4942992903598,168.24728227329246,130.0480458225873,133.90634167506917,205.2689790122128,190.635314241084
0.8341675008341676,31.593947817224763,35.99736681633619,188.84655333638813,168.5598047094184,129.51534587886064,134.0875060063353,206.4929244928736,190.5843075784514
0.8675342008675342,30.97910014923213,34.93658255624533,189.4234366931353,168.55625399854154,129.0111465973655,134.2246145670339,207.6800198465656,190.6396812385204
0.9009009009009008,30.32066248360516,33.76699928923836,190.0558961304052,168.55927857090813,128.45094001431045,134.4151709436129,208.8416483281493,190.6567186499637
0.9342676009342676,29.64161564296269,32.660009996586204,190.5781746894732,168.68978579910396,127.81280175849956,134.67357985440287,209.96882997790172,190.6331937510537
0.9676343009676344,28.90633037597772,31.429795992686174,191.12940345985,168.79043284517186,127.08927638052413,134.99595997108293,211.05403376573105,190.5630654987701
1.001001001001001,28.270903206445382,29.91829299670247,191.77856512835265,168.8994200135512,126.29938894231992,135.28551388005968,212.0384908796632,190.4708568908144
1.0343677010343677,27.58366651456084,28.273966109339213,192.3810649547549,168.93951743215615,125.4159727808489,135.54546190974412,212.97940028286848,190.35061006476408
1.0677344010677343,26.902335667287154,26.36532179691598,192.89596401400524,169.0675030567119,124.351139486345,135.63164525548854,214.0456696325444,190.2830741229513
1.1011011011011012,26.173448063214973,24.477326604586143,193.32322090133297,168.9492355609638,123.24481492234072,135.81555862106174,215.02234642674944,190.0882857564521
1.1344678011344678,25.158332929738123,22.44883338451646,193.5781891640776,168.56910001163726,122.0324963669206,135.99125192962123,215.98179749598145,189.79716869334723
1.1678345011678346,23.975192250814533,20.54150228270001,193.7742772705933,168.1000144091749,120.8389642235027,136.27062938199828,216.87003538762835,189.45862738568613
1.2012012012012012,22.58894453998357,18.7319241299647,193.8305145299724,167.5866905186974,119.7169498800154,136.72166281112567,217.65523644922493,189.076222408392
1.234567901234568,21.079507752454543,17.040104905998895,193.7474214093806,166.9822111193648,118.55871266194468,137.41677886802069,218.53716202342167,188.63124865871765
1.267934601267935,19.543914721140577,15.54759656730922,193.51540736797227,166.16898186829104,117.521671303188,138.40910606907045,219.3524983468255,188.0154998983275
1.3013013013013013,18.106051002671503,14.34315476646712,193.2475975428665,165.36831951376678,116.53132669854504,139.55625598601424,220.22964571000853,187.3233304189679
1.334668001334668,16.609603049964253,13.352627539124745,192.80450100688,164.5352718195816,115.69992027387116,140.83980959110585,220.9136186976138,186.59443977627168
1.3680347013680347,15.180773357922783,12.634451548045789,192.4585607091134,163.55397540701708,114.9817729432792,142.20322473633647,221.5169035543509,185.79410411709384
1.4014014014014016,13.802943899298652,12.147178174393597,192.049887379156,162.40094196715378,114.34981711363294,143.60960599336417,222.05741745083503,184.9879216827512
1.4347681014347682,12.656337576279087,11.966640468821018,191.7467793390004,161.41340100427848,113.8133724113854,145.0476803127392,222.5173074312828,184.1621550519237
1.4681348014681348,11.63887926051075,12.05161965763812,191.498550534547,160.17033479368848,113.35741320461946,146.49994429257526,222.8647872005905,183.3291162895232
1.5015015015015016,10.931368281016926,12.391657549834676,191.48855633153013,159.0711160083806,113.05898392029074,147.86674331070833,223.0398819441465,182.5819533303276
1.5348682015348682,10.394390684646636,12.955500191570051,193.3629042565854,158.35368483230656,112.83830716691504,149.1718993496773,223.08809759155423,181.88991663567208
1.5682349015682349,10.130939337203165,13.740176695941129,194.70926319587537,157.6495684421637,112.84487171003704,150.39384933981364,223.40321485005475,181.26687869067692
1.6016016016016017,10.12004855656813,14.909061656582166,195.7368408005217,155.70014345555333,113.1583089829337,151.53334642940618,223.63536025584955,180.7244725923951
1.6349683016349683,10.286080908439695,16.352585246001546,196.1970941262503,154.1752828377865,113.8391787944052,152.73675602657892,223.6202821376831,180.2947816907656
1.6683350016683351,10.64347796152422,18.061515141746703,196.30747736995207,156.71473863074365,114.78396803860232,153.87459400767182,223.5636038151125,180.01341617171346
1.7017017017017018,11.308346947903836,19.83457126671961,195.9769682592321,158.88954683396742,115.9042084691377,154.96068407261183,222.84368263493727,179.8914703828612
1.7350684017350684,12.15354785708643,21.587824545963723,195.24098264166145,160.7156277973959,117.17816563271556,155.96061436277355,221.86847586492848,179.92548055022283
1.7684351017684352,13.228145256672695,23.48481292037409,194.14066761650204,162.04345315097112,118.08360311931492,156.8032608589271,221.1824268056485,180.08413039651316
1.8018018018018016,14.45484504924248,25.461567940361444,192.7969823799088,163.04588618890168,118.92225817367334,157.53276999099364,220.4722051020404,180.4134644863
1.8351685018351689,15.9132304357363,27.564196544399497,191.2112264076977,163.69756955949788,119.706712847289,158.1329565312961,219.8624912597812,180.750002696546
1.8685352018685355,17.486328858811678,29.887223246453807,189.3123708406299,164.90182125648553,120.52652668028216,158.5301636431781,219.21787390944507,181.1604175961172
1.901901901901902,19.26352835786992,32.2593444708244,187.32284984775865,165.74935290544514,121.3685063454042,158.75499529592688,218.50481860660705,181.65236345846864
1.9352686019352687,21.047314075977543,34.748878722109275,185.30589868358484,166.12027160153963,122.21864989735698,158.7822677274686,217.7021728988184,182.2402774123505
1.968635301968636,23.040214680277668,36.832593453195,183.11669631484875,165.36606778261648,122.9741258241777,158.64319397393743,216.98600131673643,182.9513661086396
2.002002002002002,16.204397161406312,38.73255894707729,180.88845504407,164.1281781844175,123.62263166975184,158.35195428891825,216.3452708814617,183.7253377364107
2.035368702035369,12.284359940535934,40.4585604674251,178.36666505924518,162.5669850772861,124.0868199580542,157.96959846374756,215.76717288004176,184.4596923865824
2.0687354020687354,11.157413133496336,42.00933109969954,175.75899033108996,160.60717025046608,124.33012724610045,157.4665705031801,215.3348556953061,185.17852671014404
2.1021021021021022,12.562659672571142,43.14245334222533,173.12707483235812,158.0223283238128,124.41601092532323,156.7950534643741,215.02924481661492,185.9188241667263
2.135468802135469,16.333185897150837,43.94240089387974,170.36872643541244,155.164952195188,124.33245232464591,155.96356873162088,214.9257281944384,186.64636483896905
2.1688355021688355,22.030239587577668,44.638331999322,167.43095205335732,151.7632363473614,124.0920808134692,155.05822369254912,215.07289056214373,187.3652620537838
2.2022022022022023,29.46230838122228,45.206318586691566,164.49324507270384,148.10173483698426,123.70829913353872,154.13820141689234,215.4754472875416,187.97395491532595
2.235568902235569,38.38558553277794,45.8820274675188,161.57570198724764,143.7300296472884,123.36757647124728,153.40262462738377,215.8528619349177,188.4294055982546
2.2689356022689355,48.58291565248065,46.435563332252485,158.68840997922658,138.93316968337103,122.97523448499952,152.70248013897103,216.3670748548584,188.80655952440827
2.3023023023023024,60.18700875868018,47.106485207495794,155.97066711212025,133.65329812775934,122.66442269799906,152.1631000577015,216.88268570832,189.1472702768564
2.335669002335669,82.1213290997061,47.67754627224785,153.38387030950673,128.01895707048263,122.3930917563024,151.78490356606724,217.37885633100765,189.4078880946416
2.369035702369036,102.40808831753596,48.26293311572015,151.05935767503837,121.9130992011814,122.1778224340252,151.46482251638736,217.8575314210004,189.66960639855228
2.4024024024024024,121.16024141607544,48.868048463634565,148.87609207469222,115.5572901036104,122.03073780834838,151.26928010120804,218.26326468627897,189.8824852963455
2.4357691024357693,138.1067934675284,49.40445658832332,147.06846472858174,109.04580004655443,121.87729056142658,151.0253036390148,218.67494259389852,190.25168229271432
2.469135802469136,153.08279900877776,49.77067458294833,145.47868955634618,102.63551379269268,121.76284524408914,150.83185028465746,218.8699035674108,190.5879686281432
2.5025025025025025,166.23151203942865,50.10610858058852,144.29446732579115,96.14510490650903,121.66258118262888,150.57819477664094,219.07830487838888,191.04017293978177
2.5358692025358693,177.99093165998698,50.47888375259366,143.9102898109171,90.05933067793933,121.5836742115179,150.33983920663005,219.34513491440137,191.54129833294752
2.569235902569236,187.53825430706385,50.79645864540617,143.43490172187333,84.01615452046426,121.56796911611178,150.06591534696798,219.4812745528014,192.1462806746656
2.6026026026026026,195.91318356660184,51.18411526330092,145.501016791742,76.8943917159633,121.55784896917832,149.92946747768443,219.51897619892665,192.522032473484
2.6359693026359694,201.8559821595341,51.4295994348296,147.40570868549256,70.55877671059794,121.59435622003596,149.69620964737396,219.63549187226863,193.0560949058897
2.669336002669336,205.2736740846001,51.76828159306439,144.04579360851903,64.15740506466965,121.52284228603038,149.35550934979193,219.7032413073769,193.7642889306085
2.702702702702702,206.5895598051169,51.922939972319085,139.81272760419947,58.40080643045736,121.56076231675654,148.86147474959748,220.0003680382236,194.7279562496908
2.736069402736069,205.5509306944571,52.28569768404481,137.31831927097662,52.53115505547937,121.6472355812928,148.2174066760115,220.4109976686104,195.9492146626868
2.7694361027694363,202.51690816560665,52.150778996283776,135.4278650433474,49.50136270658195,121.73311088063478,147.44383683005324,220.91583185907945,197.3672998174399
2.802802802802803,197.2185862685203,51.40576236626707,135.37274061455162,47.90785723885661,121.807891106776,146.67309349031925,221.58587196955395,198.8722024215928
2.836169502836169,190.084917617572,50.19105675649404,135.72602430565115,44.00787652706733,121.9129271206735,145.8371146101777,222.30037820058183,200.5188016876744
2.8695362028695364,180.8484737804472,48.430579678485735,136.7055924280858,40.78151842899061,121.99439517106858,144.9719878549663,223.1395049222833,202.23949194350627
2.902902902902903,169.89746803908565,46.49353344469149,137.9520987443837,38.488063071192045,122.16332317940928,144.04853644731,223.8884540021474,204.0655174411285
2.9362696029362696,157.20352397267797,44.0571121521893,139.88453172884246,36.846239715728856,122.53498318307118,143.14208160322275,224.35468256661463,205.92901717219303
2.9696363029696364,142.88354964475374,41.66347995878424,141.99099278840382,36.32716477107681,123.13243304019646,142.10886782084452,224.480661590295,207.87175629696287
3.003003003003004,126.79278349393827,38.98645895262879,144.34034185745136,36.719384969495714,123.93823788468656,141.11006679009304,224.7345487384393,209.7829832986505
3.0363697030363697,109.20181539117624,36.319027058902776,147.00825468451453,37.47682905278253,124.6997595788694,140.07214065291444,225.03865244138365,211.6976166854446
3.0697364030697365,90.06038593685157,33.802122491595185,149.65731091271172,38.87003209913899,125.1197178544768,138.94111448201318,225.45651914168013,213.67007781219723
3.103103103103104,69.68397853564076,31.35884828957896,152.5777851468268,41.532245367764006,125.52113763675828,137.78259429763503,225.96932873710105,215.5804110428589
3.1364698031364697,47.907433255661466,29.208322654526608,156.25091355021195,44.48385920521541,125.88588650416156,136.3423139267698,226.8294821353876,217.5730730736221
3.169836503169837,36.76090948472361,26.97547861917577,160.21780021751718,48.438402946081965,126.33578921365724,134.9865268476548,227.7344378929089,219.43989684231408
3.2032032032032034,27.70075855903371,24.55234261594769,165.4209339949611,53.58113682933171,126.74650423382496,133.7336596800792,228.6306723171268,221.119922706595
3.2365699032365702,20.45716689264385,22.349888008695164,170.18030495565986,59.38846973317197,127.1756909139106,132.6219399905856,229.3263344105556,222.59303184939307
3.2699366032699366,14.379903210981247,20.747953817164884,174.4525145283033,67.24462272833341,127.52325511784386,131.71982266306202,229.92649009657475,223.8197135590257
3.3033033033033035,8.09099310763032,19.28834582933797,174.43619986653044,75.21619913104905,127.93022887337894,131.008022462123,230.2816683929332,224.90988284779965
3.3366700033366703,4.341732766539042,18.26580412189224,174.01990920683625,85.5582993188879,128.28654795973253,130.3677583923426,230.6485513429,225.95731824443047
3.3700367033700367,4.341732766539042,17.045989360435122,174.29648341071675,94.56047846717792,128.68753163563647,129.8724803784874,230.7529511695661,226.80757898750863
3.4034034034034035,4.341732766539042,16.94278565869039,175.27774705905932,100.9373903703577,128.99092698107876,129.63757257315842,230.7502256376575,227.45483200515383
3.4367701034367704,4.341732766539042,17.08267811825307,176.59804565632817,105.33137456400743,129.30909572270022,129.57064732714608,230.44261935234013,227.857048808126
3.4701368034701368,4.341732766539042,16.483409618687055,180.86394153462936,111.02340552874506,129.62171579254465,129.64434879730126,229.8340914759734,228.04528958457144
3.503503503503504,4.341732766539042,15.638600726765302,184.00026489309272,116.20340482126583,129.92108840955245,129.80625925191006,229.054517907686,228.01203678941687
3.5368702035368704,4.341732766539042,15.867283727836597,185.8318949065672,119.57301035719568,130.21779197709898,130.03548805781122,228.0141204475308,227.71369149929504
3.5702369035702373,4.341732766539042,16.38231486745828,184.9660157084917,121.31704060865133,130.5385413599714,130.39624283513228,226.7405522318965,227.1648891453308
3.603603603603604,4.341732766539042,17.319824930215603,185.6793380770197,122.27149855317724,130.67031486061177,130.82573553038455,225.66199747869751,226.3792247749962
3.6369703036369705,4.341732766539042,18.65832840181244,185.12567992007405,121.59432429948944,130.80581067755253,131.37584100912153,224.5909185783544,225.37059470203752
3.670337003670337,4.341732766539042,11.719005681889028,182.0736422974065,114.12801469765029,130.9523148547465,132.01645314439904,223.4064121695675,224.1242994446461
3.703703703703704,4.341732766539042,7.123329507777984,177.2006035224807,106.64719871169775,131.10769225028352,132.79028466868573,222.01474003769687,222.6456950727466
3.737070403737071,4.341732766539042,5.220179003969124,172.8786609398393,98.94924014177704,131.2043242898035,133.7420662835206,220.5532367451967,220.8583085309
3.770437103770437,4.48025030016178,5.135671776389811,161.30724535751514,93.18354922952211,131.33862628689798,134.619392281826,219.00624910990456,219.25746837926195
3.803803803803804,8.51156704261971,5.135671776389811,147.07581932331783,88.1174793746835,131.3141351315364,135.5596979897337,217.5309869137489,217.7179812519274
3.8371705038371706,16.214510802090892,5.135671776389811,139.74283399264672,84.48078227515197,131.5257235772789,136.57689500067778,216.1115022607088,216.13472666850387
3.8705372038705375,29.00762829991503,5.135671776389811,135.59399700357898,82.1758301246599,131.84998093499382,137.66283935776713,214.5642342897269,214.52027385041865
3.903903903903904,32.44882400779402,5.135671776389811,131.8192615769448,81.41775639066205,132.39946911569336,138.91799687851957,212.8912436435459,212.7071524483182
3.937270603937271,35.68299899887401,5.135671776389811,129.5027675578665,81.35336443211588,133.04589182710598,140.2370892689966,211.201016806007,210.8523366067281
