Time,Left Shoulder Angle,Right Shoulder Angle,Left Elbow Angle,Right Elbow Angle,Left Hip Angle,Right Hip Angle,Left Knee Angle,Right Knee Angle
0.0,23.1159313948658,32.1861135606843,140.84349578838416,146.79944617143278,136.92374093278343,137.47345302943629,202.1523023612803,200.771380165561
0.0333667000333667,23.80996069472289,31.485129134922108,147.49806084437816,155.855838146973,136.35989112122255,135.9493629745977,202.02702121572185,202.320825465726
0.0667334000667334,23.94072696627804,30.74097170314588,153.0118408805993,163.11392611408567,135.75060401742434,134.6270730114141,201.97794690042505,203.72731102930567
0.1001001001001001,23.612586494101475,29.966903022976496,157.4581186354164,168.67619108163552,135.1009988634757,133.49669188316324,202.00073444300355,204.99439796278372
0.1334668001334668,22.929895562763413,29.176184852034847,160.9101768471984,172.64511405848725,134.41619490146354,132.54832833312295,202.0910388710709,206.12564737264364
0.1668335001668335,21.99701045683407,28.382078947941817,163.44129825431412,175.12317605350566,133.70131137347468,131.77209110457102,202.2445152122407,207.1246203653688
0.2002002002002002,20.91828746088366,27.59784706831829,165.12476559513243,176.21285807555546,132.96146752159606,131.15808894078526,202.4568184941265,207.9948780474428
0.2335669002335669,19.79808285948241,26.83675097078516,166.03386160802222,176.01664113350142,132.20178258791458,130.69643058504346,202.72360374434191,208.73998152534904
0.2669336002669336,18.74075293720052,26.1120524129633,166.24186903135234,174.6370062362083,131.42737581451706,130.3772247806234,203.04052599050047,209.36349190557115
0.3003003003003003,17.850653978608225,25.437013152473607,165.82207060349165,172.17643439254078,130.64336644349044,130.1905802708029,203.4032402602157,209.86897029459257
0.333667000333667,17.23214226827573,24.82489494693696,164.84774906280904,168.73740661136364,129.8548737169216,130.12660579885977,203.8074015811013,210.25997779889684
0.3670337003670337,16.98957409077326,24.28895955397425,163.39218714767335,164.42240390154166,129.06701687689738,130.1754101080718,204.2486649807708,210.54007552496745
0.4004004004004004,17.22730573067103,23.84246873120636,161.52866759645346,159.33390727193955,128.28491516550474,130.32710194171676,204.7226854868376,210.71282457928788
0.4337671004337671,18.049693472539253,23.49868423625417,159.33047314751823,153.574397731422,127.5136878248305,130.5717900430725,205.2251181269155,210.7817860683417
0.4671338004671338,19.561093600948155,23.270867826738574,156.87088653923655,147.2463562888539,126.75845409696156,130.8995831554168,205.751617928618,210.75052109861232
0.5005005005005005,21.865862400467936,23.172281260280457,154.22319050997726,140.45226395309984,126.02433322398484,131.30059002202745,206.29783991955864,210.6225907765833
0.5338672005338673,25.06835615566884,23.2161862945007,151.46066779810923,133.29460173302462,125.3164444479872,131.76491938618224,206.85943912735104,210.4015562087382
0.5672339005672339,29.272931151120584,23.415844687020336,148.65660114200253,125.87585063749428,124.6399070110566,132.28267999116008,207.43207057961044,210.0909785015621
0.6006006006006006,38.27434642954801,24.15777860349194,147.26905270872524,119.3472972542436,124.05670027838406,132.86142705298485,207.9464585469381,209.6661633678233
0.6339673006339673,48.74704570883324,25.27266148730712,145.62726256509995,112.65373011106708,123.53796335539772,133.47198157661865,208.50340364102897,209.146301692884
0.6673340006673341,60.53629967329215,26.64319838660104,144.21274661789687,105.44898225293431,123.0541330601754,134.22480950068584,209.1672894669523,208.3804012581268
0.7007007007007008,72.66214251361505,28.057065519256565,143.4472988041417,98.28569792204028,122.61605627808092,135.13179478334334,209.9453192849693,207.19379040093256
0.7340674007340674,97.41459856535472,31.089025542008407,143.51215023396438,91.70966158505948,122.06383178256796,135.9865569476748,210.92943923645,205.994597661344
0.7674341007674341,118.50878243290536,33.602827716877115,142.44485192298413,83.8729977705927,121.49958582813724,136.82521859674114,211.75569672815823,204.9201360340832
0.8008008008008008,137.2905011347308,35.757379982906464,141.46790936027216,76.6149029907112,120.96480955025756,137.16676467506065,212.60051672534485,204.1075319645282
0.8341675008341676,154.5179905226537,37.07479678459244,141.6198512885517,69.97037891679362,120.5122039537149,137.56489161384803,213.457466423728,203.3299519654213
0.8675342008675342,169.7719116864586,38.30044454815967,142.89130343318317,64.74150119351822,119.96433166018932,138.01584543785168,214.3094654937385,202.75881708582835
0.9009009009009008,182.659706862702,38.88277146575479,143.65463223679237,56.418971419569765,119.64119367448532,138.1935569572169,214.88803021359445,202.3920163889993
0.9342676009342676,192.7563387780526,41.00448325602501,144.40435654747782,60.32250924764963,119.5174296720383,138.0672600107517,215.05116135140943,202.30935019096447
0.9676343009676344,191.2795086804763,42.811213534507054,147.5018710529282,62.492515149248405,119.59349469907112,137.609087855178,214.96010394191063,202.36039992520065
1.001001001001001,199.47869588114585,44.01320717109923,149.04440780581484,63.728763140201394,119.83678413127171,137.11010864944782,214.5721402989737,202.4127644215249
1.0343677010343677,205.88074808438444,44.39327484502935,150.32196977763897,64.42318772215552,120.2348690811452,136.44604335287357,213.9316749208591,202.5262463500736
1.0677344010677343,210.2727064581296,44.59671022475149,150.69333744399898,65.8641687869417,120.84148548775124,135.72317060733266,212.89577873658828,202.6179880663913
1.1011011011011012,212.02130459326384,43.74534985510317,149.5520560742976,68.29147247171973,121.45672106256488,134.81395116838536,211.7556892770133,202.8105179508969
1.1344678011344678,211.35633036479769,42.52351710038463,147.69418702523387,71.46816229299455,122.18282475556605,133.9929735780752,210.486502507068,202.8124720991757
1.1678345011678346,208.7289174081588,41.22043473152233,145.97448288639552,75.52556113336838,122.9961075861182,133.24816424476364,209.1756319374876,202.6692839235384
1.2012012012012012,204.124284163328,39.90962059448935,144.13863680351864,80.29250335601517,124.03208551650631,132.66698968580383,207.6960396291783,202.4214713723962
1.234567901234568,197.0292965880596,38.50732900760424,146.3607879484237,85.47518189658342,125.17460593618402,132.23903049822587,206.0012018269132,201.9856077497801
1.267934601267935,187.5803325944329,36.53739077494047,141.74989475734893,90.2413538640266,126.44816693810355,131.94239923671518,204.2149068330362,201.36626262039627
1.3013013013013013,175.73132293154032,34.7831497282955,135.46711493753185,94.34423452118298,128.00549906260864,131.84731111419055,202.29706496384443,200.63200351201857
1.334668001334668,161.36366465563648,32.85078569026521,129.89649819453862,98.33637768612437,129.82847087881754,131.9338676751892,200.31399643335732,199.76153573383652
1.3680347013680347,145.66082644213452,31.65172845844377,124.60731025199136,100.79785919436166,131.87013127899482,132.29614332762085,198.2045031344191,198.7068421315361
1.4014014014014016,127.499802483928,30.68493807305065,117.22815388033806,105.32893337832678,134.1158614234553,132.92871504918284,196.0520611474561,197.50265316084585
1.4347681014347682,121.10808483616184,30.48574065494561,110.52296353721546,107.33055095415824,136.46585893996465,133.79153114230246,193.8433047491944,196.1370692688004
1.4681348014681348,104.592705985916,29.95283382550392,102.15942093338214,108.18936319298064,139.15948293896778,134.76824330588366,191.26919259291773,194.4264659736251
1.5015015015015016,88.51446975141852,29.607591241219875,93.70665773761404,108.5736091753424,141.89972202377857,135.91613118966802,188.74428024653395,192.6228325239653
1.5348682015348682,73.19447794088313,29.46438396564986,85.28172569993727,108.47752350229926,144.65660691394763,137.2348022788682,186.3047764029793,190.74293488246045
1.5682349015682349,58.95383236252462,29.53758306235052,77.00167657037842,107.89534077490778,147.4001683290266,138.72386405869793,183.98688975519167,188.803539011752
1.6016016016016017,46.11363482455826,29.84155959487851,68.98356209896451,106.82129559422442,150.1004369885672,140.382924014371,181.8268289961092,186.8214108744814
1.6349683016349683,34.99498713519867,30.39068462679048,61.34443403572234,105.24962256130571,152.727443612121,142.21158963110108,179.86080281866967,184.8133164332899
1.6683350016683351,25.91899110266081,31.19932922164308,54.20134413067868,103.17455627720814,155.25121891923968,144.20946839410192,178.12501991581118,182.79602165081903
1.7017017017017018,19.20674853515996,32.281864442992955,47.67134413386049,100.5903313429882,157.6417936294749,146.37616778858728,176.65568898047172,180.7862924897101
1.7350684017350684,15.179361240910708,33.65266135439676,41.87148579529448,97.49118235970238,159.8691984623783,148.71129529977088,175.48901870558925,178.80089491260446
1.7684351017684352,14.157931028128388,35.32609101941114,36.91882086500759,93.87134392840716,161.90346413750157,151.21445841286646,174.66121778410172,176.85659488214355
1.8018018018018016,16.463559705027393,37.31652450159274,32.93040109302656,89.72505065015913,163.71462137439633,153.8852646130878,174.2084949089471,174.97015836096872
1.8351685018351689,22.417349079823225,39.63833286449823,30.023278229378302,85.04653712601467,165.2727008926142,156.72332138564855,174.16705877306342,173.15835131172136
1.8685352018685355,32.34040096073056,42.305887171684255,28.314504024089715,79.83003795703036,166.54773341170693,159.7282362157625,174.5731180693886,171.43793969704285
1.901901901901902,46.553817155964566,45.33355848670744,27.921130227187533,74.06978774426264,167.50974965122606,162.89961658864337,175.4628814908607,169.82568947957458
1.9352686019352687,65.37869947373974,48.73571787312446,28.96020858869868,67.76002108876806,168.12878033072332,166.23706998950493,176.8725577304176,168.33836662195793
1.968635301968636,89.13614972227137,52.52673639449195,31.548790858649937,60.89497259160307,168.37485616975033,169.74020390356088,178.83835548099734,166.99273708683427
2.002002002002002,118.14726970977452,56.72098511436657,35.80392878706813,53.46887685382421,168.21800788785873,173.40862581602497,181.39648343553787,165.805566836845
