Time,Left Shoulder Angle,Right Shoulder Angle,Left Elbow Angle,Right Elbow Angle,Left Hip Angle,Right Hip Angle,Left Knee Angle,Right Knee Angle
0.0,18.15316179967781,30.05588164217816,148.3525742883606,167.31973633599358,139.92237874917095,134.90160290037124,200.9830496675929,204.8976530362873
0.0333667000333667,19.335553009989106,30.226663963422588,150.9217634918718,167.26967087475776,139.99603434933283,134.90053245975147,201.34683869057136,204.87334332358947
0.0667334000667334,20.354464137090392,30.38443093409162,153.07146322407135,167.22996451439025,140.05495267844407,134.8714398714462,201.65868570119687,204.85825970827275
0.1001001001001001,21.219140044160945,30.5290998378849,154.82820918100393,167.19882420023654,140.10022770597834,134.81668529722296,201.92135442602927,204.85201210936071
0.1334668001334668,21.93882559438003,30.660587958502084,156.21853705871422,167.1744568776421,140.1329534014093,134.73862889884933,202.13760859162863,204.85421044587693
0.1668335001668335,22.52276565092692,30.778812579642825,157.26898255324696,167.15506949195233,140.1542237342106,134.63963083809284,202.31021192455472,204.86446463684496
0.2002002002002002,22.980205076980887,30.88369098500677,158.00608136064687,167.13886898851277,140.1651326738559,134.5220512767211,202.4419281513674,204.88238460128835
0.2335669002335669,23.32038873572119,30.975140458293566,158.45636917695867,167.12406231266883,140.16677418981885,134.38825037650162,202.5355209986266,204.90758025823072
0.2669336002669336,23.552561490327097,31.053078283202872,158.64638169822703,167.10885640976605,140.16024225157312,134.24058829920196,202.5937541928922,204.9396615266956
0.3003003003003003,23.68596820397788,31.11742174343433,158.60265462049674,167.0914582251498,140.14663082859238,134.0814252065897,202.61939146072407,204.9782383257065
0.333667000333667,23.72985373985281,31.1680881226876,158.35172363981243,167.07007470416562,140.12703389035025,133.91312126043238,202.6151965286821,205.0229205742872
0.3670337003670337,23.69346296113116,31.204994704662315,157.92012445221886,167.04291279215892,140.10254540632042,133.73803662249756,202.58393312332623,205.0733181914609
0.4004004004004004,23.586040730992185,31.228058773058144,157.33439275376074,167.00817943447518,140.07425934597654,133.5585314545528,202.52836497121623,205.1290410962516
0.4337671004337671,23.41683191261516,31.23719761157473,156.62106424048275,166.96408157645988,140.04326967879226,133.37696591836567,202.4512557989121,205.18969920768248
0.4671338004671338,23.195081369179352,31.23232850391172,155.80667460842966,166.90882616345846,140.01067037424122,133.1957001757037,202.3553693329737,205.2549024447773
0.5005005005005005,22.93003396386404,31.21336873376877,154.91775955364614,166.84062014081638,139.97755540179713,133.01709438833447,202.2434692999609,205.32426072655963
0.5338672005338673,22.63093455984847,31.18023558484553,153.98085477217694,166.75767045387914,139.9450187309336,132.8435087180255,202.11831942643363,205.39738397205292
0.5672339005672339,22.30702802031211,31.132846340841905,153.0224959600679,166.65818404799356,139.91415433112545,132.67730332654543,201.98268343895327,205.4738821002826
0.6006006006006006,21.793925742756752,31.10717581951809,151.76080066257677,166.66296616056516,139.90680777217986,132.51321614134338,201.9647248881579,205.5944213253666
0.6339673006339673,21.442998384664502,31.064857825879223,150.84157325156744,166.64381147451203,139.89576435547207,132.38440721593454,201.90992833100464,205.7163301612636
0.6673340006673341,21.17177683281907,31.013916576729272,150.24982312206006,166.57009862850435,139.90735558031784,132.29205140083977,201.80662010425704,205.82212857790083
0.7007007007007008,20.963245264011604,30.93056020030509,149.91195393164637,166.40252323607425,139.9369163469694,132.2255846826569,201.66456370134253,205.9067282003004
0.7340674007340674,20.81129477884932,30.85201568176165,149.80280949893222,166.1973508382071,139.99483024430472,132.1709195824522,201.441689711347,205.9759685380604
0.7674341007674341,20.7264265661682,30.73064832034418,149.9375845580376,165.9027184881492,140.05696497572202,132.15114799350968,201.2101223643737,206.0347711746052
0.8008008008008008,20.660053779191333,30.586873028520305,150.1358900050297,165.5089296694185,140.13134111434078,132.1375711115231,200.9622418536356,206.0855639655917
0.8341675008341676,20.669612989726847,30.396235942190927,150.5170176315093,165.0270655511989,140.18005856724733,132.13827468452396,200.72790864398465,206.13334330270004
0.8675342008675342,20.793883182035803,30.09852740676488,151.0985986478954,164.3866813319071,140.18256719514565,132.1017169236561,200.5111808849433,206.17249212805632
0.9009009009009008,20.983153565344804,29.75446606359567,151.86112051459045,163.69821633353652,140.1644166609466,132.0799294342806,200.316622409558,206.21777062288427
0.9342676009342676,21.19268630596812,29.423911159385057,152.7642587356253,163.05983885172216,140.1624015408214,132.08173866093898,200.1736724226608,206.2956168224942
0.9676343009676344,21.426728542159925,29.07108393406008,153.80334215467212,162.4217163364712,140.15583872849473,132.158881805831,200.06312146483256,206.3619143280636
1.001001001001001,21.651687352436166,28.677243633225984,154.89552164018585,161.73259560690437,140.1365630144718,132.30453642262947,199.9471829272732,206.3376770106563
1.0343677010343677,21.914465794170564,28.265848384789283,156.1089555194912,161.02924432966623,140.09827205273913,132.51270634594044,199.85615928685024,206.273274502913
1.0677344010677343,22.2557692103356,27.88655628205108,157.42417422946932,160.39502678374953,140.02487694710902,132.72155534805393,199.81598708652896,206.22047011054528
1.1011011011011012,22.6644302846132,27.50287078911748,158.8367448475107,159.75321411284156,139.92957342302782,132.9610520319451,199.8031246191348,206.17806936211613
1.1344678011344678,23.178194717497497,27.134607968377807,160.2955067622835,159.13847094282815,139.7439676741412,133.1333215350806,199.8850516275185,206.2842136720973
1.1678345011678346,23.749636657021043,26.762707035583347,161.8235510982812,158.51267450904598,139.53505547227556,133.32800432540355,199.9923097858298,206.39885221659907
1.2012012012012012,24.363258029734983,26.406058095299667,163.4356640441256,157.9047558426413,139.35874937902616,133.53988557205122,200.060617039526,206.4817098302243
1.234567901234568,25.03900635051451,26.033189471830475,165.1802963848708,157.25198272321325,139.19834786566736,133.8024043916881,200.11035511048408,206.5142713361448
1.267934601267935,25.75136155735641,25.84717954775644,167.02210400702947,156.92551724343724,139.0557619236234,134.0968262020036,200.11339522089656,206.5304530736024
1.3013013013013013,26.45975838593212,25.640865690755,168.92409597135207,156.5621647885364,138.89084392632654,134.4239163590909,200.11593676712195,206.52083637928536
1.334668001334668,27.317969183295943,25.41026694862049,171.11252604366473,156.14868204651142,138.8054125832442,134.73465142221147,200.1529644201544,206.4813133124448
1.3680347013680347,28.162804316333848,25.09637102845681,173.28310516490333,155.60842555627698,138.7350619436399,135.08197167330343,200.2017231056934,206.406545053398
1.4014014014014016,28.92931116147921,24.82409146819327,175.30808828273973,155.1001629246444,138.62924521727268,135.41939065097156,200.2626090837642,206.313874693122
1.4347681014347682,29.57297551456064,24.45911663520585,177.14042778371572,154.40868684181615,138.49236161097693,135.7708605252698,200.34742999033912,206.2176886439329
1.4681348014681348,30.13561824995041,24.109331684342305,178.74645642002352,153.78067135177818,138.3355559576901,136.14216551811947,200.4612745064818,206.14897343184583
1.5015015015015016,30.494120042322084,23.643920185527108,179.8676886874971,153.0079247945047,138.1682813997251,136.57598790141796,200.6014097346282,206.0521601304847
1.5348682015348682,30.677770496396096,23.033740021479616,178.9237068040467,152.2432895155668,137.9862800453247,137.05065045090245,200.7842180707893,205.94910913548333
1.5682349015682349,30.701711537636708,22.25116835939108,183.0476110824713,151.21086812871783,137.7914824778959,137.57533953161672,201.00815546298296,205.79991635352613
1.6016016016016017,30.743364124091347,21.343614389705856,186.9569902688063,150.06832649791482,137.63091958036532,138.15227677135235,201.23587627212729,205.56997388438708
1.6349683016349683,30.779519361829752,20.383329273340813,189.71306599128155,148.7279378216546,137.47677013357688,138.78970353789654,201.47145545703108,205.27692347408964
1.6683350016683351,30.814929685773727,19.35855754189631,190.3933311026552,146.96457916447048,137.34742043203173,139.45800226164738,201.71559969462248,204.95198293074108
1.7017017017017018,30.83105109653092,18.32726946103557,189.95619347016955,145.04583848187963,137.22813969411806,140.16213883614017,201.94793509894168,204.58649022295543
1.7350684017350684,31.038126130071127,17.241889021931257,186.2168044455742,143.3989388118645,137.12488470326207,140.89134144762633,202.1636174225024,204.18520035186856
1.7684351017684352,31.04550618590413,16.042458053579185,182.8793828813357,141.2801020113539,136.98441798518388,141.6362906788155,202.3099381040365,203.73053602300496
1.8018018018018016,30.60893381914449,14.797167403344815,179.87817800595667,140.1941572158279,136.8128971320213,142.3713425947759,202.42660561453704,203.22278007533933
1.8351685018351689,29.938063328608564,13.538375187301922,176.9804101962541,138.7666898819181,136.61327477793031,143.08943797691688,202.53525688285097,202.66919033423108
1.8685352018685355,28.81305031136344,12.315371655525771,176.25428584694976,137.17963046657303,136.39026874274606,143.7732829272514,202.63303720927075,202.11554268065225
1.901901901901902,27.58549171535489,11.112120658870415,174.76938290629923,135.0986255498823,136.11869918799476,144.44964574943256,202.77215722181623,201.5271349671454
1.9352686019352687,26.144543432664467,9.789922315129372,171.99348658585754,132.94436008199975,135.8214857107855,145.10210396548547,202.9203452485365,200.87950132185065
1.968635301968636,24.846155264517776,8.491578695976468,168.93284556532453,130.36280113431434,135.477451258923,145.73719815882774,203.095524587749,200.1985781918816
2.002002002002002,23.447714786023,7.2384082600320125,165.67076863480037,128.92493389948729,135.12505360642183,146.33750072193993,203.28383540345703,199.5293314506404
2.035368702035369,22.018259266082246,6.221447949432195,162.02903636213898,127.2762877518169,134.7853718814865,146.97585835084257,203.48027573704329,198.86239921306503
2.0687354020687354,20.604765369438823,5.2868706511903,158.37246658425235,124.21277647142604,134.43405026280075,147.6116087867441,203.71802683219184,198.19612757461863
2.1021021021021022,19.307675720909547,4.478354687384831,154.53399453775208,120.30995637558291,134.0509478045849,148.23172109275393,203.9365553942233,197.4895870682629
2.135468802135469,17.740552046991812,3.8795902346611744,150.32786620876686,115.97142033056392,133.6629898870827,148.8024682420662,204.12598903017812,196.76229347154973
2.1688355021688355,16.191975211485943,3.526274001272369,145.8529504873706,111.22149104068856,133.26740871499362,149.29563891518836,204.3193514575918,196.124943387922
2.2022022022022023,5.464105162312047,3.450825406901519,141.08338568524434,106.07865459342209,132.8412101540173,149.67860984163426,204.4975500308661,195.5766625643724
2.235568902235569,5.464105162312047,3.450825406901519,136.6373619215128,100.60519406291137,132.4034543622374,149.981013283455,204.64809735332048,195.1004431720912
2.2689356022689355,5.464105162312047,3.450825406901519,132.38806232791168,94.86276730563782,131.98138202814198,150.17363551634728,204.77300980342108,194.7070945404257
2.3023023023023024,5.464105162312047,3.450825406901519,128.6561175808209,89.00111454199487,131.64752838266062,150.3619066878505,204.781853412172,194.229988362982
2.335669002335669,5.464105162312047,3.450825406901519,125.69814165164094,83.14623478842203,131.42380029553692,150.48877308552574,204.69743068638672,193.7602302746832
2.369035702369036,5.464105162312047,3.450825406901519,123.42463326988072,77.40419265358503,131.22897376120488,150.55278169654162,204.5921798531642,193.3397369708985
2.4024024024024024,5.464105162312047,3.450825406901519,121.62782264003232,71.79367727874184,131.04654543927154,150.5079977735908,204.46061573682053,193.0002749921181
2.4357691024357693,5.464105162312047,3.450825406901519,120.52211167303436,65.97340936626377,130.87059134723535,150.38206386673428,204.36156996361296,192.69565224879844
2.469135802469136,5.464105162312047,3.450825406901519,120.0329871808523,60.15728854560967,130.77662843224456,150.22816586038755,204.2285569065424,192.3819764203868
2.5025025025025025,5.464105162312047,3.450825406901519,120.07883572425892,54.51451037328511,130.62475218716,150.078778686191,204.0515519727997,192.0893867362541
2.5358692025358693,5.464105162312047,3.450825406901519,120.85777850153448,49.129949597109125,130.479185652282,149.9744565233101,203.8401372871403,191.71092252046824
2.569235902569236,5.464105162312047,3.450825406901519,122.46303767756146,44.00694586900735,130.35187366138695,149.9088728843934,203.64513616727507,191.35809846747125
2.6026026026026026,5.464105162312047,3.450825406901519,124.91495700190188,39.32745287734478,130.24981166308234,149.8534220842261,203.466208095436,191.0361825186029
2.6359693026359694,5.464105162312047,3.450825406901519,128.268959133677,34.90849350344882,130.09296082316004,149.7505853445593,203.37177309803425,190.78046702026228
2.669336002669336,5.464105162312047,3.450825406901519,132.4773304473248,31.07358621401292,129.9111849215616,149.6507839939815,203.3207376742092,190.51862831438348
2.702702702702702,5.464105162312047,3.450825406901519,139.9992048019839,27.577268540868094,129.69036740724292,149.4909774426819,203.325961457762,190.3545472936436
2.736069402736069,5.464105162312047,3.450825406901519,142.31599480308998,25.034236389580485,129.42589248105804,149.3823517813399,203.3517736724125,190.14624905773712
2.7694361027694363,5.464105162312047,3.450825406901519,142.8300606427491,22.994599626495653,129.06389593726922,149.1540609589681,203.4881287583472,190.1579035803189
2.802802802802803,5.464105162312047,3.450825406901519,143.29029342922183,19.710131694205145,128.296984585674,149.22057874170915,203.76438162970643,190.2935193984636
2.836169502836169,5.464105162312047,3.450825406901519,143.5418205876928,17.99067830919542,127.50433647442422,149.04852419010408,204.13878432796903,190.68122238199675
2.8695362028695364,5.464105162312047,3.450825406901519,142.30808791919182,17.1259269742704,126.75574273979856,148.45560239022666,204.67832312493093,191.340327957034
2.902902902902903,5.464105162312047,3.450825406901519,142.90108149988083,16.773479830965034,126.03251129048618,147.5644923996777,205.309137157444,192.23536339057893
2.9362696029362696,5.464105162312047,3.450825406901519,148.8552943257059,17.511137934545033,125.48831064679752,146.42764833327382,206.00862693029995,193.35988820746425
2.9696363029696364,5.464105162312047,3.450825406901519,151.8931806936701,18.05318549791274,124.9488152739725,145.13281675082655,206.77225690916904,194.66857471967407
3.003003003003004,5.464105162312047,3.450825406901519,158.47535263832364,18.350004071751293,124.29685546303128,143.74195199770895,207.55776954609323,196.11941840533748
3.0363697030363697,5.464105162312047,3.450825406901519,155.37656521836487,19.319493133060988,123.60591709839896,142.29009935853904,208.33458625189377,197.632996231708
3.0697364030697365,5.464105162312047,3.450825406901519,155.69909180062515,20.302294194730106,122.85631052442196,140.8151202012723,209.06801505045777,199.22583958418213
3.103103103103104,5.464105162312047,3.450825406901519,156.7912021482204,21.90814364633624,122.14693217006904,139.32347693036886,209.7801145081624,200.88828233086275
3.1364698031364697,5.464105162312047,3.450825406901519,158.1286872968747,24.52211121097728,121.32173601522808,137.80350169858153,210.7031117543536,202.70669382606528
3.169836503169837,-1.8082509266322155,3.450825406901519,159.32871220103044,26.214898229412253,120.57177794564396,136.30049536986783,211.5442518427696,204.51050035592468
3.2032032032032034,-5.583177918439066,3.450825406901519,160.1837592061237,27.360301912688183,119.97092986293904,134.6234511777656,212.39725423392005,206.47309479480643
3.2365699032365702,-6.423892149528095,3.450825406901519,160.85047487302614,29.46403216019596,119.5144739145068,132.98792063868407,213.1058277245189,208.3473054671988
3.2699366032699366,-4.720505898898651,3.450825406901519,161.97756047249638,32.675077660528416,119.10424637680666,131.42085100999398,213.72763125545345,210.1167267222833
3.3033033033033035,-0.6485690081628555,3.450825406901519,163.10638979830972,36.29003034854964,118.87025756073534,129.98035675109912,214.1008567396599,211.69775321146932
3.3366700033366703,5.882483490794666,3.450825406901519,165.44185275057538,40.274234285248816,118.6615221029488,128.62870101513906,214.46002780186885,213.198279579852
3.3700367033700367,14.447145807200766,3.450825406901519,167.83998608428635,44.72603876852263,118.72744203117315,127.44416082006236,214.58704971820427,214.5043928248309
3.4034034034034035,24.92203669098241,3.450825406901519,169.56665181045153,49.20518673013905,119.03779514933946,126.56241642791166,214.3468829616402,215.5508029521145
3.4367701034367704,36.853954133911856,3.450825406901519,170.94725880539286,54.24024866859798,119.5142585513631,125.84081530960862,213.9007623349935,216.32734355039747
3.4701368034701368,50.10069943352256,3.450825406901519,173.09197227688438,63.68219071736443,120.15517284323488,125.22733769907032,213.2882710699676,216.87935809083123
3.503503503503504,64.55268442588579,3.450825406901519,174.57764408110376,72.5480871416507,120.84757469824332,124.7459497277819,212.5760542415776,217.1514921671641
3.5368702035368704,80.01722409719319,3.616508415974165,175.60003528926575,80.3604851319794,121.67459636547878,124.49498388898644,211.69292012407507,217.1390939873071
3.5702369035702373,96.2853533652854,3.616508415974165,175.93734072773543,86.65982947705793,122.65099620511268,124.43601117285074,210.59579031569663,216.79764777711983
3.603603603603604,113.26663801076836,3.616508415974165,174.7787193557645,91.59273568890944,123.80005403968704,124.42549799886176,209.2735021818675,216.1223545955604
3.6369703036369705,130.64819869423482,3.616508415974165,172.8068412043267,95.79097115983684,125.02879634549195,124.49197343168396,207.8268129255724,215.1509883794249
3.670337003670337,148.1075944864181,3.616508415974165,168.8232744636638,96.50303163342886,126.69058354692704,124.38235073720882,206.15019041784663,214.3170966961676
3.703703703703704,165.37436023848574,3.616508415974165,164.35554116286343,97.15589783979988,128.2477879889033,124.54543638754102,204.46890886042385,213.21874783380463
3.737070403737071,191.95475610953812,3.616508415974165,160.52309961763734,98.0070782792339,129.7591521311772,125.00336755925596,202.72468422559427,211.75470266012604
3.770437103770437,215.38093419502525,3.616508415974165,156.71187900447816,99.0433226901523,130.98779696109338,125.6969990697775,201.0979973897026,210.0961047654685
3.803803803803804,236.2704294493653,3.616508415974165,156.208448490922,98.62228932921133,132.05510038645605,126.62383233532894,199.60910592819377,208.131638459532
3.8371705038371706,252.9586303623,3.9970271268101785,151.67695956448745,97.72090897437306,132.8894864224383,127.78327476724952,198.2306795529,206.06406023915872
3.8705372038705375,266.0396100231301,3.9970271268101785,150.2106307356465,97.1015957723104,133.61481631323448,129.14698359358047,196.85362749505185,203.89727582629587
3.903903903903904,275.7842700058676,3.9970271268101785,148.48629244102858,96.4042963217552,133.41247856319418,130.78039981997475,196.0263287100928,201.9294696761792
3.937270603937271,280.4010355534772,3.9970271268101785,146.34481734069027,92.34342884797402,133.32197591790876,132.270062103062,195.24092963961792,199.87349265481865
