Time,Left Shoulder Angle,Right Shoulder Angle,Left Elbow Angle,Right Elbow Angle,Left Hip Angle,Right Hip Angle,Left Knee Angle,Right Knee Angle
0.0,21.43456917955689,30.784580753794444,146.48573039523845,157.72943991440195,122.68576073006685,115.21499555060323,214.28727572040225,220.4426187023213
0.0333667000333667,20.610832503175285,30.687803389081115,146.59261244081927,158.13156979752685,123.17773568232974,115.72591501017006,213.15160465924032,219.901734942872
0.0667334000667334,19.92834012754529,30.62144494309619,146.73799933513604,158.5194439277547,123.61616267657,116.1671669218385,212.17688667487968,219.4454673540552
0.1001001001001001,19.380481982499408,30.58329680420957,146.92163512921698,158.89142800415064,124.00411553846946,116.54317667732651,211.35424347101343,219.06742351643564
0.1334668001334668,18.960647997870137,30.571150360791144,147.14326387409042,159.24588772577974,124.34466809371006,116.85836966835208,210.67479675133472,218.7612110105779
0.1668335001668335,18.66222810348998,30.582797001210807,147.40262962078458,159.58118879170706,124.64089416797364,117.1171712866331,210.1296682195366,218.52043741704657
0.2002002002002002,18.478612229191427,30.616028113838453,147.6994764203277,159.8956969009977,124.89586758694216,117.32400692388752,209.70997957931223,218.33871031640612
0.2335669002335669,18.403190304806984,30.66863508704397,148.03354832374808,160.18777775271684,125.11266217629742,117.48330197183328,209.4068525343548,218.2096372892213
0.2669336002669336,18.429352260169143,30.738409309197262,148.40458938207394,160.45579704592947,125.2943517617214,117.59948182218834,209.2114087883573,218.12682591605667
0.3003003003003003,18.55048802511041,30.82314216866822,148.81234364633357,160.69812047970072,125.44401016889591,117.67697186667064,209.11477004501288,218.0838837774767
0.333667000333667,18.75998752946328,30.920625053826733,149.2565551675552,160.91311375309567,125.56471122350293,117.7201974969981,209.1080580080147,218.07441845404605
0.3670337003670337,19.05124070306025,31.02864935304269,149.7369679967671,161.0991425651794,125.65952875122426,117.73358410488868,209.18239438105587,218.0920375263292
0.4004004004004004,19.41763747573382,31.145006454686,150.25332618499755,161.25457261501705,125.73153657774184,117.72155708206031,209.32890086782947,218.1303485748909
0.4337671004337671,19.852567777316487,31.267487747126545,150.8053737832748,161.37776960167363,125.78380852873758,117.68854182023097,209.53869917202869,218.18295918029563
0.4671338004671338,20.34942153764075,31.39388461873422,151.3928548426271,161.4670992242143,125.81941842989332,117.63896371111852,209.80291099734657,218.243476923108
0.5005005005005005,20.90158868653911,31.52198845787892,152.01551341408268,161.52092718170414,125.841440106891,117.57724814644098,210.11265804747623,218.3055093838925
0.5338672005338673,21.502459153844057,31.64959065293053,152.67309354866984,161.5376191732082,125.85294738541248,117.50782051791629,210.4590620261109,218.36266414321392
0.5672339005672339,22.14542286938826,31.77448259225922,153.36533929741807,161.51554089779287,125.85701409114064,117.43510621726328,210.8332446369452,218.40854878163844
0.6006006006006006,22.651242728524373,31.924970445488658,153.62950754297708,161.4773981401321,125.83707999093367,117.35963979828468,211.19783108810853,218.3902538488161
0.6339673006339673,23.254921627153337,32.02474728153511,154.1422439091674,161.37646528137793,125.8337600212697,117.31030154632651,211.5704880594961,218.33872708705087
0.6673340006673341,24.012405819119493,32.146900601908854,154.90739965014632,161.3553810184891,125.87404920718872,117.25871798492976,211.98129613327612,218.2746237794382
0.7007007007007008,24.821158901724115,32.21139664222402,155.9123380542128,161.20687268597928,125.93247019968146,117.2465164389918,212.375007631194,218.1457365182408
0.7340674007340674,25.23059497367253,32.261093102923795,156.57274673938085,160.97089596121538,126.0021155400985,117.2994225560262,212.70770793566984,217.9651029068585
0.7674341007674341,25.833667547081845,32.25996599473622,157.4417546526145,160.5959405598583,126.1030904669798,117.4105739667322,212.95906289387256,217.7001031013656
0.8008008008008008,26.478472857655195,32.27840205334044,158.41874102610473,160.1789537875537,126.1646500542306,117.50415446823904,213.28426512546943,217.367545821762
0.8341675008341676,27.33212245294455,32.29268958164768,159.71162937108372,159.70258199696087,126.21357921535788,117.62748161614844,213.55336998935653,216.97780404279692
0.8675342008675342,28.29506491806351,32.33292926744489,161.33924526507272,159.21478740627515,127.29565133741,117.83412675196276,212.1067005547836,216.490959295426
0.9009009009009008,29.34290647097457,32.327623614503544,163.1319376724276,158.61922977777337,128.30081930195703,118.0999255022939,210.84429503272813,215.9158025120341
0.9342676009342676,30.38215316212608,32.31849669161835,165.07977234154978,158.0698056342615,128.24419933300237,118.3129939945762,211.1640761562402,215.34370219314204
0.9676343009676344,31.583844378971264,32.27755133107591,167.0291307597258,157.421297592691,127.81144761818032,118.52890841922462,211.933824422663,214.7854908043957
1.001001001001001,32.90994462906354,32.33176112510268,169.10711665507603,156.81896891708794,127.58204726654408,118.7463258119282,212.2753315501298,214.3050670267238
1.0343677010343677,34.24801109878512,32.32560395243803,171.13446487656253,156.11460179138984,127.366028296887,119.0127419404241,212.4756533066838,213.82240647770283
1.0677344010677343,35.638144564827435,32.20846116160208,173.0373984373509,155.22540598693627,127.20418506784496,119.29605827722877,212.3513941932673,213.3664881706468
1.1011011011011012,37.11475959513446,31.97969262524075,175.00505090702725,154.1520358764044,126.9591073288391,119.61080870029332,212.2581758479285,212.9048298931816
1.1344678011344678,38.63964689843346,31.75837879785613,176.90120167812626,153.00143685771573,126.58922630147576,119.8575168547586,212.2900272519008,212.48839731116323
1.1678345011678346,40.05252646804407,31.46448842576489,178.63205253564968,151.74202566302685,126.10981669653032,120.10118560140872,212.46852304994303,212.07660449519423
1.2012012012012012,41.40028052648003,31.17548378898874,179.8747014706173,150.60377861713775,125.5977529676954,120.35799715408056,212.69342442175324,211.64784569283208
1.234567901234568,42.61019965403428,30.748330738201155,181.07543639046764,149.39007206102755,125.06966319156012,120.6416010381167,212.9525206068936,211.21912700976043
1.267934601267935,43.77909937083718,30.39141567858644,181.6359972260592,147.7828981307008,124.57855804482502,120.95081892126086,213.17493961342527,210.78850729117644
1.3013013013013013,44.78240374595853,29.85354198467837,182.4242526447251,146.32459511193994,124.02772633982194,121.30737530439522,213.59241344743808,210.3437591772792
1.334668001334668,45.73317138840325,29.309536846137284,182.5905029829065,144.90358270164256,123.31059916499552,121.68317748397445,214.2554381526577,209.93002729978872
1.3680347013680347,46.5387102329389,28.56600364997061,183.3156721235851,143.4081713185095,122.5100252438507,122.08960740963585,215.11625160502828,209.54473667270884
1.4014014014014016,47.28759919496496,27.56296534568897,184.48659300531,141.18382023002948,121.71514940193562,122.51352756910129,216.0906327453698,209.19399362741265
1.4347681014347682,48.03878707700267,26.4513995700053,186.4496815295638,138.91480771979093,120.89756047797712,122.9898799179508,217.1510342631539,208.8587010083185
1.4681348014681348,48.79739449750624,25.29388505798761,188.9424150265906,136.23829361191912,120.08771975412256,123.49845598778802,218.23249879344925,208.5347740264953
1.5015015015015016,49.28111480450702,23.91552110456489,191.5888825740276,133.4801445038987,119.2225258413718,124.01945487876104,219.37774120943385,208.21708155812289
1.5348682015348682,49.636915285940674,22.50008451302164,195.0873743874633,131.29853918635806,118.28329602204552,124.53354486638425,220.5287843742997,207.9208635523771
1.5682349015682349,49.535334458012,21.04714297727536,198.2665794986486,129.63223702585276,117.31701935964507,125.060874862153,221.7992150342698,207.65079235802045
1.6016016016016017,49.418406180159465,19.541607540761024,201.88224210447385,127.92239369893922,116.37756252131273,125.60136612978232,223.08935443278932,207.4173165725396
1.6349683016349683,48.79639542413637,17.980209203603803,205.16826515513,126.91540168184387,115.47274992865664,126.17467386246894,224.3450554423632,207.186190946903
1.6683350016683351,47.12034684539081,16.38886565666493,208.2190314640508,129.73340732321867,114.57528508429792,126.77661140563792,225.6018681886694,206.9864450153674
1.7017017017017018,45.19977305580775,14.432474120764832,211.2798858895808,132.54640254561153,113.73937227212548,127.38843279413736,226.80486109708195,206.8386411040633
1.7350684017350684,42.95651069232105,12.40603532895221,212.834513800184,134.7914348661809,112.893182470277,127.95864733365192,227.98530742996107,206.7340624880366
1.7684351017684352,40.90353592662005,10.35587076330247,218.0655631801457,136.1436908704364,112.17548101803928,128.51695627044126,229.09068957083315,206.64506699241537
1.8018018018018016,38.34041023989403,8.188617937569179,221.40961640859445,134.84152446605293,111.64410295592248,128.97042635828598,230.13356128557024,206.62094635897665
1.8351685018351689,35.93329967432196,5.91389113981981,221.8233691969066,132.2889160287276,111.2708879697146,129.42147938340415,231.0147369820448,206.5745417145452
1.8685352018685355,33.58943412475661,4.922216190179546,223.078092429566,134.09499847664884,111.00192241285846,129.8791514127617,231.7271079922156,206.53410052497105
1.901901901901902,31.3794751763429,4.660742580718134,223.81217793156284,134.75847928289664,110.8508102199304,130.30740772035844,232.2863816127592,206.45663995015656
1.9352686019352687,29.48451769228836,3.613121721557926,225.86667296587115,134.67296128484878,110.91682209190284,130.73197041867377,232.69700128465087,206.3504679295742
1.968635301968636,27.944549791572776,2.9184689388481027,227.02535332729144,133.38264853847775,111.27834221149254,131.22377566402682,232.73780832456043,206.2123335905164
2.002002002002002,25.774393496121103,2.5916564515866862,226.0968958349009,131.51480837824442,111.91453030990444,131.7058132008098,232.46594642816405,206.07990548814348
2.035368702035369,24.10670078656617,2.5916564515866862,224.97277606109608,129.57891284239963,111.46290218319469,132.12266166657167,234.03252402029284,205.97728638361127
2.0687354020687354,21.79662238757158,2.5916564515866862,222.42724394287097,127.84651498758426,110.78649483622851,132.43267736534344,236.0680066537141,205.9408803300517
2.1021021021021022,10.820371438325248,2.5916564515866862,218.8513955160895,125.4835003404318,110.97747514290003,132.76274941937595,236.8146535144878,205.9071895661325
2.135468802135469,3.4308297453867738,2.5916564515866862,214.2582323887503,122.25230339086067,111.6009590697995,133.095277470612,236.86861645491248,205.8749470276773
2.1688355021688355,3.4308297453867738,2.5916564515866862,209.2535789086008,118.37492075955052,112.12467224757076,133.43468312308644,237.03632701051777,205.7681895528354
2.2022022022022023,3.4308297453867738,2.5916564515866862,204.0310958457281,114.1737205163746,112.57701261173936,133.74350010607623,237.1361252974056,205.6283280622397
2.235568902235569,3.4308297453867738,2.5916564515866862,198.47382651869543,109.73837466855028,112.94510790755751,134.04765269241736,237.4742143675256,205.4064621058683
2.2689356022689355,3.4308297453867738,2.5916564515866862,192.6176720288405,105.3867786251866,113.40863764757462,134.33527087001687,237.8351470839536,205.13088466068035
2.3023023023023024,-0.8505806180373012,2.5916564515866862,186.49714934886163,100.85623885449306,113.92251019125892,134.7225148141418,238.13039858067972,204.74447615704733
2.335669002335669,-1.9788200770684004,2.5916564515866862,180.16275549197525,96.070704695613,114.46386883973362,135.16216424912383,238.30540031795195,204.28772712982635
2.369035702369036,-0.4952194973526564,2.5916564515866862,174.16564791216712,90.85823343948974,114.950448954273,135.6422052786921,238.4478721673925,203.796090910168
2.4024024024024024,3.247929834199449,2.5916564515866862,168.19728055672897,85.402166720295,115.3767004448188,136.1726369542576,238.5277156598086,203.24783698398463
2.4357691024357693,3.247929834199449,2.5916564515866862,163.2468898511876,80.15030844426862,115.70287855198188,136.7564436297035,238.65812596659893,202.65726459824444
2.469135802469136,3.247929834199449,2.5916564515866862,158.3795884597902,74.52042868059715,115.92807187110496,137.33433223520467,238.80863830366965,202.07493695406453
2.5025025025025025,3.247929834199449,2.5916564515866862,155.27952707592405,68.69417297084323,116.20898324628136,137.92189594013493,238.8307498705814,201.49950038421483
2.5358692025358693,3.247929834199449,2.5916564515866862,153.816029081998,62.63465651941395,116.49201237555263,138.52179049985693,238.7716340397814,200.9093272302796
2.569235902569236,3.247929834199449,2.5916564515866862,152.88843966081984,57.471145422636816,116.72275214359,139.13515062116545,238.61680848429765,200.3156111533345
2.6026026026026026,3.247929834199449,2.5916564515866862,152.74710965351642,52.85627048317975,116.89652832184647,139.80799473343615,238.34459424637905,199.6844541775303
2.6359693026359694,3.247929834199449,2.5916564515866862,152.88393544851905,49.64618907012768,117.01025061812012,140.45315322798282,238.05065926023,199.1096726075181
2.669336002669336,3.247929834199449,2.5916564515866862,153.68550350063836,47.9396489163515,117.01912079895398,141.06647494864427,237.7496036740936,198.59645851692207
2.702702702702702,9.274586025282083,2.5916564515866862,153.8206077717051,47.34407645653648,117.01865447470144,141.61124783571776,237.4821026672424,198.19775051013127
2.736069402736069,17.477183058417296,2.865941543487222,150.65286233494783,47.416883580468166,117.15173593707252,142.15482298391277,237.15578443092988,197.8982885253748
2.7694361027694363,27.62249045468161,2.865941543487222,148.0126828146134,48.900143711306825,117.2089674278822,142.59085814496194,236.9540374186412,197.7300613540677
2.802802802802803,39.58421772183654,2.865941543487222,149.01922151442085,51.07177949903401,117.42766291758824,142.91167816099863,236.99175125070667,197.63281040213104
2.836169502836169,52.98106053925965,2.865941543487222,149.91166167827205,50.22803191998465,117.56621579948488,143.0506554845577,237.0576889782036,197.6891552320544
2.8695362028695364,67.73114973905072,2.865941543487222,150.51140479827907,45.42181558385537,117.57693993795436,142.97921760025469,237.20855471024012,197.8294011165412
2.902902902902903,83.18575258857258,2.865941543487222,152.69181051499345,41.10353297960801,117.63534742733847,142.75428158340844,237.30211800297667,198.0920125897832
2.9362696029362696,109.02520169640408,2.865941543487222,149.0458427086798,38.20722242144575,117.45169764224453,142.431820808293,237.60123083399088,198.43176709077363
2.9696363029696364,132.8249349436093,2.865941543487222,146.4204231222755,40.41174508246872,117.09955905599756,142.06682040188633,237.8933863677283,198.87938657413184
3.003003003003004,154.52933207272912,2.865941543487222,148.19381193473356,45.29631254413697,116.48114010912576,141.65346883565013,238.1848464594123,199.46372597493664
3.0363697030363697,173.60276392596955,2.865941543487222,149.49274927475489,46.9044443211516,115.85269102579996,141.13212924721756,238.405378866582,200.21213306503384
3.0697364030697365,190.5612212928798,2.865941543487222,151.46027275508496,50.03654030554753,115.24591056197764,140.5583417497664,238.5760678615426,201.1125615160541
3.103103103103104,204.6202229831811,2.865941543487222,151.26171726826914,53.69156806646265,114.65815437885996,139.88418466955727,238.60584321121195,202.1113154480922
3.1364698031364697,215.3429855662461,2.865941543487222,151.94459581999638,58.60734109982099,113.81134071538564,139.1799656819542,238.55278823023707,203.15300462304648
3.169836503169837,222.9311660634068,2.865941543487222,153.31254975387398,64.05800675618056,113.14650697939928,138.43031842084943,238.2724524175692,204.20338071998145
3.2032032032032034,228.3220839335444,2.865941543487222,152.0038997545522,68.81895379002188,112.775690999613,137.62090829747635,237.83722095277392,205.2532270110248
3.2365699032365702,231.56298579416185,2.865941543487222,151.01750925859275,73.02341619075334,112.55118437094178,136.81257257851175,237.1708367886744,206.30186986949303
3.2699366032699366,232.4798870394944,2.865941543487222,150.80758872948542,76.74966535619875,112.3097396251005,135.93886681041036,236.3681881068296,207.3358076858471
3.3033033033033035,230.81252628407583,2.865941543487222,151.45726694971978,80.77639202522684,112.25183873039128,135.00075526454242,235.361058822253,208.3436624109688
3.3366700033366703,226.4501030103664,2.865941543487222,152.5451796855794,85.54937412635108,112.35417247529269,133.98883791461893,234.22945634221435,209.3418496692537
3.3700367033700367,219.84219103688932,3.816579497990968,153.69148183817538,90.6515923320807,112.74567511159624,133.00862764759262,232.91940402447537,210.24482349067492
3.4034034034034035,210.54307557802457,3.816579497990968,155.8499730156948,96.21273658667224,113.36971433677788,132.0017305161534,231.44409562176463,211.12764513199724
3.4367701034367704,198.8666279777394,3.816579497990968,157.99711573172658,101.5479041744457,114.1518217423516,131.0778857789689,229.7564555441303,211.91254142487972
3.4701368034701368,184.47471447796184,3.816579497990968,160.3465389717352,106.09386210014272,115.08717044891588,130.19309191191437,227.88101746958216,212.65684483373744
3.503503503503504,167.4298025779903,3.816579497990968,162.6574805967944,110.38116637786362,116.06029409132056,129.39454290627364,225.92438220323228,213.2860571084894
3.5368702035368704,148.34524050005575,3.816579497990968,164.55340106087436,114.67502722063468,117.23549595389144,128.8980984236578,223.7544571284222,213.70844668479145
3.5702369035702373,127.65413398062684,3.816579497990968,166.33423717037005,118.88391787034396,118.62985585786946,128.59726229493398,221.3678034538279,213.95133390150085
3.603603603603604,103.31971629766684,3.816579497990968,167.74884905435962,124.79747706987916,120.13247552273458,128.32886202982,218.88212612369813,214.0352497638696
3.6369703036369705,77.79689174147389,3.816579497990968,170.2244553207183,130.07074299658592,121.73402200224191,128.20417547677246,216.33568680191024,213.97153848538912
3.670337003670337,62.73312946472089,3.816579497990968,172.15184258665022,134.83527853199786,123.57591595087132,128.2389333006729,213.79830173165828,213.77439416503435
3.703703703703704,48.71174729621366,3.816579497990968,172.4179067409338,138.85827505223833,125.49864040442642,128.37331814682372,211.3638339069973,213.4423120781834
3.737070403737071,36.22185259304159,3.816579497990968,173.1310503769027,142.2284080844639,127.46600991790218,128.70756664534684,209.061485280722,213.00899339109932
3.770437103770437,25.01256004510396,3.816579497990968,172.11017651816368,143.06368747369993,129.4745412860198,129.03364445362942,207.01823155307736,212.50930645993188
3.803803803803804,15.82685792909172,3.816579497990968,170.4822866948824,144.6077744899044,131.43886315171116,129.2775829026398,205.19213669840167,212.0173515844096
3.8371705038371706,8.581668390225975,3.816579497990968,168.1955760377873,144.59392878832108,133.55391063031487,129.67639983020737,203.52086881788944,211.51008219128693
3.8705372038705375,3.47173988521542,3.816579497990968,164.76908261245163,135.7579025575952,135.7249627634436,130.23825306731834,202.14091275538647,210.8599728925355
3.903903903903904,0.5402218445962188,3.816579497990968,165.60609168636933,127.62165479956155,137.68710521520114,130.9681723202516,201.10299890476907,210.1913988531472
3.937270603937271,-0.3708270196918635,3.816579497990968,167.32069996881958,127.29983772716776,139.5805833062198,131.86128501233125,200.3364789926348,209.4186953186792
