Time,Left Shoulder Angle,Right Shoulder Angle,Left Elbow Angle,Right Elbow Angle,Left Hip Angle,Right Hip Angle,Left Knee Angle,Right Knee Angle
0.0,33.90210662374386,12.45580437923094,209.6235949003513,207.26225696279457,217.1414341345884,221.3198958691752,157.784931063841,157.12121134822843
0.0333667000333667,33.895308212778964,13.49193047416715,209.83628409915408,209.83872607745548,216.87223652657207,221.35491444688483,158.02978638359787,156.95265737359375
0.0667334000667334,33.924895151104685,14.512415942947346,209.97708126837887,211.913753168786,216.6633424914782,221.3487963385593,158.22553678139803,156.86368171571834
0.1001001001001001,33.98600976415304,15.516095532344965,210.05173622741265,213.5167390417688,216.510025732356,221.3069456778829,158.37525868664483,156.84660285129985
0.1334668001334668,34.07379437735603,16.50180398913345,210.0659987956421,214.6770845013864,216.40755995225507,221.23476659854,158.48202852874152,156.89373925703586
0.1668335001668335,34.18339131614566,17.468376060086243,210.0256187924542,215.4241903526214,216.35121885422484,221.1376632342148,158.54892273709137,156.9974094096241
0.2002002002002002,34.30994290595394,18.41464649197679,209.9363460372357,215.78745740045647,216.3362761413148,221.0210397185914,158.5790177410977,157.14993178576216
0.2335669002335669,34.448591472212875,19.33945003157852,209.80393034937347,215.7962864498742,216.35800551657448,220.8903001853544,158.57538997016374,157.34362486214766
0.2669336002669336,34.59447934035448,20.241621425664896,209.6341215482544,215.48007830585715,216.41168068305333,220.75084876818772,158.54111585369282,157.57080711547832
0.3003003003003003,34.742748835810765,21.119995421009342,209.4326694532652,214.868233773388,216.4925753438008,220.608089600776,158.47927182108816,157.82379702245169
0.333667000333667,34.888542284013724,21.97340676438531,209.2053238837929,213.9901536574492,216.59596320186645,220.46742681680325,158.3929343017531,158.09491305976547
0.3670337003670337,35.02700201039538,22.80069020256624,208.9578346592241,212.8752387630236,216.7171179602997,220.33426454995384,158.28517972509084,158.37647370411727
0.4004004004004004,35.15327034038772,23.60068048232556,208.6959515989459,211.5528898950935,216.85131332215008,220.214006933912,158.15908452050476,158.66079743220476
0.4337671004337671,35.26248959942277,24.372212350436733,208.42542452234497,210.0525078586417,216.993822990467,220.11205810236208,158.01772511739807,158.94020272072555
0.4671338004671338,35.34980211293254,25.11412055367319,208.1520032488082,208.4034934586508,217.13992066830005,220.03382218898827,157.8641779451741,159.2070080463773
0.5005005005005005,35.41035020634902,25.82523983880838,207.8814375977224,206.63524750010333,217.2848800586986,219.98470332747488,157.7015194332361,159.45353188585764
0.5338672005338673,35.439276205104235,26.504404952615733,207.6194773884745,204.777170787982,217.42397486471225,219.9701056515062,157.53282601098732,159.67209271586424
0.5672339005672339,35.43172243463048,27.15045064186886,207.37187244045293,202.85866412727097,217.5524787893922,219.99543329476816,157.36117410783237,159.85500901309604
0.6006006006006006,35.23577040057486,27.31817761467881,207.4528395154024,200.60759659316795,217.63674405738024,220.2060963767437,157.21523639054917,159.92557372846792
0.6339673006339673,35.06131304422435,27.96815442435354,207.39959481409983,199.08746443250683,217.70034587402725,220.434844199804,157.0371642728633,159.8558154296421
0.6673340006673341,34.84365510749669,28.734586986645063,207.34620336535207,197.58167325326943,217.72978173298128,220.7388735310425,156.86753656335384,159.7266652233256
0.7007007007007008,34.476089043325054,29.29657774531746,207.46490123739744,196.40133503915263,217.55693203090743,221.035783853197,156.76575373338233,159.51186306117572
0.7340674007340674,34.03422218414081,29.82453810012333,207.57593691471592,195.1331249962183,217.3507174042736,221.3962139805157,156.69473282268552,159.23533213340542
0.7674341007674341,33.87019273425085,30.50186047046913,207.3629155917264,193.75142014331016,217.27740115458627,221.84236194885972,156.50437549988214,158.9399759917395
0.8008008008008008,33.67478986779755,31.135000344250177,207.0910067299052,192.2825987920048,217.21900225076,222.3531932635525,156.32646098089523,158.59171980766592
0.8341675008341676,33.52811477648514,31.7498105496012,206.72174209311103,190.84728162380625,217.2768411845791,223.03938876887528,156.06814418085688,158.0969695563493
0.8675342008675342,33.221285202251224,32.226109523405725,206.45449966204083,189.4941326303652,217.2685615320381,223.7896188490324,155.88053175107746,157.52299969078516
0.9009009009009008,32.87749836721198,32.58083085559622,206.2238991742952,188.58513409434133,217.20084625563769,224.58029001636243,155.76908235812306,156.97235235235266
0.9342676009342676,32.374222443181814,32.74597375953065,206.1585761022908,187.7487356984722,217.05045097420944,225.4060939754779,155.75915322027126,156.37479565256754
0.9676343009676344,31.799564744015907,32.80137785386466,206.3198753563525,186.99824683687365,216.8585286807277,226.23289001296,155.85117906078506,155.842038499668
1.001001001001001,31.055033257363927,32.65781029731625,206.550901999623,186.28095259171715,216.59318392125687,227.0304342451197,156.0425495857514,155.2997376507057
1.0343677010343677,30.003412071884345,32.35085713239492,206.7348320764492,185.9520826226713,216.2058778054337,227.7977488310921,156.3269803985258,154.67111581019563
1.0677344010677343,28.802625379572124,31.814594896837765,207.0735287143985,185.616106172716,215.71578142939444,228.50621931040743,156.68828812065732,153.9824555004773
1.1011011011011012,27.41398919945283,31.05390236922417,207.2634164551241,185.697029569766,215.1076835150107,229.1557699438877,157.1557985277529,153.23355361533433
1.1344678011344678,25.96565256695856,30.17647660547471,207.51191841742872,185.5280259581974,214.4058648344032,229.735222749302,157.71687249061938,152.48514051300472
1.1678345011678346,24.45037099319813,29.282139307433063,207.81249632628052,185.22553281072177,213.6466133300614,230.2599921138141,158.34381396830412,151.78116038525226
1.2012012012012012,22.943322909111007,28.368168020449293,208.11053987005505,184.55363552056096,212.829916620216,230.74159254972773,159.03740029277324,151.1181875367085
1.234567901234568,21.25079726831099,27.27971621555817,207.9148132817256,185.01454539413407,212.0012102484432,231.1401822571848,159.79050110780815,150.557634561847
1.267934601267935,19.54211420743973,26.022294032250628,207.9912251232895,184.88080024585284,211.1370270943636,231.50057720872653,160.58206012076042,150.0642503207397
1.3013013013013013,17.879220655065076,24.598916828018123,208.67128003362728,183.60984771915807,210.25471636203108,231.80778729687697,161.40023891512544,149.65147017358512
1.334668001334668,16.30310696816193,23.16188916489052,209.58211767899493,181.84178161863417,209.3527154299398,232.06025231448447,162.23872733447527,149.30381673968583
1.3680347013680347,14.853778277683045,21.60884966225545,208.9987595428639,180.1828090834355,208.4538083743661,232.28735544270893,163.0935581191763,148.98464728160775
1.4014014014014016,13.528988603253303,20.075558409764632,208.8112860826746,178.20470192690885,207.54223913562907,232.43679299251883,163.9630541514102,148.7248833695169
1.4347681014347682,12.182560390758145,18.40934803656968,210.0636669960292,176.1005642159272,206.6038870425854,232.5028235491684,164.83999412792878,148.53698295063575
1.4681348014681348,10.957599317700057,16.76387216633128,214.64421830715068,173.7374507388189,205.6566314008856,232.6480532375137,165.69389388039033,148.2061093392888
1.5015015015015016,9.93031761060726,15.059825950817627,215.7337126030631,171.24958145886782,204.7227223312669,232.8015187311022,166.498572104949,147.86526417230638
1.5348682015348682,9.12386733274514,13.4755723116308,216.74207186700417,168.65017533942387,203.82669408524072,232.93802625455763,167.25117216162943,147.5227243302474
1.5682349015682349,8.519917165621896,11.963358211235883,224.57829207325972,166.01112716603535,202.9798424908607,233.0538409702968,167.94520874132377,147.1576568586344
1.6016016016016017,7.888212698207756,10.73480291640285,230.9731481777667,163.3118695997946,202.1713639351498,233.1754863115748,168.5601898636723,146.80816481209746
1.6349683016349683,7.194740335173012,9.819311475156756,236.39185748022743,160.73679623549737,201.3918845623776,233.2746869745256,169.0897648110141,146.49194201425365
1.6683350016683351,6.84967326071584,9.21608120465144,239.8926187004464,158.04945853567756,200.5827413498239,233.40243757962332,169.63562992820894,146.1243828806156
1.7017017017017018,6.653520637077958,8.54298118286264,242.0718351251362,155.11213851989243,199.78794900845216,233.50096576440245,170.1562757046246,145.76233575038344
1.7350684017350684,6.745932259000749,8.149218323896372,242.4465437066021,152.09891596722616,199.051444583921,233.63653932507603,170.58538767521617,145.17411271276404
1.7684351017684352,6.974533668233472,8.0815801270597,241.0509101827876,149.27716564081402,198.39505609739703,233.75606941947623,170.92087534285443,144.48952940170534
1.8018018018018016,7.432298669631729,8.375756608286178,238.21246711529875,146.64945314201287,197.80731634884367,233.91491870914257,171.21224851824493,143.82824525604713
1.8351685018351689,8.19675215230978,8.795882798545316,234.02683516836268,144.1759857350219,197.2987170110533,234.0798175576342,171.42848883257585,143.1185420129487
1.8685352018685355,9.415151934637322,9.245040800031688,228.3728508914537,138.4664575734109,197.09245306872592,234.336283379417,171.4826377642084,142.4248934219565
1.901901901901902,10.954944366411445,10.50277653288584,221.43720194535737,137.04676712771334,197.09690506200403,234.6398324526855,171.37920208603214,141.7254553213586
1.9352686019352687,12.441429918383612,12.081656815128463,213.68586251177572,135.93959101266083,197.1199023067205,234.9662980446544,171.2973766085731,140.95956987500708
1.968635301968636,14.034316011073397,13.105994050028832,205.05185327224612,132.1494865339508,197.21734934896213,235.3394506691198,171.17148010301207,140.1441928884375
2.002002002002002,15.615790972942284,14.513544965026735,195.7951734372631,129.68082040659058,197.2286747974516,235.6045900629377,171.14507783635892,139.4024475015102
2.035368702035369,17.351591957759815,16.46448290079229,186.01514655572493,128.1753668781525,197.28532521346705,235.83330422815075,171.1187872724811,138.69977488371097
2.0687354020687354,19.060453309132225,18.85886702954468,175.78554715168022,127.3157891766783,197.3748522430008,236.02500142010737,171.10209793689228,137.94293886998474
2.1021021021021022,20.65638712613608,21.6680653415092,164.93756983415335,127.22141493774258,197.4823681136899,236.15793930132284,171.07957087945437,137.20980453837288
2.135468802135469,22.112231169373374,24.741599632049244,153.5737585908845,128.0315005172875,197.57237115689856,236.2428792635821,171.05380910978332,136.37510353544957
2.1688355021688355,23.3602723319543,28.026153391546288,141.86602246444866,129.84608551327457,197.6394094195671,236.2959404445124,171.03228312988546,135.48992981308555
2.2022022022022023,24.744400561587685,31.466198677694106,130.18391647992632,132.24707440910163,197.7588479011072,236.31456528761024,171.02044465618718,134.64079867998646
2.235568902235569,26.196945280534287,35.05763657133599,118.48392956210056,135.53883082774323,197.90057562887816,236.33890057842063,171.03542832461858,133.8159610445522
2.2689356022689355,27.77596621244381,38.70397895226658,107.23501198944332,139.22294604533084,198.11597054219763,236.35262674558675,171.05216191851162,133.0894393917326
2.3023023023023024,29.28265385918291,42.41701926006512,96.3439941142092,143.54953652475203,198.40831146988805,236.3722956250348,171.06371670873096,132.43930041947945
2.335669002335669,30.77265391739129,45.980540705719655,85.95951604063218,148.45251398215586,198.7381823942152,236.39324252239425,171.0904414449105,131.8307345055417
2.369035702369036,32.13498161617546,49.289904042995175,76.11817532146075,154.0153786477282,199.0870396620705,236.436374406095,171.14223445882027,131.2656400151223
2.4024024024024024,33.72988171414762,52.47523621243189,67.72704813956032,158.38506057358055,199.42525632990672,236.50774130016487,171.20349433663995,130.6963711298435
2.4357691024357693,35.35250903063863,55.5906839088051,60.46886086998875,162.752366896325,199.71352948118025,236.584424962002,171.37300216171232,130.1452515635739
2.469135802469136,37.01914844972931,58.69988181324213,54.05437550642748,167.83279046105986,199.9902782030993,236.6876721659389,171.56000939080317,129.5741548996576
2.5025025025025025,38.80118072801714,61.91829360522855,48.92034185909073,173.0856001422968,200.28961025527428,236.79082106747924,171.7360504218576,129.0082397311294
2.5358692025358693,40.56127283492106,65.16706281150559,47.25928127888814,177.85711823348046,200.5853127822718,236.8586728672732,171.87042622152114,128.5001512593528
2.569235902569236,42.33279276464746,68.17294246400789,47.9479010331974,182.55981039251373,200.8938810970085,236.90374415058065,171.95845188551226,128.06503797046872
2.6026026026026026,44.17945799089675,71.01918561076113,49.61968178350418,187.0825988468918,201.2132426993515,236.97533388759328,171.98988364728453,127.69207944931608
2.6359693026359694,46.101820859190646,74.00315244259906,49.39453851815672,191.1473241611953,201.50867886827567,237.07014581042344,172.03175590717268,127.29951841530452
2.669336002669336,47.85063477049604,76.86459981645157,53.97808240060679,194.93463905125608,201.80643243325795,237.2021027754573,172.03956369914735,126.88077250642944
2.702702702702702,49.68887021873886,79.43728007845169,61.25702418326343,201.8903382167409,202.02348465768827,237.3476710960005,172.15540678925234,126.47438039645398
2.736069402736069,51.19606030027237,81.6444710037314,62.02510432124845,207.70922136754945,202.25915449468908,237.476346945598,172.1731813993263,126.15566104221642
2.7694361027694363,52.586175420626525,83.72297542598221,56.14623332568326,212.439149291646,202.39995695266572,237.62830021801457,172.29673914415602,125.85834082283677
2.802802802802803,53.67783320151933,85.07575065462026,51.891497394531925,215.7384504889578,202.59194359847345,237.78161643134845,172.26649810489627,125.6327349424976
2.836169502836169,54.49059996128023,85.77197484625593,46.05602618644108,217.22802662180536,202.7774927110112,238.00425381077463,172.25925088496368,125.42502632023438
2.8695362028695364,54.88364200351518,86.1325458689006,42.37721014478464,217.65767042985107,203.07130721960343,238.2181364212021,172.01344320983551,125.29883752092636
2.902902902902903,54.667506199858586,86.88948431982845,42.2827852984793,217.86919612515064,203.54811913085143,238.4470031452017,171.46878021106755,125.24412413307422
2.9362696029362696,54.230777294067074,86.48251616512805,44.247734148918816,216.7334483235676,204.1391062687575,238.63926754156984,170.64365988593167,125.32546625807583
2.9696363029696364,54.290425244528414,84.45438262112768,48.239375237288094,213.632176686645,204.8299057965283,238.99387279888072,169.59959396442136,125.28264930035223
3.003003003003004,53.781475929648,82.08922981497157,53.78162718522626,208.75535857990084,205.55856774887872,239.3236775293213,168.35708249006856,125.32718431086404
3.0363697030363697,52.58343099331093,79.4068396926876,60.6971403102667,205.3438334996196,206.26206467664704,239.61424656484863,166.97166698241935,125.41803753437438
3.0697364030697365,50.98250409802348,75.95477742864448,68.77760483008126,198.12053622517607,206.93982595144325,239.77803193715,165.43004925703798,125.68318367613551
3.103103103103104,49.12611813713511,71.57724033573665,77.65371926068951,190.1202228875593,207.6450598196334,239.9267531546401,163.69266788700153,125.995574990036
3.1364698031364697,47.0238714238896,67.90952659397561,87.48399424289477,185.33243685360225,208.348132747466,239.9362746244968,161.81482761271528,126.5137506078542
3.169836503169837,44.3241471011159,64.2677377739598,98.41795372284956,180.25010616956632,208.94493073281987,239.8316866696724,159.8003261274702,127.25233851493202
3.2032032032032034,41.386860782813535,60.61256216577545,109.86446418128094,175.61149928375275,209.51434061365305,239.54411303934828,157.6954128075345,128.20854388739517
3.2365699032365702,37.68800345641628,56.930507843913816,122.3661794232364,171.23590370035762,210.0551474344019,239.21007464450847,155.43388471872657,129.3301218089034
3.2699366032699366,34.12884892155281,53.308809125849706,135.1985784370476,167.39162293980965,210.5934287866349,238.6591068277681,153.14877733024173,130.64320767451647
3.3033033033033035,30.8225677918268,50.106249430054056,147.91785060425138,163.59714509623788,211.144927001092,237.97539032977832,150.81984733395237,132.05709078571195
3.3366700033366703,27.66184431466316,46.96353636770469,160.8925920906404,160.55618329105795,211.7008812869795,237.0557912690533,148.56861232176243,133.6472713223781
3.3700367033700367,24.40061070038668,43.61560290395377,174.16665193858606,158.5243224166226,212.2652539506057,235.9410553032129,146.31695349341575,135.3199225730283
3.4034034034034035,21.276139624946445,40.37473419131926,187.23426290371933,157.01881153482577,212.79451429025585,234.58169232177576,144.20756003160682,137.19171601062322
3.4367701034367704,18.39775994824353,37.6373453831815,200.180390319411,155.88043150328298,213.35812119433075,232.98302488276408,142.2479541739903,139.23279337679304
3.4701368034701368,15.70919248407906,34.99231093003099,212.76781163676435,155.55198392554257,213.8562053628575,231.28826855348203,140.5029443653604,141.37454980326444
3.503503503503504,13.676256674386217,32.95223181333701,223.83769480621604,155.303101686148,214.1968718016165,229.3910518449064,139.0672583369125,143.61830643842714
3.5368702035368704,12.472650938390316,31.87328178011982,233.5226664116329,154.71647218026803,214.1672192734588,227.34941868422408,137.917937725862,145.9840076390527
3.5702369035702373,12.046267398064757,30.63270128274871,241.98120477641672,155.1205776001039,214.1027535312336,225.1484215542964,137.10864414281372,148.32915628128305
3.603603603603604,12.31158724298266,29.532665253030974,249.46711110793925,156.52286143208323,214.1163323104071,222.8766485129439,136.56427051624772,150.52990025094212
3.6369703036369705,13.010584648689802,29.268430291544195,263.3220306291491,158.1747776720072,213.7897397530434,220.52824836740828,136.37727709904965,152.79143961574044
3.670337003670337,13.821039583545822,28.73987930290406,273.7144981922966,161.35995056291767,213.31346533241847,218.2800538864016,136.5375859569197,154.91729412035602
3.703703703703704,14.810831832985455,27.917907500499147,272.2902235818153,167.0018881236611,212.9029778077285,216.1932799749489,137.08943886177383,156.6263575427656
3.737070403737071,15.679460373935736,27.5342029096016,275.44471819662334,173.904896716444,212.2598094008688,214.1256448350151,138.03085816086428,158.32735876802874
3.770437103770437,17.221970831708088,25.55337696119572,278.11608250440105,188.45819290272192,211.0037403780555,212.2356135385333,139.2080640657028,160.08197181130407
3.803803803803804,18.510448132097693,24.83456794462873,276.90137727292915,202.18298723617292,209.6343937404345,210.4458815140941,140.73120051967456,161.72591646970753
3.8371705038371706,19.85408254803578,24.93856165535044,270.1449754497238,213.27550035610764,208.1896093068452,208.8027336952229,142.63491701753662,163.2099505693988
3.8705372038705375,21.37461735496904,24.917711501091045,259.4162363654168,219.40443935273925,206.76025217769225,207.276537311879,144.6434599897687,164.60797064213037
3.903903903903904,22.621906961258112,25.24379447149477,244.4302793509341,212.3067730379308,205.4266699269912,205.8282992576239,146.7763734547818,165.7966844401403
3.937270603937271,23.02476000995722,25.7938272169594,234.2558027617859,206.5818487120188,204.32065515501776,204.52116388050928,148.7962976962727,166.79831092004517
