Time,Left Shoulder Angle,Right Shoulder Angle,Left Elbow Angle,Right Elbow Angle,Left Hip Angle,Right Hip Angle,Left Knee Angle,Right Knee Angle
0.0,14.82450412513323,25.413769029443724,159.71752569516394,170.98693727263964,142.02617259846187,142.6663518481664,197.1089864199348,195.9533852468313
0.0333667000333667,15.054559325786895,25.55510807988642,159.46850288347838,171.4279240015975,141.3852684745107,142.27427138894546,197.79650206817428,196.2193004045205
0.0667334000667334,15.22791269263844,25.64846194348627,159.2307178554194,171.77591818740646,140.8349204516476,141.93549181087064,198.41056027537377,196.47312399455203
0.1001001001001001,15.350207826516328,25.696747876381018,159.0074345706902,172.0357697623595,140.369525313794,141.64750534936613,198.95455425461896,196.7149001303596
0.1334668001334668,15.427088328249024,25.702883134708408,158.8019169889941,172.2123286587496,139.98347984487123,141.40780423985615,199.4318772189957,196.9446729253769
0.1668335001668335,15.464197798665,25.669784974606173,158.61742907003418,172.31044480886968,139.6711808288007,141.21388071776485,199.84592238158976,197.16248649303785
0.2002002002002002,15.46717983859272,25.600370652212067,158.45723477351382,172.33496814501265,139.42702504950378,141.06322701851653,200.2000829554868,197.368384946776
0.2335669002335669,15.441678048860656,25.49755742366382,158.32459805913618,172.29074859947147,139.24540929090188,140.95333537753535,200.49775215377267,197.56241240002515
0.2669336002669336,15.393336030297272,25.364262545099184,158.2227828866045,172.18263610453914,139.12073033691638,140.88169803024553,200.74232318953304,197.74461296621908
0.3003003003003003,15.327797383731037,25.20340327265589,158.15505321562205,172.01548059250854,139.0473849714687,140.8458072120713,200.93718927585377,197.91503075879152
0.333667000333667,15.25070570999042,25.017896862471687,158.124673005892,171.79413199567264,139.01976997848016,140.84315515843687,201.08574362582053,198.07370989117612
0.3670337003670337,15.167704609903888,24.81066057068432,158.13490621711762,171.5234402463244,139.0322821418722,140.87123410476642,201.1913794525192,198.22069447680684
0.4004004004004004,15.084437684299909,24.58461165343152,158.18901680900214,171.20825527675674,139.07931824556618,140.9275362864842,201.25748996903533,198.3560286291172
0.4337671004337671,15.00654853400695,24.34266736685103,158.2902687412488,170.85342701926265,139.1552750734835,141.0095539390144,201.28746838845487,198.4797564615411
0.4671338004671338,14.93968075985348,24.0877449670806,158.4419259735608,170.463805406135,139.25454940954555,141.11477929778127,201.28470792386352,198.59192208751213
0.5005005005005005,14.889477962667964,23.822761710257964,158.6472524656414,170.04424036966682,139.3715380376737,141.240704598209,201.25260178834705,198.69256962046413
0.5338672005338673,14.86158374327887,23.55063485252087,158.90951217719382,169.599581842151,139.50063774178938,141.38482207572176,201.1945431949912,198.7817431738308
0.5672339005672339,14.86164170251477,23.27428165000725,159.2319690679226,169.1346797558819,139.63624530581507,141.544623965745,201.11392535688327,198.85948686104763
0.6006006006006006,15.004629802802,22.98688590226848,159.86784503225047,168.64702308687802,139.74058589944602,141.69512360025203,201.09322261433672,198.8952584929071
0.6339673006339673,15.207565616980911,22.764402325890654,160.50631190790017,168.2246075016317,139.79199708550203,141.84413904611108,201.0582663296304,198.941985722288
0.6673340006673341,15.52847277527835,22.532224521753022,161.23255149086927,167.7972836609155,139.78285242175295,141.96592360821467,201.0227027109597,198.9819974859493
0.7007007007007008,15.925581142073272,22.29852909731412,162.02893688980987,167.37083826148643,139.73283009619533,142.11820371060205,200.9783862888216,199.0196810511528
0.7340674007340674,16.38484095702043,22.08900445134718,162.9291376918169,166.95027047921334,139.72117277029977,142.2969748253325,200.88820788068176,199.0346977341047
0.7674341007674341,16.879594720549093,21.90396906142631,163.87350475710127,166.54899036352813,139.68798259406054,142.4911512547615,200.76310097371527,199.03762287424823
0.8008008008008008,17.40273195528906,21.746317719300286,164.83295444444116,166.18302776251662,139.62600681238246,142.67953495567582,200.62254868797407,199.05398731206785
0.8341675008341676,17.91930297532124,21.632419412995294,165.7854602043741,165.89772198904316,139.5722445884244,142.86944892798277,200.43473611243724,199.09149980478304
0.8675342008675342,18.3697914387525,21.51932857128445,166.65128639687003,165.59653513498978,139.53665918636918,143.049947418003,200.2300728203273,199.1473387697455
0.9009009009009008,18.775778312502805,21.41644367294577,167.45425984427055,165.2370551802631,139.5370290680844,143.2507869557259,199.98890041171128,199.1817666113628
0.9342676009342676,19.15247613593253,21.327652581254352,168.29266033818283,164.90010665019605,139.54451618223305,143.47575170591406,199.7520473006309,199.17579847154144
0.9676343009676344,19.49475069514757,21.163080435793745,169.10567375356771,164.47048240326475,139.51117935316776,143.69978911909155,199.5234592426461,199.1756894627872
1.001001001001001,19.802021591442102,20.97091147062197,169.9263590532459,164.02097131253564,139.50970728609863,143.95766501789248,199.2636010122907,199.13550099782697
1.0343677010343677,20.058587358202253,20.731900589049847,170.73392063720357,163.48804813912167,139.5024207335993,144.2168698445362,199.0209679629408,199.0658950831126
1.0677344010677343,20.31491802399456,20.513037554553424,171.52620704542713,163.07222655088003,139.4784359068933,144.50073216093315,198.79737269970013,198.95538203532283
1.1011011011011012,20.594960881133748,20.30548090879721,172.3548625829087,162.73453161749063,139.4394666791779,144.80325109042855,198.58428173940536,198.80337463793
1.1344678011344678,20.853697193181336,20.067016703257263,173.17545567050252,162.40504593487313,139.44329451301914,145.12283558539184,198.36003425975085,198.6180549355316
1.1678345011678346,21.1124576815308,19.847022007890228,173.998995942237,162.09342170906174,139.48781387947366,145.43756137178983,198.14241143495732,198.41250108008632
1.2012012012012012,21.43210760980616,19.63486964010117,174.87911906097722,161.74261239739403,139.58560809184723,145.7500371221693,197.9323200522736,198.20540490906583
1.234567901234568,21.703954220927848,19.435798853147176,175.6843234543675,160.98206226742303,139.68029802729882,146.0414958091236,197.7372442075153,197.99088122912025
1.267934601267935,21.89668787400681,19.16638528572221,176.39406903070676,160.33667875773213,139.83613259037742,146.3275708077279,197.512393157567,197.7757095446101
1.3013013013013013,22.17878496513145,18.85206192924841,177.32371470133606,159.70832871071772,140.0478220114178,146.62278272849187,197.27020236521372,197.52075452574425
1.334668001334668,22.406494363017543,18.440305945564145,178.25477164522766,158.90396945922492,140.2235818856441,146.93411845696252,197.03994084245448,197.2485794971475
1.3680347013680347,22.641202488472512,17.957654769059676,179.15239162989295,158.01335749554008,140.39839048203916,147.2525193924191,196.81068332712425,196.9833093221732
1.4014014014014016,22.652893453542475,17.30993471516244,179.38532135320648,157.0753824188298,140.62540100543194,147.61477112586795,196.52160812753533,196.6641623284467
1.4347681014347682,22.36153275919682,16.64055138335397,178.87349982659543,159.40753521687813,140.79969316250313,148.03572850793051,196.25725040721028,196.28344578312107
1.4681348014681348,21.70796427164692,15.73826368381438,179.26669073798703,158.225427363148,140.8832496449714,148.49106611929702,196.05699176866312,195.8508060048081
1.5015015015015016,20.699346166088542,14.514076475401342,182.06206742478588,156.27197281506616,140.88970513716905,148.97150868941594,195.90270061171893,195.3425917373491
1.5348682015348682,19.62265874651117,13.48301710967774,183.53805147506705,155.09756109095014,140.78299561467483,149.4792007691916,195.84380266358903,194.7761736294755
1.5682349015682349,18.40373152199044,12.555202263082238,184.4116628345668,153.88224159579363,140.47460839294982,149.9770970025663,195.9058778614329,194.19413551021515
1.6016016016016017,17.29657821088647,11.942795919082576,182.8923477564693,152.46840909688046,139.9111199695223,150.45547585220385,196.0672300211222,193.57936842033328
1.6349683016349683,16.334519154356112,10.770547743446311,184.1348359363387,150.39902576748625,139.28008104682732,150.9010093960106,196.312626559121,192.97704897415016
1.6683350016683351,15.611340397320564,9.833746637058551,185.20265487106195,147.91261281411346,138.72154769708072,151.33044925967204,196.60941977484327,192.40904259297892
1.7017017017017018,15.035276624781282,9.092151090656774,185.80191474924905,145.36622181325507,138.146385491198,151.72508261907734,196.99060062787007,191.8833673782632
1.7350684017350684,14.621750481452931,8.518222834510105,185.92130253392807,143.67973125390773,137.57041153342723,152.0910781798599,197.44294733297968,191.40933762244552
1.7684351017684352,14.397217908983048,7.986372367514521,185.70846873999656,141.12804047097063,136.95306771106982,152.4430852414303,197.9579434748281,190.98510866833269
1.8018018018018016,13.978134131011416,6.882751222509918,184.78285463508988,139.44281165549694,136.30805584918394,152.7463039807327,198.5325187306948,190.61470417182764
1.8351685018351689,13.672178580820882,6.035285657227377,183.2603579147332,137.99613107577952,135.62562920853983,153.06157848400755,199.14776313280743,190.32137140629288
1.8685352018685355,13.975794815050104,6.035285657227377,182.2824068971438,136.20683445320566,134.98207785447855,153.3321456852761,199.7845587334504,190.0907151815298
1.901901901901902,14.100151222791546,6.035285657227377,180.67346065361795,134.20740768342435,134.3592178355051,153.520574121179,200.44734175577983,189.9431161710478
1.9352686019352687,5.245319925651948,6.035285657227377,178.2471642584473,132.30731066069944,133.74865938677735,153.63138875550592,201.12047994638127,189.8799709675951
1.968635301968636,-0.1233231623565895,6.035285657227377,175.37844501618696,129.10797269631192,133.22178714207703,153.67502152786545,201.7705652210257,189.88227651107243
2.002002002002002,-0.1233231623565895,6.035285657227377,172.19292150189116,123.25753760679288,132.77115196613008,153.65093130015208,202.4168393078052,189.9287638275731
2.035368702035369,-0.1233231623565895,6.035285657227377,169.20362448462274,117.64041541246444,132.37121883802868,153.56706824737293,203.03743102178527,190.0028522674647
2.0687354020687354,-0.1233231623565895,6.035285657227377,166.36244217233212,112.06219907375257,132.01212962746416,153.37629092926363,203.63297611504024,190.1138188391048
2.1021021021021022,-0.1233231623565895,6.035285657227377,163.59403229788262,106.48301163567491,131.69075477353593,153.09375730917407,204.18731243669177,190.2803193052327
2.135468802135469,-0.1233231623565895,6.035285657227377,160.97333992508646,100.47584528689188,131.47829808234738,152.7752953019074,204.67579463924616,190.46580667801385
2.1688355021688355,-0.1233231623565895,6.035285657227377,158.55665641916997,95.04551298328954,131.29634817095928,152.39124783843292,205.14850461380857,190.7076719777496
2.2022022022022023,-0.1233231623565895,6.035285657227377,156.439045369932,90.17346097706962,131.14919389510322,151.95800041466538,205.56983754836543,190.98941592963644
2.235568902235569,-0.1233231623565895,6.035285657227377,154.63540678095478,85.56417883521125,131.03486985493743,151.4583306087062,205.9478145705348,191.32485807083705
2.2689356022689355,-0.1233231623565895,6.035285657227377,153.06553319412046,81.02352623036464,130.99813624634072,150.9121784448214,206.2731881987564,191.71658029332363
2.3023023023023024,-0.1233231623565895,6.035285657227377,151.7591049489883,76.64806973403218,131.01147657684123,150.32747422999222,206.54764402767927,192.1525974903732
2.335669002335669,-0.1233231623565895,6.035285657227377,150.79867937410646,72.45252968596304,131.0811822573141,149.72585974543952,206.74816607811965,192.61092453176704
2.369035702369036,-0.1233231623565895,6.035285657227377,150.14553793074455,68.74287248299991,131.18719688400296,149.11754044952227,206.86844927184595,193.0675066495096
2.4024024024024024,-0.1233231623565895,6.035285657227377,149.94230580046056,66.00232667562034,131.36276888881164,148.52328986002604,206.9059595257673,193.52053075156343
2.4357691024357693,-0.1233231623565895,6.035285657227377,150.26665822363248,63.69606044890827,131.52422282555838,147.9514907050805,206.9123590003916,193.9383048280096
2.469135802469136,-0.1233231623565895,6.035285657227377,150.77203982731564,61.95795603833412,131.63295608153257,147.39616657177532,206.90154562122427,194.35116346191344
2.5025025025025025,-0.1233231623565895,6.035285657227377,151.59701469571195,60.93870350093192,131.74000689972294,146.88616324052876,206.8518850319697,194.73039299128848
2.5358692025358693,-0.1233231623565895,6.035285657227377,152.6240382344841,60.65840788487654,131.8053629731071,146.4634158253466,206.77078427590985,195.02293687958496
2.569235902569236,-0.1233231623565895,6.035285657227377,154.6670387359191,61.07444526906834,131.7179747959435,146.1046651642223,206.7450823462865,195.27100732821725
2.6026026026026026,-0.1233231623565895,6.035285657227377,158.22885418703578,57.76074786164796,131.56743071042305,145.8086764864726,206.7246468758002,195.46632311581504
2.6359693026359694,-0.1233231623565895,6.035285657227377,161.6885352595484,57.33086006327061,131.35347589290512,145.57933775396327,206.69800025115,195.6007579648648
2.669336002669336,-0.1233231623565895,6.035285657227377,162.4518724326726,58.10069943305942,131.06565212298503,145.40104335346211,206.69542306138663,195.71453132103903
2.702702702702702,-0.1233231623565895,6.035285657227377,163.61059753978725,58.47714546871585,130.73398806832415,145.2472526699128,206.6803763109636,195.8282279250046
2.736069402736069,-0.1233231623565895,6.035285657227377,164.82662555058087,58.94944592468286,130.48049914858555,145.1381414796028,206.63544707198227,195.89833625495635
2.7694361027694363,-0.1233231623565895,6.035285657227377,168.77257487273363,59.57365926121496,130.42415639192205,145.07333633594553,206.56846469984453,195.9656263433156
2.802802802802803,-2.396345057555452,6.035285657227377,170.1811027905203,60.94307242579985,130.44195385407713,145.06324514867953,206.49012565256555,196.02251155287863
2.836169502836169,-2.037938450757188,6.035285657227377,171.1752244939791,63.050116730234144,130.41173439300337,145.09715475151663,206.43872660942685,196.0604528030217
2.8695362028695364,0.8142623261064994,6.035285657227377,172.03314271040003,65.75387293939292,130.3871031116929,145.18598065825338,206.37371930648777,196.0724921362352
2.902902902902903,0.8142623261064994,6.035285657227377,172.70314749537852,67.74259588494762,130.3413861895566,145.319323685934,206.30002396545947,196.05566089476025
2.9362696029362696,0.8142623261064994,6.035285657227377,173.02580173293475,70.65619199457615,130.31729763782187,145.4748694257647,206.23095537390395,196.0115301187368
2.9696363029696364,0.8142623261064994,6.035285657227377,173.42038680259876,72.56600751801835,130.2973673124041,145.6682881420477,206.17637917328025,195.93939462321785
3.003003003003004,0.8142623261064994,6.035285657227377,173.90231976920214,73.66123194816461,130.3338529741912,145.8530431168149,206.13085026055623,195.83204422263904
3.0363697030363697,0.8142623261064994,6.035285657227377,173.17453775247466,74.29088575274918,130.3843109077451,146.0229538258539,206.1003224282585,195.70186632008136
3.0697364030697365,0.8142623261064994,6.035285657227377,172.16066193555824,74.13466291615151,130.41850931973192,146.18858393084506,206.0892981570377,195.54655226779772
3.103103103103104,0.8142623261064994,6.035285657227377,171.4559738409868,72.50189927707477,130.4898296045818,146.34214252209793,206.1131655007088,195.35776935731903
3.1364698031364697,0.8142623261064994,6.035285657227377,171.05102295176164,70.67121318261228,130.56830986267096,146.487864077069,206.1648436555305,195.1369160454373
3.169836503169837,0.8142623261064994,6.035285657227377,171.11024967382048,70.80823632842582,130.62618554235453,146.6464100624015,206.2414321562143,194.87985127420976
3.2032032032032034,0.8142623261064994,6.035285657227377,171.30550994985256,70.7289072410242,130.66374384077713,146.79934968502295,206.35178666733896,194.6118429804436
3.2365699032365702,0.8142623261064994,6.035285657227377,171.55928617278855,70.59184894492229,130.65730053378837,146.9551891174007,206.49829962933927,194.35501231857447
3.2699366032699366,0.8142623261064994,6.035285657227377,171.78150203079096,70.2339546053787,130.62688306003116,147.10197907849204,206.68351573033024,194.11582248807804
3.3033033033033035,0.8142623261064994,6.035285657227377,172.051350067352,70.57037286959174,130.5295773722958,147.19140900099293,206.9175402391277,193.9174115719337
3.3366700033366703,0.8142623261064994,6.035285657227377,172.43907049699592,70.76609989654862,130.37454556559084,147.2031865845438,207.19193038656647,193.78189171015697
3.3700367033700367,0.8142623261064994,6.035285657227377,172.7588339841578,70.81789282252855,130.10770074834457,147.17376430235913,207.50361694441705,193.6974290424172
3.4034034034034035,5.937900704010996,6.035285657227377,173.29990609151398,70.45727080096188,129.85116000265091,147.2694737589393,207.81094346768404,193.6899033929304
3.4367701034367704,5.937900704010996,6.035285657227377,173.68709167107514,69.10433464585395,129.37237011982555,147.47878830511794,208.157123409618,193.7315705773129
3.4701368034701368,13.12242647754183,6.035285657227377,174.01569425614738,71.5214435210581,129.0350138955865,147.3799992232926,208.58945701698568,193.8410101384204
3.503503503503504,22.10498803394044,6.035285657227377,173.67110045956903,70.61173185097844,128.76141093727233,147.01746618003537,209.16536488312755,194.1394294461704
3.5368702035368704,32.70719685845312,6.035285657227377,174.3159842620106,72.37987384204818,128.6933496859713,146.41884270430575,209.82041964431733,194.64675876660823
3.5702369035702373,44.79984839079608,6.035285657227377,175.67342427407368,71.4434127188656,128.73924891473123,145.6943218751573,210.4772623108721,195.28649544822628
3.603603603603604,58.12692424822892,6.035285657227377,176.0163623482527,70.07936518951702,128.67458597171353,144.80248778150724,211.2318490866901,196.0726165771902
3.6369703036369705,72.48160666895927,6.035285657227377,175.792126389739,67.85239697020708,128.56098260955957,143.8515335354482,211.96808222397632,196.9377844587721
3.670337003670337,87.66771385636547,6.035285657227377,174.81072711022375,66.8005830789464,128.4347542541799,142.84739397649005,212.6055427189788,197.8884667123217
3.703703703703704,103.39735990628805,6.035285657227377,168.139794374048,64.35931649677643,128.2076605288731,141.79480030044604,213.26464437022747,198.9891890439816
3.737070403737071,119.51461752654156,6.035285657227377,163.01701928233464,62.89686869171185,128.0228457839732,140.83624780119686,213.71923823562844,200.1302509367513
3.770437103770437,135.82240836213924,6.035285657227377,160.2507177413277,61.76818134957153,127.90467667520495,139.9981376078657,213.99318300822165,201.2358172080717
3.803803803803804,151.90876409286096,6.035285657227377,158.26079968744267,61.00322312864686,127.87624788493714,139.27406645794872,213.99664200167268,202.3553836434525
3.8371705038371706,167.73157266296087,6.035285657227377,156.60073470586988,60.769695168885335,127.82681485085996,138.5687629225086,213.75783922614832,203.47032396435085
3.8705372038705375,182.895736071298,6.035285657227377,155.20395526666127,60.86799490425964,127.84404786015148,137.92684995225298,213.26791983935183,204.55192584764487
3.903903903903904,197.44749344596192,6.035285657227377,153.93138788016748,61.23697669191805,127.85870224196438,137.2960682184617,212.7140062918808,205.5429760356488
