Time,Left Shoulder Angle,Right Shoulder Angle,Left Elbow Angle,Right Elbow Angle,Left Hip Angle,Right Hip Angle,Left Knee Angle,Right Knee Angle
0.0,11.740275801042609,151.5449147797242,182.85212057468132,133.9747091687699,160.447018490651,193.07699672962025,178.5871573944867,177.45266790331092
0.0333667000333667,7.283687205638485,164.98919948231992,186.0839762636225,135.1647968320307,159.7141006057444,193.22925021828416,178.2991674744308,177.0147903062974
0.0667334000667334,3.692760640724943,176.797954562671,188.5407620398221,136.34807670129766,159.06904055935993,193.3537192165577,178.1747809252286,176.69591923360326
0.1001001001001001,0.9328661843051425,187.0657584870567,190.2909457913869,137.52224517551292,158.50717582392423,193.4496465788758,178.20105209207958,176.49085719903508
0.1334668001334668,-1.0306260856177651,195.8871897217563,191.4029954064235,138.6849986536186,158.02384387186385,193.51627515967328,178.36503532018324,176.39440671639952
0.1668335001668335,-2.23234609104062,203.356826733049,191.94537877303853,139.8340335345569,157.61438217560536,193.5528478133849,178.65378495473908,176.40137029950324
0.2002002002002002,-2.706923753960261,209.56924798721403,191.98656377933867,140.96704621726988,157.27412820757542,193.55860739444563,179.0543553409466,176.50655046215286
0.2335669002335669,-2.488988996373536,214.61903195053063,191.59501831343053,142.08173310069975,156.99841944020054,193.53279675729024,179.55380082400526,176.70474971815506
0.2669336002669336,-1.6131717402772896,218.6007570892781,190.8392102634208,143.17579058378865,156.78259334590734,193.4746587563536,180.13917574911457,176.99077058131644
0.3003003003003003,-0.1141019076683633,221.6090018697357,189.7876075174161,144.24691506547867,156.62198739712244,193.3834362460705,180.79753446147407,177.35941556544367
0.333667000333667,-0.1141019076683633,223.73834475818256,188.50867796352307,145.292802944712,156.51193906627242,193.25837208087583,181.5159313062832,177.8054871843434
0.3670337003670337,-0.1141019076683633,225.083364220898,187.0708894898484,146.3111506204308,156.44778582578385,193.09870911520449,182.28142062874144,178.32378795182225
0.4004004004004004,-0.1141019076683633,225.7386387241613,185.5427099844987,147.29965449157714,156.4248651480833,192.9036902034912,183.0810567740483,178.9091203816869
0.4337671004337671,-0.1141019076683633,225.79874673425152,183.99260733558063,148.25601095709325,156.43851450559742,192.6725582001709,183.9018940874033,179.556286987744
0.4671338004671338,-0.1141019076683633,225.3582667174481,182.4890494312009,149.1779164159212,156.48407137075276,192.4045559596784,184.730986914006,180.2600902838001
0.5005005005005005,-0.1141019076683633,224.51177714003023,181.10050415946608,150.0630672670032,156.5568732159759,192.09892633644856,185.55538959905567,181.015332783662
0.5338672005338673,-0.1141019076683633,223.35385646827712,179.89543940848284,150.90915990928133,156.65225751369348,191.7549121849162,186.362156487752,181.81681700113617
0.5672339005672339,-0.1141019076683633,221.97908316846937,178.94232306635902,151.71389074169898,156.76556173633332,191.3717563595179,187.1383419252959,182.65934545003088
0.6006006006006006,-0.1141019076683633,225.67190234759465,180.5672473471593,153.17118250398565,156.99619183028852,191.0964312298886,187.5560804106377,183.75608952200548
0.6339673006339673,-0.1141019076683633,221.00245852814083,181.80073575920915,153.21508602046822,157.29605734095446,190.6480452740693,187.7901197730428,184.800075862471
0.6673340006673341,-0.1141019076683633,214.30015210090752,182.5195920850392,153.15881433251832,157.66287850526183,190.0871854930123,187.8820883210959,186.1404998124288
0.7007007007007008,-0.1141019076683633,215.3712603995545,189.8852597985316,153.46331477778338,157.9690891538349,189.0828401793261,188.01857897497703,187.7815367626773
0.7340674007340674,1.9735905794564044,216.51638445040115,195.4414383270046,153.89212156205178,158.16143351638036,187.94834566582776,188.18811604517947,189.4380895573125
0.7674341007674341,4.615275799100167,217.93200107160456,203.58075315257693,154.33144132444116,158.26147997237507,186.90000425544832,188.4175259524844,190.75839688413103
0.8008008008008008,7.776323829266071,219.5435442110359,202.82853671766048,154.90416860258983,158.30544315870625,185.9554429819729,188.75553512485905,191.8125104156686
0.8341675008341676,11.422104747957292,221.35373638308675,203.7808686897812,155.5058237418803,158.22087241897427,185.2509017904182,189.23629631783865,192.5376757739073
0.8675342008675342,15.51798863317698,229.8227665054133,204.4973028916118,157.7412313623959,157.74736409295008,184.4648573254693,189.96682954697505,193.16889414659656
0.9009009009009008,20.02934556292829,228.85220349280075,205.2304550926107,159.1453692768833,157.21411657933243,184.164938635736,190.71558465525973,193.2273360779518
0.9342676009342676,24.921545615214377,229.5679390229468,206.57971837785604,158.18761644308103,156.58484900115715,183.878504523446,191.3241883870264,193.05963355507052
0.9676343009676344,30.15995886803841,230.9733520921914,208.06819412197697,158.19242178387566,155.88871648727064,183.5576725610753,191.76331109694,192.87823340434545
1.001001001001001,35.0806083330281,232.2594247471203,209.4825082456461,158.45399002642148,155.36067627098365,183.2987966554896,192.0672331136652,192.7294498944504
1.0343677010343677,40.52441894123697,233.947750318801,208.67852709925992,158.61019367165505,154.80024216706528,183.0569222699688,192.2502152645668,192.47250886654285
1.0677344010677343,47.23820482978957,228.76417852338852,208.0781673861059,157.16403115429262,154.1706338977693,182.9242493425401,192.03264340825405,192.40262921843205
1.1011011011011012,55.4701823326324,237.74708936893367,207.86122922579784,155.3021044956737,154.10983728664655,182.5382468984394,191.0653976572428,192.4040108201069
1.1344678011344678,64.80025872090512,234.03592836622465,207.68159705247552,156.122156309346,154.13899226852976,182.0154858498089,189.66194376622104,192.32658656249544
1.1678345011678346,74.5398874886843,237.98406830380645,208.61417765230053,158.45266620485395,154.29467509239666,181.6424985053056,187.73997181898807,191.5655828895872
1.2012012012012012,83.20911305813183,241.93694461294152,206.624011234255,160.29616546379944,154.61674706159914,181.73927707284133,185.5117350870376,190.6940153196708
1.234567901234568,91.79981454303888,243.34521878487308,203.6253936010267,160.8143063569832,154.64947120641014,181.9396964767141,183.27797616025472,189.5008841101701
1.267934601267935,98.58927651311744,243.52633987659988,200.00301477636103,161.24963883093486,154.6865421365546,181.97438070433088,180.74522582961663,188.1034943445064
1.3013013013013013,104.1504679938375,232.62545444591527,194.2149800106251,161.71557348941317,155.3513360625301,182.1173201238883,178.07958197402667,186.20647594870408
1.334668001334668,106.67518617408994,228.39942660117973,190.27497412543485,161.13012563022374,155.8280009502879,182.238462530744,175.31031697687163,184.07578571353216
1.3680347013680347,107.53284448783737,224.58418291781948,185.90556224150492,161.20503463042402,156.47706059926853,182.22922475794456,172.19105679586747,181.77563480707252
1.4014014014014016,100.15938126196876,220.5751748680616,178.76010558444108,161.12758512699432,157.2431419937618,182.4025358902649,168.7494080807178,179.22860588100627
1.4347681014347682,94.81563596758816,215.7144745321989,171.5946198202219,160.74300901459148,158.05594819547417,182.54570363178576,165.2728626791498,176.6810643562673
1.4681348014681348,91.64997779629287,209.9228344812913,164.55586198372183,160.00588807999122,158.90351542247976,182.64566636884692,161.80719646082284,174.17651103583887
1.5015015015015016,89.26630693864651,203.121007286401,157.79058910981655,158.87080410997083,159.773879892854,182.6893624877901,158.39818529539778,171.75844672270543
1.5348682015348682,87.45688886159544,195.22974551859,151.44555823338206,157.2923388913074,160.65507782467242,182.6637303749568,155.0916050525353,169.4703722198516
1.5682349015682349,86.82780151774134,186.1698017489206,145.66752638929418,155.22507421077816,161.53514543601045,182.55570841668845,151.93323160189624,167.355788330262
1.6016016016016017,87.27117624538695,175.86192854845484,140.60325061242872,152.62359185516027,162.40211894494348,182.35223499932667,148.96884081314138,165.4581958569211
1.6349683016349683,89.22998125385918,164.2268784882549,136.39948793766152,149.44247361123095,163.24403456954704,182.04024850921297,146.2442085559315,163.82109560281353
1.6683350016683351,91.75579198203712,151.185404139383,133.20299539986854,145.63630126576737,164.04892852789652,181.6066873326889,143.80511069992738,162.48798837092392
1.7017017017017018,96.2321268763702,136.65825807290116,131.1605300339255,141.1596566055467,164.8048370380674,181.038489856096,141.6973231147898,161.50237496423676
1.7350684017350684,101.74423588958476,120.5661928598717,130.41884887470843,135.96712141734614,165.49979631813514,180.3225944657757,139.96662167017956,160.90775618573667
1.7684351017684352,107.40106923826428,102.82996107135662,131.12470895709302,130.0132774879429,166.12184258617518,179.4459395480697,138.65878223575746,160.74763283840824
1.8018018018018016,112.42714631241648,83.37031527841819,133.42486731595525,123.25270660411412,166.65901206026297,178.39546348931947,137.81958068118422,161.065505725236
1.8351685018351689,118.1895045741259,62.10800805211844,137.46608098617085,115.639990552637,167.09934095847396,177.15810467586653,137.49479287612073,161.90487564920457
1.8685352018685355,124.71687034894074,38.9637919635197,143.3951070026157,107.12971112028876,167.4308654988836,175.72080149405238,137.73019469022765,163.30924341329847
1.901901901901902,132.03796996240953,13.858419583683997,151.35870240016575,97.67645009384654,167.64162189956735,174.07049233021863,138.57156199316586,165.3221098205023
1.9352686019352687,140.18152974008083,-13.287356516326554,161.50362421369675,87.23478926008754,167.7196463786007,172.19411557070677,140.06467065459606,167.9869756738007
