Time,Left Shoulder Angle,Right Shoulder Angle,Left Elbow Angle,Right Elbow Angle,Left Hip Angle,Right Hip Angle,Left Knee Angle,Right Knee Angle
0.0,41.94147338023642,34.67767392164576,186.66092429265305,190.78161465846912,241.34672457940945,232.79074492418923,159.65448287400332,165.35710386792528
0.0333667000333667,41.96711975995923,33.965514982584416,186.75727429193165,190.71554479057,241.2386206245456,231.44483690782704,159.67350097286518,166.0105144648387
0.0667334000667334,41.96564993485693,33.370186364062725,186.84618482742172,190.6106843778431,241.10036985582715,230.29950332750664,159.7430652419029,166.57446009351395
0.1001001001001001,41.93747154236356,32.884293769633814,186.9294351042531,190.4682874435001,240.9333240002413,229.3452706784092,159.85915154066126,167.05123842479932
0.1334668001334668,41.88299221991316,32.50044290285082,187.00880432755525,190.28960801075272,240.7388347847753,228.57266545571565,160.017735728685,167.4431471295432
0.1668335001668335,41.80261960493976,32.211239467266864,187.08607170245784,190.07590010281257,240.51825393641647,227.9722141546072,160.21479366551893,167.752483878594
0.2002002002002002,41.69676133487741,32.00928916643508,187.16301643409057,189.82841774289145,240.272933182152,227.53444327026472,160.44630121070782,167.98154634280004
0.2335669002335669,41.56582504716015,31.8871977039086,187.24141772758315,189.5484149542009,240.0042242489691,227.24987929786943,160.7082342237964,168.13263219300973
0.2669336002669336,41.41021837922202,31.837570783240547,187.3230547880651,189.2371457599528,239.7134788638552,227.10904873260245,160.9965685643295,168.20803910007135
0.3003003003003003,41.23034896849706,31.85301410798405,187.4097068206662,188.89586418335867,239.40204875379723,227.10247806964472,161.30728009185185,168.21006473483342
0.333667000333667,41.02662445241931,31.92613338169225,187.50315303051605,188.52582424763028,239.0712856457827,227.22069380417733,161.63634466590824,168.1410067681442
0.3670337003670337,40.79945246842282,32.04953430791826,187.6051726227443,188.12827997597927,238.7225412667988,227.4542224313814,161.97973814604345,168.0031628708521
0.4004004004004004,40.54924065394162,32.21582259021522,187.71754480248063,187.7044853916176,238.35716734383269,227.793590446438,162.33343639180225,167.79883071380542
0.4337671004337671,40.276396646409744,32.41760393213625,187.8420487748548,187.25569451775647,237.9765156038717,228.2293243445281,162.69341526272942,167.5303079678526
0.4671338004671338,39.981328083261246,32.647484037234484,187.98046374499617,186.783161377608,237.5819377739031,228.75195062083287,163.0556506183697,167.19989230384198
0.5005005005005005,39.66444260193016,32.89806860906306,188.13456891803463,186.28813999438367,237.1747855809141,229.3519957705333,163.4161183182679,166.80988139262195
0.5338672005338673,39.32614783985053,33.16196335117509,188.30614349909985,185.77188439129523,236.75641075189188,230.01998628881057,163.77079422196877,166.3625729050409
0.5672339005672339,38.96685143445676,33.43177396712399,188.4969666933229,185.23564859155587,236.32816501382584,230.74644867084743,164.1156541890184,165.86026451194854
0.6006006006006006,38.81561605489796,33.74385099284699,188.4214523757513,184.63978173210464,236.01838034981515,231.5895618802617,164.27392018175993,165.2146699820332
0.6339673006339673,38.59569475005636,34.03009652402147,188.4820874711138,183.9958671263753,235.6788482397858,232.4410572395616,164.45079693114548,164.5678828930609
0.6673340006673341,38.35048402241275,34.345048999793214,188.5453034199909,183.3921451502505,235.3256856488845,233.2952873677561,164.6416735414417,163.94467046127082
0.7007007007007008,37.98894342700557,34.63509298158554,188.76627125781263,182.74321815051428,234.90702836016112,234.1573987795998,164.89836801255652,163.2963825780111
0.7340674007340674,37.66106736359033,34.92626419221575,188.94629634129427,182.12588622833863,234.4582511243576,235.01421612507428,165.22615306544475,162.68154254749098
0.7674341007674341,37.18100692413852,35.08059919765623,189.32284954698264,181.59794200282903,234.00801886776264,235.8423173995517,165.49992810057347,161.9618166266273
0.8008008008008008,36.600983158806685,35.04135835458928,189.6914337021341,181.2658183608532,233.51662174466767,236.4951447896828,165.74312953834598,161.23492820804952
0.8341675008341676,35.91019528510943,34.87379773516732,190.22713543833103,180.8145110707736,232.9568009074036,237.0281365834277,165.9475895104007,160.50063479854776
0.8675342008675342,35.10372386397487,34.733223708758096,190.94094712487475,180.7143723053508,232.3363023847228,237.5628768101008,166.10567036580252,159.6545943504206
0.9009009009009008,34.17451561551624,34.531926710512806,191.88334297814544,180.4771838364748,231.7172227805926,238.1270349781608,166.19453505354628,158.74478043468602
0.9342676009342676,33.294329202638586,34.40712569143186,192.64757252299688,180.55778797388368,231.0961895673379,238.7132665319739,166.20215526660314,157.758125666487
0.9676343009676344,32.27810955723341,34.13315537044942,193.68029177904577,180.2955538789072,230.4493837345483,239.29354994870752,166.15087655562172,156.71932023788628
1.001001001001001,31.11104156994413,33.66897074750776,194.6467546887755,179.59109501638778,229.7662078478891,239.8427357700416,166.06834072284687,155.65780005310404
1.0343677010343677,29.80685366549055,32.94924899067679,195.81839968544617,178.63961529714845,229.06849694089,240.42325206966945,165.95938345014358,154.51598304943462
1.0677344010677343,28.4116669131183,32.16696865080904,196.7401584982597,178.08787453662762,228.42761043842847,241.0674588468887,165.77349372055838,153.3314289170987
1.1011011011011012,26.954721215371457,31.197270456595,198.1329935558706,177.10711729940553,227.8722854783897,241.73068520135453,165.48711386532904,152.104206358007
1.1344678011344678,25.37495422067116,30.015644658000475,199.742112329286,176.258821764222,227.3762942295897,242.3874727051008,165.10039442207824,150.8387986693389
1.1678345011678346,23.73909919982034,28.65704193718329,201.8750574305532,174.90245280167366,226.92300277531515,243.0102298397649,164.62740942892864,149.59842650543973
1.2012012012012012,22.07837355362212,27.43628612594463,212.94633436823835,173.3412611442296,226.53395776117145,243.6046041198424,164.04253569171283,148.32251224279133
1.234567901234568,20.37521157053597,26.320600500544423,222.08487818696085,170.94652646906937,226.2080975559113,244.1941365359832,163.35249237132672,147.04407344359296
1.267934601267935,18.72387425804837,25.0976043360586,230.46866834570807,167.58635290704163,225.9741457258877,244.73772027482107,162.59205188018777,145.79486547174258
1.3013013013013013,17.04722344033377,23.73585944117664,236.72110209179064,163.82355817522028,225.77205003731007,245.1921749442144,161.8730445992193,144.62943236556433
1.334668001334668,14.690315439672668,21.577926746160305,238.7131063587648,159.44375810305388,225.5172830278961,245.58464441941013,161.20521756308696,143.5966838282192
1.3680347013680347,12.221391382750069,19.52746303699614,238.4510113381388,154.88900365190352,225.33752609363023,245.8552860626189,160.58152174769162,142.7161804268497
1.4014014014014016,10.124100468048455,17.574484120693537,237.0478999875465,150.28607561133697,225.2652013713229,245.97210173151828,160.00097007304998,142.00341809422417
1.4347681014347682,8.478626456642507,15.800649915734825,234.4795882505196,145.74111072045292,225.22103588879315,246.17684512637985,159.4979038430604,141.14381101718897
1.4681348014681348,7.5034580516677,13.600638753748708,230.82942419921827,140.9062421488522,225.2248277985248,246.37358688485813,159.0648118674961,140.31600698215422
1.5015015015015016,6.857118904018518,11.684592642593014,225.72675794040785,136.12882945222077,225.25988212626964,246.5503747648557,158.70346181169185,139.5225651029502
1.5348682015348682,6.010458402726458,9.906743335948118,221.81843185329703,129.00601489637577,225.398929583962,246.6962428245277,158.40430499457585,138.77477355771694
1.5682349015682349,5.420419926929164,8.659592162684328,216.7454074070152,123.15866550838416,225.6338616336841,246.8749539219162,158.11118674562223,137.98728767946423
1.6016016016016017,5.496666024833749,8.005279386571008,209.0263362021929,118.47000493578412,225.97698840792,247.0050455532482,157.7880160994228,137.3008346188445
1.6349683016349683,5.876867342114941,7.9455601670656595,200.14685908788573,114.86726641370292,226.3635478084819,247.158529459331,157.5182139964011,136.65179573180097
1.6683350016683351,6.504036244648982,8.426318675500147,190.10933380506003,112.37013109755664,226.785556981874,247.3201598194664,157.28296631756513,136.06255166002043
1.7017017017017018,7.199949972299133,9.32458396395052,179.20832331574414,111.07852283759904,227.22156031822243,247.40536280955573,157.10521756402127,135.6401885290624
1.7350684017350684,7.9830245783372895,10.657935766030246,167.41914706877472,110.88066798384304,227.68652300269983,247.4176688721849,156.99194471385908,135.3840730150043
1.7684351017684352,8.697230441401059,12.362364264612903,155.06884361640286,111.76869392323164,228.0764840923415,247.33119289166584,156.9765656637626,135.26345832027783
1.8018018018018016,9.398140451285911,14.55160079453704,142.13841358518695,113.6209245252785,228.4560379678904,247.1740149933462,157.04403374278874,135.25129079650583
1.8351685018351689,10.07849795158671,17.088235678510316,129.096297735165,116.39196504980907,228.81768806243903,246.96930830455145,157.17483253963056,135.29264582571275
1.8685352018685355,10.894459935547689,19.967428516739087,115.89719305594328,120.08413570293004,229.1556199746027,246.70291589374105,157.3656001898292,135.40840780687074
1.901901901901902,11.505927249894311,23.083441828579648,102.8941846162373,124.62822195214495,229.4397469607312,246.4037987590192,157.54345474931267,135.48918793492683
1.9352686019352687,12.15125956219948,26.454931398133752,90.55341531339302,129.94241655093913,229.61933458951205,246.05954017520705,157.78010923097554,135.6458985067133
1.968635301968636,12.89813196733659,30.107974339383365,78.8737726641431,135.80145554250728,229.7104738739779,245.77998612387813,158.06616571667743,135.80508540920607
2.002002002002002,13.797175392057818,34.05649462678274,67.60149454081088,142.30804181104295,229.7367050528674,245.6165562802348,158.37584084297328,135.8878570886889
2.035368702035369,14.791804130544666,38.13621784293,57.060764379380906,148.74666598587046,229.72277496426543,245.50126019515525,158.67836885349098,135.96196837311925
2.0687354020687354,15.91828149884532,42.23552450479044,47.22787332281814,155.58437873475356,229.66484008829065,245.41926488596167,158.96207934191224,136.0525240163298
2.1021021021021022,16.903769958669287,46.01666909000472,38.85294519366979,162.25980915027043,229.5815255657953,245.38022287350697,159.23775657256087,136.16637322141926
2.135468802135469,17.864087308294213,49.56573180906417,31.88589211321104,169.21600827777567,229.47810091593027,245.3685462913131,159.5084891448816,136.2994869193698
2.1688355021688355,18.80540351363224,52.824485515699365,26.84509142956384,176.61345813089383,229.38051398377,245.40115881609057,159.72288850740017,136.42873879559568
2.2022022022022023,19.65703860384501,55.98441275307339,22.72952678841788,184.0950128205673,229.2473620148248,245.47417161547543,159.91155267405378,136.57267631032263
2.235568902235569,20.378925774733617,58.7721948227035,20.89688475807816,190.78983407010327,229.05192855362824,245.5099445054719,160.08701043891412,136.73310404825037
2.2689356022689355,21.108065094240285,61.63236094824359,22.269134551541725,200.5722255831033,228.740032214525,245.55612721713567,160.33880809518092,136.87753571248894
2.3023023023023024,21.771296864432536,64.26167522485736,27.06666367913116,208.33522356800216,228.4195920006057,245.58561170122675,160.57725522149417,137.03724933868725
2.335669002335669,22.140421162869217,66.6934607736538,34.7630986362147,214.51460257967108,228.0758333536189,245.61390384135296,160.80665884600893,137.22294470058736
2.369035702369036,22.380002450675203,68.33613323994261,34.70493024234984,218.5782493039931,227.8019886981272,245.6427564498542,161.00122575856793,137.39985646920277
2.4024024024024024,21.706978603044888,68.98439842436436,32.82207555506914,221.3729675833389,227.6010585960572,245.67263170512223,161.16480999380798,137.5172735450336
2.4357691024357693,20.96978404896401,68.86585696073534,27.97568724767657,222.9314311842148,227.41366177322507,245.71006640820883,161.2763035993778,137.6317182536101
2.469135802469136,20.95574922784771,68.37784773739261,21.64838875190308,222.75702553235692,227.23369681454776,245.71309611473697,161.4488296786362,137.76251986689164
2.5025025025025025,21.6686434717623,68.07659607377757,19.873532953854685,221.82996146339252,227.2007924825245,245.69417147051328,161.51786186850808,137.89430412586083
2.5358692025358693,19.362639414114167,67.90088336153812,25.28133825985045,219.96206143559772,227.21980788726933,245.5826481782503,161.50858607959628,138.02478679618144
2.569235902569236,18.26650652234324,66.79291325031248,31.6849917380686,216.6017295374368,227.2875445284223,245.4761208928831,161.39729628372675,138.16426851780898
2.6026026026026026,20.85226848985604,64.02005876915271,38.62322330665885,212.9337913646096,227.33798220339,245.4956386433384,161.2277469836106,138.31460933415562
2.6359693026359694,22.596458514239085,61.35337969397872,47.305887102082,207.5043353552013,227.4174658436465,245.51427645756115,160.94844253600897,138.50231935557625
2.669336002669336,24.172236074895583,58.24293576378368,59.18474097864992,194.4841674197596,227.50112753663387,245.66771293310885,160.57627885822117,138.46199613775863
2.702702702702702,26.074602077884705,55.30376624782828,69.37560865672914,184.85632675917225,227.58026466239644,245.7609444523733,160.11560720046737,138.48447615124584
2.736069402736069,27.74415059891898,52.3889341055228,79.8013830247748,175.44587340654522,227.64958023954927,245.7246679346297,159.53036076049295,138.65656023389002
2.7694361027694363,28.846003266093582,49.55270273120859,91.5839221667915,166.66923299720918,227.7159192527117,245.6076533939414,158.85156047962246,138.91200894312243
2.802802802802803,29.36529870527156,46.74580198715517,104.23661283443089,158.4633909170716,227.7644368050408,245.33502676326657,158.07491953889692,139.2789533069145
2.836169502836169,29.57200285102125,44.08684131765507,117.07822790667184,150.98839059423585,227.8636480772412,244.97332701829745,157.2455376084549,139.76398332114377
2.8695362028695364,29.339854102303107,41.690358941160135,130.20293137758296,144.24904687626747,227.97975661573545,244.63817487347572,156.42913139139253,140.34035802984474
2.902902902902903,28.96890333340183,39.56639956800789,143.27698927979813,138.2598484657769,228.1683275864588,244.2561948176716,155.57964977245246,141.00453516026678
2.9362696029362696,28.24714677548928,37.887245615080985,156.8032956620282,132.7798044066982,228.5295709774419,243.9449816839726,154.6230438566447,141.7351224450758
2.9696363029696364,27.640902070910904,36.43412791691505,169.8921837000083,128.07801116507704,228.9544379647883,243.566185884738,153.64565952213445,142.50830830527988
3.003003003003004,27.11931057978752,36.39791364271403,182.25091658160324,123.56967733938754,229.3932022356449,243.10025087873427,152.5986788638538,143.24917938476662
3.0363697030363697,26.695325741854216,36.17631569223692,193.8111428023216,120.47136078187128,229.8450573079865,242.55762163924012,151.5698473359269,144.00377305423405
3.0697364030697365,26.26576414037805,35.29828218130616,205.3955710838553,118.557115133398,230.4130079508344,241.64870128139347,150.61834863451057,145.11682499215138
3.103103103103104,26.10839281524198,34.390822303142045,215.37802014393827,117.80577130024676,230.9339735341832,240.90770342574007,149.74889471007506,145.91899996442075
3.1364698031364697,26.12646143850177,33.842023664784946,223.8451496360101,117.69010611642162,231.22638587221564,240.2128133038237,149.09002384615854,146.55788366278145
3.169836503169837,26.30271361525193,33.25993420630255,230.9243866703284,118.64130206660056,231.54646800389773,239.66601495424905,148.44631453583432,147.07905084437573
3.2032032032032034,26.829881170795247,32.794549498312065,235.9601477723957,120.38811213551072,231.77783611889143,239.1841005672284,147.7577985897982,147.69178853310143
3.2365699032365702,27.425593944425675,32.11978244662016,239.5022238642544,123.53122859047284,232.04713733639832,238.7232362355247,147.09730953243533,148.1816885310588
3.2699366032699366,28.08482953148442,31.290687819181773,242.2025058637537,127.29960313304262,232.28390723993323,238.3193848644664,146.5001782495275,148.4191880870971
3.3033033033033035,28.70800872475888,30.487490473562445,243.038011511046,132.92174688362613,232.5413659176033,237.87046920633563,145.9759032311688,148.6465608902522
3.3366700033366703,29.49221925442142,29.194730860773888,241.81594262868177,140.86594873016296,232.7640822874219,237.38152618074983,145.65949988272965,148.916858179086
3.3700367033700367,30.199658860819003,28.130273502679227,239.6471651837176,150.22234935191204,233.02342350296348,236.8393089946808,145.44741612457102,149.201561018502
3.4034034034034035,31.05301770566717,27.357453364548995,236.76181015227849,160.64727631681887,233.2948990564569,236.2387763696152,145.3432170632231,149.55222996439878
3.4367701034367704,31.51987735310664,26.497045510732733,231.74343787598423,168.9409327786077,233.6931552359028,235.56780298788004,145.17832305010054,149.9529125003773
3.4701368034701368,31.48880222949228,25.029758291819057,225.3354992090423,174.40720118329727,234.22061651904752,234.89926021435684,145.02214752071316,150.3315119208525
3.503503503503504,31.537795269839112,24.00546191814174,218.6578693906881,181.27078859401595,234.90011325495195,234.1824309302744,144.81048062400114,150.68840493819565
3.5368702035368704,30.906431479693538,22.942584887334,211.65257463472005,188.3241023363746,235.69961647063624,233.4274793654024,144.62113637250587,151.01395110342224
3.5702369035702373,30.886310315062453,22.227360397057648,204.9831141808204,195.70990141064823,236.5202871621672,232.66215951167828,144.3994450893859,151.37548770218908
3.603603603603604,30.798394386300554,20.01234813500525,198.5767024476715,201.2241524893537,237.35139103122643,231.88956832957425,144.1365529950643,151.76338433286713
3.6369703036369705,29.54384116822376,18.874743732828925,194.0803696088556,208.47675192608563,238.1458699491972,231.2336604701111,143.6843562778738,152.10892344521713
3.670337003670337,27.486241968423155,18.53281296069562,189.5775186261735,216.5995979512053,239.0605070398429,230.8361313924722,142.99185332356544,152.40077333612453
3.703703703703704,28.95781110847233,16.003780743009493,180.31329430452345,227.20282794563423,240.19647307123,230.0982288447777,142.3631655944217,152.61397828255502
3.737070403737071,31.4277662813668,14.706556004449917,177.20220315343414,231.85941655689788,240.8838665006379,229.38752125998923,141.89300709022598,152.9697619161854
3.770437103770437,30.589311119510487,14.484816180505891,175.16144827072478,227.92644811467432,241.388339653483,228.6008588696604,141.4268623772243,153.40763871820005
3.803803803803804,29.71903146337697,12.54203287446763,171.65599202880267,225.5134925967874,241.83491143279645,227.8851642349553,140.9116949122176,153.65126486706146
3.8371705038371706,28.113659955819667,11.643946259210551,166.91905710899775,228.7517914834858,242.25194922245703,226.98495580782784,140.36788564762705,154.18751008400488
3.8705372038705375,25.0040206742822,12.138036024472935,162.27803165910586,231.723560187783,242.6269576604541,226.07545853930293,139.78855298206355,154.8494160284765
3.903903903903904,21.75115915130684,13.895526093712324,157.2544450579728,234.3850117017609,242.97181278055336,225.2009809292788,139.2243957698878,155.56144798285163
3.937270603937271,18.39874119381256,16.711220889634628,150.2728057370496,243.11246725767333,243.27440781442945,224.32736917212387,138.67246537182567,156.34172505959938
