Time,Left Shoulder Angle,Right Shoulder Angle,Left Elbow Angle,Right Elbow Angle,Left Hip Angle,Right Hip Angle,Left Knee Angle,Right Knee Angle
0.0,23.554515634906235,21.700633447125814,146.1121384401518,125.41171277969788,117.95315011625668,121.74713608709231,214.02084800107755,217.7262281841089
0.0333667000333667,21.649767961481214,22.84665629125172,143.4958148790284,132.28455670994992,117.18652842369168,121.7371759654265,214.48432148962743,217.84708498803525
0.0667334000667334,20.028018783070607,23.878486574306933,141.37587213802306,138.3333867686071,116.57063275091596,121.72562553032174,214.87918486258107,217.93797829652604
0.1001001001001001,18.6746933548539,24.800376817045187,139.7261854963984,143.5981511765509,116.09423902216032,121.71252804926148,215.2116927466569,218.0015788168654
0.1334668001334668,17.575216932010584,25.61657954022021,138.52063023341694,148.11879815466273,115.7461231616557,121.69792678972917,215.4880997685736,218.04055725633725
0.1668335001668335,16.715014769720145,26.33134726458573,137.7330816283412,151.93527592382404,115.51506109363297,121.68186501920822,215.7146605550496,218.0575843222257
0.2002002002002002,16.079512123162072,26.94893251089548,137.33741496043376,155.08753270491633,115.38982874232292,121.6643860051821,215.89762973280324,218.0553307218147
0.2335669002335669,15.654134247515849,27.473587799903186,137.30750550895718,157.61551671882103,115.35920203195651,121.64553301513423,216.0432619285532,218.03646716238828
0.2669336002669336,15.424306397960963,27.909565652362577,137.61722855317396,159.55917618641965,115.41195688676456,121.62534931654808,216.157811769018,218.0036643512305
0.3003003003003003,15.37545382967691,28.261118589027383,138.24045937234666,160.95845932859362,115.53686923097796,121.60387817690705,216.247533880916,217.9595929956253
0.333667000333667,15.493001797843169,28.53249913065133,139.15107324573782,161.85331436622437,115.7227149888276,121.5811628636946,216.3186828909657,217.9069238028568
0.3670337003670337,15.762375557639231,28.72795979798816,140.32294545261004,162.28368952019343,115.95827008454432,121.55724664439416,216.37751342588567,217.84832748020887
0.4004004004004004,16.16900036424458,28.851753111791588,141.7299512722258,162.28953301138222,116.23231044235897,121.53217278648916,216.43028011239457,217.78647473496565
0.4337671004337671,16.69830147283871,28.908131592815344,143.3459659838477,161.91079306067223,116.53361198650246,121.50598455746308,216.48323757721067,217.7240362744111
0.4671338004671338,17.33570413860111,28.901347761813163,145.1448648667382,161.18741788894488,116.85095064120566,121.47872522479932,216.5426404470525,217.66368280582927
0.5005005005005005,18.06663361671125,28.83565413953877,147.10052320015996,160.15935571708167,117.17310233069942,121.45043805598134,216.6147433486387,217.6080850365041
0.5338672005338673,18.87651516234864,28.715303246745904,149.18681626337545,158.866554765964,117.48884297921462,121.42116631849257,216.70580090868765,217.55991367371973
0.5672339005672339,19.75077403069289,28.54454760418851,151.37761933564846,157.34896325647466,117.7869485109831,121.39095327981748,216.8220677539196,217.521839424762
0.6006006006006006,20.46884288400801,27.699785373352235,153.47370717727844,153.4740182203054,117.87917689995622,121.2692869014136,217.0832473366244,217.63160159184903
0.6339673006339673,21.296863555905983,27.47654429476612,155.50577255224138,152.35071270264424,117.65027160724516,121.71822059334907,217.8132510594562,217.12231833756425
0.6673340006673341,22.133612956856947,27.082218212563067,157.5819849507285,150.97761265238884,117.42619614638728,122.01536230640424,218.5447253222054,216.79574062408835
0.7007007007007008,23.068666496987586,27.076451545656887,159.6744644510254,150.10347485466056,117.63424138999116,121.89983892655673,218.6680827771297,216.94779880588683
0.7340674007340674,24.04008720654124,27.11705100341411,161.79618771042752,149.22947502801858,117.79316357678104,121.50583461960083,218.8087182391038,217.42565343007345
0.7674341007674341,25.03097664097278,27.188513592162323,163.85122099491377,148.23525743584594,117.66198900666336,121.00450195939636,219.22056773171644,218.03546200610765
0.8008008008008008,25.98575317256309,27.087990566108648,165.78237962567545,146.8210115429242,117.38574675065,120.52655014740256,219.74363396843344,218.64181395650056
0.8341675008341676,26.88947826529137,26.86161586876487,167.46846868014663,145.27105786733068,117.05491154092029,120.11436970160968,220.28319684382163,219.2360841757296
0.8675342008675342,27.72590534581094,26.4422356892957,169.2268099546035,143.73200658378963,116.64682641509764,119.7937634409884,220.87533642504764,219.76976468879863
0.9009009009009008,28.38626027017757,25.96908942528198,170.82186193919912,141.8979301316624,116.30132502123664,119.46886669402824,221.39770623827047,220.36997051961865
0.9342676009342676,28.98985800479436,25.370558152147964,172.45590515300242,139.92112962217942,115.96245534512876,119.24547799381727,221.86760499982688,220.86322484711684
0.9676343009676344,29.578021261171365,24.66829322323364,174.05648723229623,137.9544886875339,115.65848997612537,119.1200659807651,222.2697084851989,221.252488219268
1.001001001001001,30.016159855763306,23.88883144185347,175.79907779556257,136.201509884352,115.31454426675968,119.0977796795386,222.71659924308904,221.55035489131632
1.0343677010343677,30.61119889289111,22.98370726563541,177.35299622504678,134.5345822205355,114.9763024200206,119.17136183443128,223.16715373888343,221.78933311059544
1.0677344010677343,31.0569363593274,21.993966272706345,179.0843807152744,133.0391013846043,114.78340134977648,119.33235289481276,223.50432169770428,221.9650314116752
1.1011011011011012,31.327659614693427,20.8143659358434,180.64826139054892,133.772174239403,114.66580866521636,119.60474926850917,223.75864731888225,222.0409233815932
1.1344678011344678,31.251868266152776,19.22345712216155,182.32014977593624,133.82424174532014,114.6632309509888,120.03115936411916,223.87153330167385,221.94052774316208
1.1678345011678346,30.593229514129515,17.518993734311866,183.73212662231083,133.38699262645486,114.7645951473424,120.55895651765783,223.83236908316485,221.66439837818416
1.2012012012012012,29.76214354761488,15.8607677815006,184.8446752133658,132.16400490876742,114.76547527645069,121.18429436387852,223.94867539656804,221.2499049780218
1.234567901234568,28.536653906839973,13.981743907840636,185.6527281526786,130.36955550676058,114.68234949336072,121.90812236862298,224.12244817207136,220.720907057968
1.267934601267935,27.06265124187072,12.084617187536436,186.63096699366693,128.18041413478815,114.6372989081361,122.739979815831,224.20330598126563,220.05029377768287
1.3013013013013013,25.342609717699307,10.659777627536457,187.30947447178195,125.38801629058908,114.64842687821796,123.66836154084766,224.20403698616087,219.24109206035425
1.334668001334668,23.707055005778983,9.380849671625787,188.39532558312325,122.61450052098438,114.72657841752503,124.68868777738248,224.133389032764,218.31486493574388
1.3680347013680347,22.228653978857395,8.199106227332736,191.75405487560025,120.2421673274832,114.84053384839586,125.78069327935889,224.00795173335044,217.3002400004385
1.4014014014014016,20.843453609941463,7.139997146861024,194.5590889718928,117.68690392496188,114.90425331736236,126.91067223671222,223.89313419847176,216.1814093666444
1.4347681014347682,19.592858171076475,5.235201026557565,197.14677781244745,114.12906809848204,114.98789532717808,128.07947147191445,223.7372787507492,214.9666085325715
1.4681348014681348,18.47122438502985,3.9406536585093823,199.14637284954856,112.62824987241504,115.07349712221108,129.27517211851006,223.65273318414853,213.67422287094868
1.5015015015015016,17.37529609826071,2.124666919150201,200.4967910073414,109.21555277863368,115.13653989557092,130.44866274727144,223.6090933287491,212.3683204953088
1.5348682015348682,16.36142995839838,2.124666919150201,201.10027081552468,105.10501545567088,115.15870090933028,131.57482171971498,223.6106185646763,211.07548144903492
1.5682349015682349,15.278189786040596,2.124666919150201,201.0016903804637,99.73490652110029,115.17527218005408,132.67748222305897,223.63850811395864,209.8071837080486
1.6016016016016017,14.305199871004728,2.124666919150201,200.15344307680172,95.1060341830192,115.2038639661454,133.77673867352618,223.64515064639264,208.50508007486965
1.6349683016349683,13.169838307722983,2.124666919150201,198.48632248519635,93.03810045678208,115.24197078284791,134.8625127730968,223.63611555482345,207.19227568929284
1.6683350016683351,12.214130522283556,2.124666919150201,196.15446429907345,91.9426445712468,115.13315406215142,135.97147983053824,223.70200860064105,205.86981080223111
1.7017017017017018,11.475615079148564,2.124666919150201,193.21027786842825,91.09561549153511,114.78698391764702,137.02739649910566,224.00695498255573,204.5772420845483
1.7350684017350684,11.010336904560983,2.124666919150201,189.96064161995287,90.94666749485692,114.44526323393649,138.0742586219874,224.4442218311272,203.2818463308923
1.7684351017684352,10.796963638691649,2.124666919150201,186.1926796425601,90.64294992299703,114.103537445294,139.08121311362538,224.88050536434204,201.9862433838768
1.8018018018018016,11.004150970749755,2.124666919150201,182.3186676359028,90.37976274996632,114.09740787555336,139.30739951105824,224.82615298081856,201.5367143730152
1.8351685018351689,11.596858792649051,2.124666919150201,178.22813689801643,90.18547796977478,114.25159626163472,139.2745327304679,224.55342882833537,201.3686265461259
1.8685352018685355,12.535858665296503,2.124666919150201,174.06317725298345,89.64902808226083,114.0191599383315,139.33045456616958,224.82007455444,201.09577065420547
1.901901901901902,13.649740788542946,2.124666919150201,169.5451839909512,89.09101417941785,113.65495312381432,139.4953514570825,225.25794681730147,200.71212121830803
1.9352686019352687,15.011063694525536,2.124666919150201,164.98279464971907,88.53620316834022,113.4082685649788,139.7206854624857,225.58843751223063,200.2808628696441
1.968635301968636,16.77823213703186,2.124666919150201,160.49359997387094,87.9466771384809,113.23300372493254,139.95585485664245,225.902355468884,199.8827380778192
2.002002002002002,18.878484823520168,2.124666919150201,156.3564708451734,87.4028300695251,113.08738876646947,140.16010035852813,226.2161689090696,199.50029329456777
2.035368702035369,20.97932499007276,2.124666919150201,152.10601796583438,86.39221558077847,112.8818192572033,140.33546540017355,226.5023895654536,199.17289432406608
2.0687354020687354,23.439198495358667,2.124666919150201,148.4814732417722,85.71983902264608,112.74742804374084,140.54218801897375,226.7665898482996,198.7456772762032
2.1021021021021022,26.654346524012865,2.124666919150201,145.63717881975285,85.71255815080103,112.75457622573836,140.6933906504309,226.9964282932453,198.34948189571705
2.135468802135469,29.77164240468206,2.124666919150201,143.04754093456782,85.97618067382341,112.8284488139862,140.8092203035547,227.17357554688616,197.98145985185
2.1688355021688355,33.25403387846245,2.124666919150201,140.65364834252392,84.71634191240955,113.00106925560544,140.8886643475303,227.3693801288975,197.6517304047786
2.2022022022022023,36.14703784388332,2.124666919150201,138.80250948183686,84.69409938404374,113.17889601632696,140.9602252314926,227.54038869152612,197.3083465318498
2.235568902235569,38.73479510346085,2.124666919150201,135.8614352342755,86.10770234099724,113.09737977266836,141.28139603549698,227.741492324373,196.98126913055245
2.2689356022689355,40.714821824223165,2.124666919150201,133.83550334267642,85.7113718273767,113.03839284425244,141.448505917845,227.8782291574184,196.650081153024
2.3023023023023024,42.31789665502709,2.124666919150201,133.55562126543737,84.22005061662796,113.1499282266711,141.49197799953956,227.86258343316047,196.31429141111389
2.335669002335669,43.76776317345674,2.124666919150201,133.65827977510995,83.48740290197989,113.36538694571988,141.4976402491123,227.774268590846,195.98697453836388
2.369035702369036,44.84089723195394,2.124666919150201,134.46494488149207,85.96872239854846,113.4899558862357,141.53965360201525,227.6918494835491,195.66805589547303
2.4024024024024024,45.46365253081206,2.124666919150201,136.19902817009472,86.9786969884301,113.66947070649704,141.54864682100637,227.5598069153392,195.3490131184705
2.4357691024357693,45.43989575400936,2.124666919150201,139.25179150939928,87.44925550222051,113.70029367983102,141.34391760574735,227.6368035540649,195.03929018899555
2.469135802469136,45.25002543480349,2.124666919150201,143.3532367627374,88.63298053011012,113.81587367845415,141.0824746873419,227.56311352765024,194.75575261174265
2.5025025025025025,44.33384086185937,2.124666919150201,147.95706195478903,90.00711503471574,114.19637047034102,140.71508651093274,227.26215862028,194.52368861492133
2.5358692025358693,43.23362652674523,2.124666919150201,150.7342347711216,90.94239316817702,114.74367854637404,140.34653794998937,226.75445773004083,194.3240233575042
2.569235902569236,41.874871169172685,2.124666919150201,153.77677807503144,92.13249354502672,115.31938845445256,140.14649230786077,226.04497645307777,193.92062244535177
2.6026026026026026,40.26272682593531,2.124666919150201,156.30891483053432,94.41766481438464,115.88884961625726,140.00148158019564,225.2467760647165,193.51883516097968
2.6359693026359694,38.37906524611945,2.124666919150201,158.68613627260785,94.51593019027378,116.2430595047298,139.7908096277368,224.4710711345259,193.27951457671327
2.669336002669336,36.37660575172581,2.124666919150201,160.7847362439385,95.92030364225984,116.57275954460174,139.60355716010798,223.6204101568944,193.12972184292943
2.702702702702702,34.273047803279944,2.124666919150201,162.77903766189368,98.33526117647044,116.74928849743628,139.4239135216625,222.9180098756896,193.05370555440143
2.736069402736069,32.27885709997101,2.124666919150201,164.63009523858736,102.86917298416324,117.09619977248806,139.2599995611484,222.02554750260143,193.06796061727687
2.7694361027694363,31.233905965751664,2.124666919150201,168.28224795803112,108.31481806398192,117.86203813049733,139.29843816818152,220.89810587759283,193.14702843954703
2.802802802802803,30.42989484432588,2.124666919150201,171.35442332148412,112.22829983908952,118.7029697798555,139.39709059965276,219.5820696060902,193.31082426901972
2.836169502836169,29.482151799573515,2.124666919150201,174.6869743819474,114.81210143192024,119.81017391103828,139.49567956462775,218.0091202630765,193.6008116397042
2.8695362028695364,28.443416142478785,2.124666919150201,176.969785031114,116.92901196646878,121.0309828758071,139.54003459491594,216.31800095254664,193.95756929448552
2.902902902902903,27.44491858131501,2.124666919150201,178.2610879625246,118.48109667908057,122.38464442101248,139.57135260961658,214.49957652433216,194.3492055731443
2.9362696029362696,26.424408935364184,2.124666919150201,178.96985426582057,119.98454271033071,123.87200208887027,139.57501049224513,212.6492143453828,194.85861440710872
2.9696363029696364,25.3001723630588,2.124666919150201,178.98146718472026,122.01886628021624,125.5161761106276,139.5143765980067,210.57257882743323,195.38186470214987
3.003003003003004,24.112211681589454,2.124666919150201,178.32710169948302,123.31751047439592,127.1272406099791,139.4342640999701,208.53361635418383,195.9149348889498
3.0363697030363697,22.86729788636128,2.124666919150201,177.19158410733422,124.9207856525395,128.7655507702164,139.47012621531348,206.5021731467436,196.47429133590467
3.0697364030697365,21.79155937109797,2.124666919150201,175.6871580361051,125.01529105363194,130.23925328122624,139.46808291884676,204.6785098505404,197.04650948369704
3.103103103103104,20.92711369194446,2.124666919150201,171.66552058282434,121.39957484470024,131.53086484658036,139.45834684151916,203.1293095054808,197.5736420199948
3.1364698031364697,19.72501253079283,2.124666919150201,170.7662245358573,118.60781050891784,132.5943297251318,139.36128990919926,201.842572483356,198.09149745925245
3.169836503169837,18.66230274138104,2.124666919150201,166.40111182117,112.9591923334868,133.45063053255288,139.12105664867278,200.7358748098516,198.66251698291228
3.2032032032032034,18.271199018656965,2.124666919150201,162.51946337232178,108.61418133335933,134.26488754187176,138.78704330252614,199.83038840434835,199.25018053645377
3.2365699032365702,17.810764607857184,2.124666919150201,158.52811712841572,104.15039875245348,134.9403319463558,138.4511193357855,199.15254529631275,199.78016841661872
3.2699366032699366,16.99373898270725,0.713196869004364,153.9894544700898,99.2036915113982,135.41125983035738,138.104059583539,198.7057716206901,200.3133191428289
3.3033033033033035,16.554477804820806,-0.8356955293465671,150.88629876747387,91.84880303029767,135.71184988042756,137.79754416636214,198.485730545189,200.78096168855944
3.3366700033366703,15.72418253508116,-1.783401135259186,147.4421868422187,86.45993407509232,135.77308672981502,137.51727570414943,198.4126551419834,201.2353329235885
3.3700367033700367,15.066325013736996,-1.5718683721648556,143.64304745015426,80.8285073301618,135.50666159056505,137.2236061967714,198.723749241112,201.7346815060092
3.4034034034034035,14.521145175170606,-0.66668832631307,140.55895907516742,75.9707864005542,135.34408415526482,136.62631828528157,199.16861036061792,202.17632046180267
3.4367701034367704,12.845344521489825,0.9793234625858214,139.1915447060672,71.43762813568868,135.0344738437311,136.03006785123594,199.90717766103563,202.5738582001757
3.4701368034701368,12.669678286040696,3.182894197558089,135.68323162785234,69.5539735056149,134.55335120599182,135.43993841464663,200.81599944353343,202.92862449442768
3.503503503503504,3.462335584308151,3.182894197558089,128.32804862818563,68.45023424074958,133.89167670761086,134.8264404612776,201.9218411819208,203.2479375845242
3.5368702035368704,3.462335584308151,3.182894197558089,121.69696278024188,65.19170996611142,133.28383134204282,134.10754490090133,202.95289196698727,203.51710197657908
3.5702369035702373,3.462335584308151,3.182894197558089,117.02734500077074,63.95302658158984,132.59852474196956,133.3092629192827,203.9769290892583,203.754235455054
3.603603603603604,3.462335584308151,3.182894197558089,111.96656980324552,64.44476271179423,132.15737343107097,132.68882823566884,204.59603873442305,203.9292155442469
3.6369703036369705,3.462335584308151,3.182894197558089,106.6744764107484,65.87179221109494,131.7573887097279,132.1430156413234,205.11698945312872,204.07224688353065
3.670337003670337,-3.538477613350427,3.182894197558089,102.18639265290126,68.28398701030781,131.22633640226218,131.78693080047034,205.5582848060467,204.1127231015302
3.703703703703704,-9.71904763365892,3.182894197558089,97.8510334993646,71.52978187193457,130.59690261712066,131.55831836007454,205.92531832671253,204.0632958553204
3.737070403737071,-12.816431296737823,3.182894197558089,93.93948007715132,75.40885445175034,129.98856264508046,131.29488469660689,206.2239567773209,204.2117014151176
3.770437103770437,-12.923423152347272,5.682583431846812,90.69624504610692,80.09516158418542,129.35405083625136,131.02922937758422,206.4969712923022,204.53754167954423
3.803803803803804,-10.19410580963006,8.49622994997101,88.1882872192603,85.11040155020986,129.03880086374156,130.92685637852676,206.5495358529555,204.7730516829047
3.8371705038371706,-4.872177493002766,11.530907288428883,86.63070684541027,90.88423736876132,128.97595377976995,130.97023082019456,206.3820496269809,204.920047160924
3.8705372038705375,2.7266198562842368,14.376169721602004,85.9406798820717,97.0455723868174,129.45631528124693,131.187147089175,205.68578964279945,204.99087158250865
3.903903903903904,12.403364817398714,17.18276583019084,86.09226911694999,103.64909508506446,130.26390914863023,131.58680530302587,204.6923424034372,205.0131571048728
3.937270603937271,23.89565533311132,19.91419898528321,84.70656808231176,110.3478581427796,131.07757843459763,131.92660212244786,203.47775165254555,204.9774627296812
