Time,Left Shoulder Angle,Right Shoulder Angle,Left Elbow Angle,Right Elbow Angle,Left Hip Angle,Right Hip Angle,Left Knee Angle,Right Knee Angle
0.0,21.243479872035,22.107310330275578,190.97216603724263,176.09048008094902,199.0074213298155,225.06073743015543,169.29664206103146,167.6331495699566
0.0333667000333667,21.735889314180124,22.12054525772591,189.8063986533493,176.058161157471,199.3552945167766,225.7362047751008,169.19484978828893,167.38860560308763
0.0667334000667334,22.16124961610298,22.09940115795964,188.812486114548,176.06762154610087,199.6353658782166,226.2708259047628,169.13542315418235,167.20311764674736
0.1001001001001001,22.52535231283266,22.04764956261121,187.9804161227404,176.11695562110845,199.8525695905681,226.6727744075826,169.1149174190513,167.0732117126144
0.1334668001334668,22.83398893939825,21.96906200331507,187.3001763798285,176.20425775676352,200.0118398302637,226.9502238720013,169.12988784323537,166.99541381236756
0.1668335001668335,23.09295103082885,21.867410011705665,186.7617545877143,176.32762232733597,200.11811077373608,227.1113478864599,169.1768896870742,166.96624995768545
0.2002002002002002,23.308030122153543,21.746465119417444,186.3551384482995,176.48514370709557,200.1763165974178,227.1643200393996,169.25247821090744,166.98224616024683
0.2335669002335669,23.48501774840144,21.60999885808485,186.07031566348604,176.67491627031217,200.19139147774152,227.1173139192614,169.35320867507463,167.0399284317304
0.2669336002669336,23.62970544460161,21.46178275934233,185.89727393517583,176.89503439125556,200.1682695911398,226.97850311448647,169.47563633991544,167.13582278381483
0.3003003003003003,23.747884745783164,21.30558835482434,185.8260009652708,177.1435924441956,200.1118851140453,226.75606121351584,169.61631646576947,167.26645522817884
0.333667000333667,23.845347186975182,21.145187176165315,185.8464844556726,177.4186848034021,200.02717222289067,226.4581618047908,169.77180431297631,167.42835177650116
0.3670337003670337,23.927884303206767,20.984350754999703,185.94871210828336,177.71840584314486,199.91906509410848,226.0929784767521,169.9386551418756,167.61803844046048
0.4004004004004004,24.001287629507008,20.82685062296196,186.12267162500487,178.0408499376937,199.79249790413127,225.66868481784115,170.11342421280693,167.83204123173547
0.4337671004337671,24.071348700904995,20.67645831168651,186.35835070773905,178.38411146131847,199.652404829392,225.19345441649887,170.29266678610995,168.06688616200486
0.4671338004671338,24.14385905242982,20.536945352807827,186.64573705838765,178.74628478828896,199.50372004632283,224.67546086116644,170.47293812212422,168.31909924294737
0.5005005005005005,24.22461021911058,20.41208327796034,186.97481837885272,179.12546429287502,199.35137773135665,224.1228777402849,170.6507934811894,168.5852064862417
0.5338672005338673,24.31939373597636,20.305643618778504,187.33558237103605,179.51974434934647,199.200312060926,223.54387864229545,170.8227881236451,168.86173390356652
0.5672339005672339,24.43400113805644,20.221397906896904,187.71801673684112,179.92721933197458,199.0554572114652,222.94663715564084,170.98547730983222,169.1452075066019
0.6006006006006006,24.567230934178983,20.13916660582978,188.13452637823423,180.46604079798016,198.94632077798732,222.40472620361987,171.10714624923875,169.406092028568
0.6339673006339673,24.62451116187861,20.083169548751044,188.48210526300497,180.99320367837308,198.84408082356964,221.85569183043805,171.20732259169517,169.66721333429473
0.6673340006673341,24.80666970649996,20.08474227270608,188.7370743927217,181.533861101654,198.7738949185665,221.30813803396373,171.2836307901811,169.9332606902879
0.7007007007007008,25.017174304061182,20.16792112882912,188.93391700967408,181.88110179928464,198.7416272533484,220.7723182672376,171.33550196412688,170.19435418088295
0.7340674007340674,25.35381914616796,20.329303944912795,189.0799552073733,182.17965792222083,198.7574607425373,220.25542358225533,171.3569499121885,170.44262409292642
0.7674341007674341,25.557625363235484,20.55575031786104,189.50209626708903,182.3297776221056,198.8135253125785,219.7886599952625,171.35054349424857,170.67004003425788
0.8008008008008008,25.88937274574496,20.84211940884948,189.9324281236235,182.51715367612908,198.9141138090294,219.35831138122305,171.31382714214917,170.87468721293632
0.8341675008341676,26.386887751259863,21.184106255767176,190.30926702139485,182.67587206088325,199.0586576515924,218.94222236374128,171.28084198878636,171.07625056918417
0.8675342008675342,27.07972529002708,21.59026095377021,190.57147595284104,182.89726463684497,199.252187202225,218.5750151023868,171.22321540748064,171.2453048332701
0.9009009009009008,27.932958382017805,22.05920654513368,190.55874616009496,183.14675618534108,199.4700311682436,218.27356155557,171.15331888884336,171.3707746467593
0.9342676009342676,28.96535835768801,22.58577370727121,190.38270244227496,183.47661395376065,199.7471075860154,218.0180173595265,171.04594402927347,171.47025659070658
0.9676343009676344,30.11223583737338,23.11741241186173,190.0466695225668,183.88980505893565,199.9701101376372,217.84857958393124,170.91280250539134,171.54128318099174
1.001001001001001,31.44441152257568,23.68558712357176,189.5502945062817,184.407460603208,200.23883250580653,217.7390243923307,170.76516150326717,171.58159081230747
1.0343677010343677,33.001866628859176,24.4938878424978,188.5720362983157,184.09788694212835,200.57357971813508,217.66491615642173,170.57466021948437,171.61824960841227
1.0677344010677343,34.7230212869161,25.35397156260114,187.42618631694012,183.8967841127784,200.99790306719012,217.6228783068574,170.3312953909607,171.63850086000198
1.1011011011011012,36.45380581152559,26.104737056844872,186.2561579722347,184.5109868861229,201.46430261767856,217.58578550363808,170.02175849772266,171.65144025121998
1.1344678011344678,38.25959980728221,26.79968418623624,185.1212314901159,185.45585351822507,202.01969780161417,217.5965204016144,169.65021345343467,171.60028556485065
1.1678345011678346,40.06951884862059,27.42075323864025,183.8446982191506,186.16108069026205,202.6454015696074,217.6746668551201,169.230191507999,171.49326527632147
1.2012012012012012,41.92172567361534,27.95005752021076,182.8167154920072,187.11941496523403,203.30160431580785,217.6892761332245,168.78732699734593,171.40993869867907
1.234567901234568,43.80936006970165,28.963963791426124,182.00130302363985,188.37832527162564,204.03007147401328,217.64704402375145,168.34909321752932,171.34383974466255
1.267934601267935,45.72939850351201,30.14647277056393,181.35962943650125,190.42379759884693,204.7733161207933,217.5530505520084,167.89949983976214,171.28175698937036
1.3013013013013013,47.56589147807775,30.769546293808705,180.7224700215569,190.8992299161688,205.51853786761552,217.5080633106864,167.4456744926544,171.17997145024495
1.334668001334668,49.50963828870783,31.11000571044326,180.0030618258497,191.0739813527275,206.29400502565343,217.50609042069053,166.94789476865725,171.03579740173123
1.3680347013680347,51.43383610814584,30.78138276998012,179.1307863779767,191.65897339165392,207.06374376163183,217.55449539877844,166.4567603383752,170.84982677063397
1.4014014014014016,53.43565374262386,30.2617515245957,178.36383641135276,192.9799674706292,207.825037629038,217.6236683032304,165.94094277742323,170.65681544817795
1.4347681014347682,55.22661149442955,29.69103913127614,177.85124602316694,194.9418606219063,208.5899115917908,217.72957329075817,165.36647435286875,170.4513747721629
1.4681348014681348,56.8339232550952,28.91087106325545,177.89903794690392,197.8245906907325,209.3503725016516,217.90476100801345,164.74183891306967,170.2340408472224
1.5015015015015016,58.24572994902446,28.54425204827212,178.4186225965821,200.68693273429108,210.0848287437777,218.04130423618773,164.08917810321174,170.02355525419264
1.5348682015348682,59.543619056431005,28.13801249214917,179.30737589719757,203.6642679447435,210.7781421063227,218.1374567612303,163.41384589438834,169.7988299888601
1.5682349015682349,60.90178399659076,28.23582241913694,179.65449611224403,206.42262189456463,211.28634697453617,218.414811350506,162.73055538696892,169.57025796570494
1.6016016016016017,62.217472904387385,27.993133943183285,180.14976285266204,209.47429878589983,211.77835017151548,218.54406012709453,162.07152870792086,169.32799207104088
1.6349683016349683,62.733539945166335,26.85205596308764,185.8321173463554,213.13706291633468,212.25937097887405,218.8352189937676,161.40901758961238,169.10739826528774
1.6683350016683351,62.961302637461,25.718122501184137,190.26626188769256,216.85926835153964,212.6966583994544,218.97787088434995,160.76429360041564,168.88011132000494
1.7017017017017018,63.13415931444168,24.795890949318544,194.06506225431,220.2516293017457,213.04661868645795,218.92437887594,160.17827952558375,168.6368099143036
1.7350684017350684,63.369474077677125,24.04299388220845,196.9414577092324,223.35927454699424,213.3698195635841,218.75180737813275,159.61391527701423,168.34928116484204
1.7684351017684352,63.02169620300869,24.10355946766641,199.36755414921493,225.63333088864755,213.49573257435017,218.5636749425501,159.05057457378575,168.0717363347094
1.8018018018018016,62.94979936014771,23.37434990310165,200.8594075838292,228.5573164173224,213.66358466561536,218.37378316264468,158.51546238542798,167.76439555852306
1.8351685018351689,62.7659003766785,22.26340086047595,201.87369008493897,231.5781081275668,213.8050331583385,218.0886288823565,158.01846057264208,167.44396111041405
1.8685352018685355,62.811452520834486,21.06887683348419,202.0482997653334,239.15607332658288,213.97156559075293,217.7336270363025,157.55722303731525,167.07651991797542
1.901901901901902,63.50864769935384,20.27166036527549,202.4300585369128,246.0679107544496,214.3717096287123,217.1275617565564,157.18031682062474,166.6607267719338
1.9352686019352687,64.62879293659678,19.67741911843628,201.58913111615465,251.57051754523408,214.74497274866425,216.4747193226956,156.8704365190914,166.22065188401095
1.968635301968636,65.84252314539604,20.107343581994208,200.03943117933352,256.0174787556707,214.84295495839305,215.90429444048567,156.608728598383,165.80655991038265
2.002002002002002,67.06917824592908,20.718546607983004,197.37056752380167,258.4159886430555,214.89084260489588,215.36350719748827,156.34986092870406,165.3648043536357
2.035368702035369,68.22400890342723,21.15895356102203,193.69796543962,258.4905460361055,214.93453045876524,214.8988671554753,156.1310311557444,164.9052731933261
2.0687354020687354,69.44334060363403,21.416522923068573,189.25055900115285,256.774313753503,214.97026818325412,214.39665758480209,155.9260988219038,164.45247069306595
2.1021021021021022,70.990916274816,21.621014321319947,184.0400549306733,253.42286089649127,214.9484448001189,213.8093379125953,155.75087065102107,164.04183498828962
2.135468802135469,72.53653292953656,21.67836723019293,177.8495017466188,248.1373007698156,215.0282122475041,213.1693110304163,155.59289127566225,163.64219729767157
2.1688355021688355,74.03383517156676,21.416019377149016,170.80369054658456,241.16960295298423,215.06946729266951,212.5118439087529,155.46384696317585,163.235551083885
2.2022022022022023,75.18587808213184,20.87688010407775,163.42903438748897,233.5019823011544,215.1838227535191,211.90037864933527,155.32541101382506,162.79825978274403
2.235568902235569,76.29730284033971,19.891916750709093,155.25076644583947,225.05427464933405,215.63294403699456,211.12428831582417,155.2002374457524,162.35216966561404
2.2689356022689355,77.47757101250211,19.21711454813868,146.77927260025243,214.9684208275866,216.10004267345573,210.5032810533685,155.0763399558522,161.9049722197452
2.3023023023023024,78.71595551108916,18.19781055507147,137.9015789825947,204.64868763495576,216.7000157079968,209.89560708335927,154.98164384791315,161.4578363441175
2.335669002335669,79.97420236401818,17.94191958098684,128.98066481134367,194.42857795982172,217.2987501258593,209.30215988016445,154.88053133075837,161.0132145332617
2.369035702369036,80.8705627930872,17.669324058599344,118.96846730241198,182.4644458142179,217.99962014992025,208.9969650758384,154.78982259627492,160.5488409539403
2.4024024024024024,81.90647163650796,17.27750869740704,108.98075969734312,170.0034246437806,218.6501734611604,208.94585808482063,154.65256035452316,160.039754388101
2.4357691024357693,82.69184564424694,16.94885949280711,100.70662107092708,155.6117849853401,219.1517923079764,209.34994832047943,154.42368746907147,159.5616038285617
2.469135802469136,83.0087868578746,17.186627312972814,94.15246667481536,142.23503113964514,219.467824037484,209.8566658568785,154.11853668242702,159.1260250337394
2.5025025025025025,82.91334250351628,16.92743459011482,87.52509721143198,130.39191938026815,219.77408394425484,210.44925399681583,153.79904735048584,158.68447243611018
2.5358692025358693,82.69206701324191,16.739484905317543,81.34279257285586,118.66803394676938,220.0663582412307,211.1171040548312,153.38916508261482,158.2595432880069
2.569235902569236,82.8082135425889,15.3842070125801,74.79958972124479,107.8806584148264,220.47631465424345,211.4533145937177,153.0695978057401,157.8328277423545
2.6026026026026026,82.79465527258631,14.595880220582591,69.36870128907323,97.4236881892937,220.7993107729829,211.8927886985947,152.75527849976487,157.4091312258999
2.6359693026359694,82.16340506728538,14.4950311309286,64.81314137074955,86.28482382327918,220.99575207133933,212.43762142863247,152.40978714103375,156.9992939936151
2.669336002669336,81.26191479327636,14.605844076094852,61.42708097446096,75.87514140347528,221.10906576721857,213.19389694215,152.01091902193198,156.5976579261587
2.702702702702702,79.94132438418582,14.562985936312977,59.49250703065608,65.96410952081511,221.22676848793364,214.24882107353227,151.4851686978547,156.18825771717633
2.736069402736069,78.1035035219972,13.992504914706991,60.052644090032366,57.39259864521754,221.4569257091592,215.237863600346,150.90608183315769,155.76902531418958
2.7694361027694363,75.61519793324642,14.169773443742812,63.07035209229462,49.7094659107518,221.51813832489967,216.5026280328161,150.29133555065422,155.3419969274452
2.802802802802803,73.92727253149799,15.151165843900383,61.90867326013751,43.08090499251128,221.5066798772965,217.5466213096868,149.72505829537704,154.91251920518775
2.836169502836169,72.75276590434085,16.46877938117869,61.36243232924037,38.36849478907786,221.428746241619,218.48193172334865,149.23212382349246,154.51121927638266
2.8695362028695364,71.55456692223981,18.202699376412305,61.61184512200288,36.10396456892097,221.3254530219314,219.50186439703307,148.7515892796801,154.16442821525948
2.902902902902903,70.04214648135982,20.875609859806207,62.527753651881696,36.81661732258278,221.17893292473207,220.6046732966299,148.18117422198932,153.8813517508978
2.9362696029362696,68.89213233990195,22.886925484004816,63.6319378902956,41.80631445234578,221.20160496729773,221.65076868584345,147.638027865093,153.599170240532
2.9696363029696364,67.93172891069905,25.57040684757281,65.33706668725452,46.14868348779351,221.3241977455021,222.54755565263628,146.91558496926692,153.37441639818164
3.003003003003004,67.26241746032674,28.801180828765407,67.12920493375472,51.92258767611117,221.6008551017013,223.434060365594,146.2489639804279,153.17018930605505
3.0363697030363697,67.06530008608627,31.169841270374103,69.43315093435032,52.5880878197748,221.86607824576507,224.31307074452525,145.64298261522188,153.0134314394804
3.0697364030697365,66.3885520913445,33.52205944281327,71.41861784219887,52.795000890845856,221.8215147988369,225.4070753027776,145.1294922454597,152.93036190614222
3.103103103103104,66.27001344562184,37.32057513317642,67.89464234101759,46.66350624459864,221.64690777226528,226.45728402408784,144.658392814726,152.94520858408606
3.1364698031364697,65.8528111581605,39.880320678179615,66.0297190664396,42.01933286811959,221.6841643451256,227.41384905818788,144.31449608037735,152.96828543405758
3.169836503169837,65.60821262979786,41.33091460297729,66.04469033463283,40.91445193234298,221.95289454744216,228.3206918889833,144.0389013106405,153.01074721541644
3.2032032032032034,64.71865798345397,42.43317873451998,68.65414222229293,41.97151220684464,222.1759352733129,229.07707515304924,144.0078836865116,153.08559952176614
3.2365699032365702,64.11438742523627,44.02438342825209,71.8748625026968,46.94002677639219,222.43400330011124,229.9802154707008,144.20869041766397,153.06927139620396
3.2699366032699366,62.8381368409061,45.035146918919146,76.57516094316114,51.81735316107397,222.692377792712,230.88416541794803,144.60321615668715,153.02033701286382
3.3033033033033035,61.35557817302777,45.92189178484551,81.50895013554096,63.11328338309061,223.11062571145223,231.650761294304,144.9326719223701,152.9628131975155
3.3366700033366703,59.51928176894855,46.18672518578234,93.44535222350108,74.00045780338849,223.6085280205617,232.2575016234184,145.46976636942318,152.98836859244938
3.3700367033700367,58.13175972215533,46.03778210122516,100.91362039644332,78.35596102687644,224.30709118021264,232.7814316635334,146.05138286700756,152.86809952486902
3.4034034034034035,56.67514852000439,45.93747697376983,108.9143763238701,83.03611396170798,224.6247603106136,233.42199138936093,146.91369650904144,152.8439520439173
3.4367701034367704,55.69980594447709,45.26874377029153,114.03742184793536,89.42928938493063,224.6965763906269,233.6231201727977,148.18281390063572,153.03039878786458
3.4701368034701368,54.27937357201025,44.93506537261303,119.6494588824986,99.1426326828114,224.466864404854,233.79675650145472,149.69422091927714,153.36012773362177
3.503503503503504,52.60861441890642,43.90342117381302,129.62903644259592,103.11430628475664,224.08759934039784,234.14455731855875,151.39887644017406,153.62917361408805
3.5368702035368704,51.22271110069916,42.98479875420452,139.96988024395222,107.47179058741456,223.43792909068853,234.426526929332,153.24768438876904,154.1066623873643
3.5702369035702373,49.39748247245728,41.832709956075895,151.1972298157003,111.68752272976631,222.64528509374892,234.6524392269788,155.1650811757588,154.74668398882807
3.603603603603604,47.245916534134814,39.69045327847232,161.0722750436257,116.22266125294892,221.76450336731884,234.5276304586621,157.329356137163,155.49605174551218
3.6369703036369705,45.13179870231767,35.59126451814023,168.99822491594304,120.85617716162032,220.93271795899128,234.28343529081016,159.78366540698684,156.32053895095368
3.670337003670337,43.03949295418591,31.2044036005198,176.1365136026083,124.8959682738611,220.01662238929225,233.916337816675,162.37424887122697,157.27050961358412
3.703703703703704,40.91676942807487,26.9960880410104,181.37138349041703,130.29621630903657,219.03422432496507,233.45076541011392,165.07868984640766,158.2963383627123
3.737070403737071,37.76624251542082,24.08305331936618,187.00317986265537,134.15716315563031,217.5957375708117,233.29574836172853,167.60512385016398,159.51834068232006
3.770437103770437,33.79566556736135,21.087354055420587,195.10525488216592,137.93940960908895,216.3564015752952,233.3994788870956,170.03064681886636,160.68448981717648
3.803803803803804,30.32463179954456,18.48066013149141,202.59391254987693,141.65926149831054,215.192317645538,233.58850820649457,172.33812604427465,161.89128651601513
3.8371705038371706,26.50513523730962,16.13108264597726,208.3512609909303,145.3422161865199,214.0947155334071,233.85002367213195,174.51294397816926,163.1075541892614
3.8705372038705375,23.34160509175153,14.86849528070981,213.4202601737901,149.22972908998867,212.9861159834045,234.08502616075296,176.63421655785382,164.4131015946335
3.903903903903904,20.410169746509485,13.969331468710571,211.5252648919353,152.91794134495817,211.70292316670304,234.2786408146152,178.62987215630338,165.78942000287117
3.937270603937271,18.48843408066664,12.915236594040143,209.9453892197049,156.58474785873756,210.5423174556602,234.32952093465545,180.4680353295757,167.2694811725768
