Time,Left Shoulder Angle,Right Shoulder Angle,Left Elbow Angle,Right Elbow Angle,Left Hip Angle,Right Hip Angle,Left Knee Angle,Right Knee Angle
0.0,90.95212192815944,54.851787264758585,124.47164446105464,146.04076929937037,129.20831029378184,132.26647639947998,204.2994038120352,199.0986562089184
0.0333667000333667,61.16775721700956,44.85818666618073,133.5956634965099,150.80248991629566,131.2975115830259,133.0872029386711,203.24388097546893,201.81232404850505
0.0667334000667334,36.31235136863096,36.26126506371656,141.51797665207832,154.16115708652728,133.00182679941312,134.0237060075789,202.40451198816348,203.93486276735464
0.1001001001001001,16.098555365513903,28.987085536030555,148.30953457939736,156.21658574243645,134.34871620975144,135.06145745018287,201.7658581761599,205.5086893626841
0.1334668001334668,0.2390201901486648,22.9617111617872,154.04128793010435,157.06859081639425,135.36564008084875,136.18592911046252,201.3124808654993,206.5762208317104
0.1668335001668335,0.2390201901486648,18.11120501965096,158.78418735583682,156.81698724077188,136.08005867951303,137.38259283239734,201.0289413822228,207.1798741716504
0.2002002002002002,0.2390201901486648,14.361630188286329,162.60918350823206,155.5615899479405,136.51943227255217,138.6369204599668,200.8998010523715,207.362066379721
0.2335669002335669,0.2390201901486648,11.6390497463578,165.58722703892752,153.4022138702712,136.7112211267741,139.9343838371504,200.90962120198645,207.1652144531392
0.2669336002669336,0.2390201901486648,9.869526772529824,167.7892685995606,150.43867394013515,136.68288550898677,141.26045480792763,201.04296315710883,206.63173538912187
0.3003003003003003,-11.553603174974526,8.979124345466914,169.2862588417687,146.7707850899035,136.46188568599808,142.60060521627798,201.2843882437797,205.804046184886
0.333667000333667,-19.566663747365368,8.89390554383354,170.14914841718922,142.49836225194747,136.075681924616,143.94030690618095,201.6184577880401,204.7245638376484
0.3670337003670337,-24.087510544533643,9.539933446294178,170.44888797745958,137.7212203586381,135.55173449164846,145.26503172161603,202.02973311593124,203.4357053446261
0.4004004004004004,-25.40349258398905,10.84327113151332,170.25642817421715,132.5391743423466,134.91750365390334,146.56025150656268,202.50277555349413,201.979887703036
0.4337671004337671,-23.801958883241326,12.72998167815544,169.6427196590994,127.05203913544416,134.20044967818862,147.81143810500043,203.02214642676992,200.39952791009492
0.4671338004671338,-19.570258459800257,15.12612816488501,168.67871308374373,121.3596296703018,133.4280328313122,149.00406336090876,203.57240706179968,198.73704296302
0.5005005005005005,-12.995740331175597,17.95777367036655,167.4353590997875,115.5617608792908,132.627713380082,150.12359911826715,204.1381187846245,197.034849859028
0.5338672005338673,-4.365753514876985,21.15098127326449,165.9836083588681,109.75824769478224,131.826951591306,151.1555172210551,204.7038429212856,195.3353655953358
0.5672339005672339,6.032352971585738,24.63181405224359,164.39441151262417,104.04890504914816,131.05320773179315,152.08528951325326,205.2541407978255,193.68100716916192
0.6006006006006006,17.911230110702917,28.46641720936391,164.43487160254793,99.39309956998608,130.8722457089298,152.41635791846508,205.8258380762834,192.98438531578083
0.6339673006339673,30.983528884964784,31.363935146616267,165.7400913256135,94.24128359228708,130.79062113615024,152.8025398361644,205.9914635758628,192.2940875074929
0.6673340006673341,44.96190027686151,33.918015874923,167.38192219038086,91.0590372804545,130.90347553875853,153.31620098769736,205.9422038066256,191.9745884872724
0.7007007007007008,59.55899526888376,36.84490992987445,169.29215415568467,93.60136031354784,130.87699234314783,153.74304798407013,206.32993332281524,191.7926723777201
0.7340674007340674,73.5687874219797,39.95616346719613,170.10135912798555,94.70477341610892,130.97217048351874,154.01575840612298,206.5113568264522,191.74936889710867
0.7674341007674341,87.08474547986383,44.18851352966605,171.19099494521566,94.15677774990984,131.1101927437626,153.94230743815478,206.6813978959548,191.9419154421109
0.8008008008008008,98.8505953476105,37.1200162207205,171.19780902078946,90.02612923405044,131.42390461166283,153.6421117204858,206.6482245969632,192.13154073117005
0.8341675008341676,109.94018455565376,32.550736532153124,170.39873236895627,86.85119889096025,131.7621927527699,152.92164412660443,206.5578256562985,192.5238683541894
0.8675342008675342,119.35201824897294,32.12786366179254,165.82047519340566,83.50616273993982,132.32055005382168,151.8643236802239,206.0012204701752,193.11621680569644
0.9009009009009008,127.58683294260956,33.31252377750506,163.3885873778279,79.13691595185858,133.10969883611853,150.5768983949585,205.39808580074748,193.90217520109687
0.9342676009342676,133.92336676677,36.53563047470798,159.59385107878222,77.3899946068108,133.9117409385761,149.18624509788435,204.72887805832843,194.8122230228272
0.9676343009676344,137.1410456902626,41.61675565127529,155.73133508612293,76.99387559290794,134.84947951617912,147.80019787635896,203.8411921639965,195.6613731137216
1.001001001001001,139.03346848746355,47.75449040771325,150.98319254001498,77.86624670051049,135.9274528459155,146.43673088542764,202.8157709248386,196.51411206467688
1.0343677010343677,132.0270253544469,54.90401380901982,146.3982532548798,79.80722012021785,137.33350696107792,145.20700032792513,201.60823572135945,197.2173603578171
1.0677344010677343,127.17589598537133,62.76288175530698,141.37362067246949,82.71737577907511,138.8569192767337,144.22640990352323,200.3950853189591,197.65271189385115
1.1011011011011012,123.82621573536645,79.97367795695307,136.57098773827107,87.77231083173771,140.4381945806519,143.50613398271787,198.9906599110693,197.77686309193533
1.1344678011344678,121.5668294047649,89.1641164749543,131.1496527958039,91.92095443214193,142.3245492108384,142.7192600926438,197.2902635712209,198.1423226762716
1.1678345011678346,120.01703112707912,98.76409369684708,125.5366368474505,96.2404293607352,144.25011602820183,142.06397913431346,195.5125053414048,198.3232691566626
1.2012012012012012,119.2243047518762,108.7186506588874,119.77384644682516,100.63980163921268,146.19214812307135,141.56078007229257,193.67380734922244,198.29112631503804
1.234567901234568,118.74685034321062,118.97282839733144,113.90318814754346,105.02813728927032,148.12789858577716,141.230151871148,191.79059172227744,198.01731793332905
1.267934601267935,106.79522362529548,129.47166794843534,107.96656850322108,109.31450233260396,150.03462050664947,141.0925834954467,189.8792805881732,197.47326779346668
1.3013013013013013,95.63255260803388,140.16021034845542,102.0058940674736,113.40796279090938,151.88956697601847,141.16856390975556,187.9562960745132,196.63039967738217
1.334668001334668,85.80887028719013,150.98349663364775,96.0630713939166,117.21758468588254,153.6699910842144,141.4785820786415,186.0380603089008,195.4601373670067
1.3680347013680347,77.87420965852942,161.88656784026864,90.18000703616578,120.6524340392192,155.35314592156743,142.04312696667142,184.14099541893955,193.93390464427137
1.4014014014014016,72.37860371781574,172.81446500457417,84.39860754783676,123.62157687261518,156.9162845784078,142.88268753841223,182.2815235322328,192.0231252911074
1.4347681014347682,69.87208546081371,183.71222916282065,78.76077948254513,126.03407920776644,158.33666014506576,144.01775275843085,180.47606677638407,189.6992230894459
1.4681348014681348,70.90468788328803,194.5249013512642,73.30842939390651,127.79900706636889,159.59152571187144,145.4688115912942,178.74104727899677,186.93362182121805
1.5015015015015016,76.02644398100304,205.19752260616104,68.08346383553652,128.82542647011823,160.6581343691551,147.25635300156918,177.0928871676744,183.697745268355
1.5348682015348682,85.78738674972288,215.67513396376728,63.1277893610508,129.02240344071038,161.51373920724694,149.40086595382272,175.54800857002033,179.96301721278792
1.5682349015682349,100.737549185213,225.9027764603393,58.48331252406493,128.29900399984118,162.13559331647718,151.9228394126217,174.12283361363808,175.70086143644798
1.6016016016016017,121.42696428323734,235.82549113213315,54.19193987819463,126.56429416920656,162.500949787176,154.84276234253306,172.83378442613105,170.8827017212663
1.6349683016349683,148.40566503956003,245.38831901540505,50.29557797705543,123.72733997050231,162.58706170967366,158.1811237081237,171.6972831351027,165.4799618491741
1.6683350016683351,182.22368444994652,254.5363011464113,46.836133374262985,119.69720742542428,162.37118217430037,161.9584124739605,170.72975186815648,159.4640656021025
