Time,Left Shoulder Angle,Right Shoulder Angle,Left Elbow Angle,Right Elbow Angle,Left Hip Angle,Right Hip Angle,Left Knee Angle,Right Knee Angle
0.0,95.7201443786448,105.56885128084706,172.3953348240637,184.52584757422792,149.6400766693947,147.95057133043292,194.25671557857623,192.3456431014668
0.0333667000333667,60.9096087239146,73.56611233794611,170.20965396266618,185.41831424617948,148.6872376752208,147.05614829370097,195.2624015578872,195.33785852817545
0.0667334000667334,33.59736358070842,47.33827136384205,168.34123335534184,184.84644925028832,147.908958107691,146.40434745516822,196.205545017696,197.78449445090865
0.1001001001001001,13.259095140215848,26.510257815759743,166.77162525157152,182.9357646565704,147.29091128706466,145.97514372529116,197.09101856978663,199.72489081287785
0.1334668001334668,-0.6295104063735266,10.707001150924055,165.48238190083592,179.81177253504146,146.81877053360105,145.7485120145262,197.9236948259427,201.1983875572945
0.1668335001668335,-0.6295104063735266,-0.4465691734401673,164.45505555261587,175.59998495571756,146.4782091675594,145.70442723332982,198.708446397948,202.24432462737005
0.2002002002002002,-0.6295104063735266,-7.325523700108093,163.67119845639212,170.42591398861452,146.25490050919908,145.8228642921585,199.45014589758625,202.902041966316
0.2335669002335669,-0.6295104063735266,-10.304932971854852,163.1123628616455,164.41507170374825,146.13451787877935,146.0837981014687,200.15366593664123,203.21087951734376
0.2669336002669336,-0.6295104063735266,-9.759867531455583,162.76010101785667,157.69297017113468,146.1027345965595,146.46720357171685,200.82387912689668,203.21017722366483
0.3003003003003003,-8.592766867870111,-6.065397921685459,162.59596517450652,150.3851214607896,146.1452239827988,146.95305561335945,201.4656580801364,202.93927502849067
0.333667000333667,-11.15498805308431,0.4034053146803984,162.6015075810758,142.61703764272903,146.24765935775653,147.52132913685296,202.083875408144,202.43751287503272
0.3670337003670337,-8.840487770826527,0.4034053146803984,162.75828048704523,134.5142307869688,146.39571404169203,148.15199905265382,202.6834037227033,201.7442307065025
0.4004004004004004,-2.173579829907183,0.4034053146803984,163.04783614189571,126.20221296352484,146.57506135486457,148.8250402712185,203.26911563559807,200.89876846611136
0.4337671004337671,8.321421960863304,0.4034053146803984,163.45172679510793,117.806496242413,146.7713746175334,149.5204277030035,203.84588375861208,199.9404660970709
0.4671338004671338,22.12020379267456,0.4034053146803984,163.95150469616266,109.45259269364918,146.97032714995788,150.21813625846522,204.41858070352905,198.90866354259248
0.5005005005005005,38.698451856716126,0.4034053146803984,164.5287220945407,101.26601438724931,147.15759227239724,150.89814084806017,204.9920790821327,197.8427007458876
0.5338672005338673,57.53185234417764,9.27147163486687,165.16493123972285,93.37227339322928,147.3188433051108,151.5404163822448,205.5712515062068,196.7819176501677
0.5672339005672339,78.0960914462486,20.1637304960988,165.8416843811913,85.89688178160576,147.43975356835904,152.12493777147685,206.16097058753675,195.76565419864585
0.6006006006006006,99.86685535411868,32.70511135560095,166.84758537559284,79.3931944313881,146.78473262666728,151.88997167217445,207.74273868744723,196.03167821066563
0.6339673006339673,122.31983025897746,46.5205436705983,167.10749626207885,71.70537227095859,146.04224659270747,151.34964430211997,209.2311284516743,196.602306921243
0.6673340006673341,144.93070235201458,61.23495689831558,170.13630144681042,67.40086132519883,145.27559615926316,150.95497528793965,210.3843431914925,197.0380383653313
0.7007007007007008,167.1751578244212,76.47328049597773,174.0523513944907,65.36547293484868,144.18371608531544,150.28966999432154,211.53546019257888,197.7158547684401
0.7340674007340674,180.69021131467483,91.86044392081038,177.02015730649396,64.61080015271112,143.31952488456287,149.7556909802952,212.36184302938705,198.31223253601885
0.7674341007674341,191.67217886217972,101.29037396455278,169.6388216838116,70.2371916681172,142.88528067620692,149.37498294320164,212.96232981638005,198.77911778835025
0.8008008008008008,200.54440192794692,106.53055303747568,166.37297039393536,73.06040423273701,142.53821225693125,149.19873937947742,213.39583897155933,199.0592601506208
0.8341675008341676,207.52816421331096,111.66293285123692,164.38968180691643,72.90432078586072,142.3400683531138,149.08903570312526,213.69682802083827,199.71129306144465
0.8675342008675342,212.9315534341485,117.96930479240888,162.82639615985752,76.06974989087519,142.54803393358733,148.97097987773836,213.7699060871709,200.2445930651688
0.9009009009009008,216.4594947337615,123.28868513386614,163.23434186059484,78.00289242333025,142.71141249113765,149.115393104734,213.597435790136,200.7500590579249
0.9342676009342676,209.8645979499072,128.46365211697534,162.42183661915635,80.93793064609196,142.94953861354762,149.26649772102775,213.004947172374,201.1669654548712
0.9676343009676344,203.320081824884,125.63796547932816,163.18940638134993,84.68846185414164,143.26293981448754,149.39691996751665,212.2206479499325,201.3542670562933
1.001001001001001,196.57067202573683,123.63599785338332,161.59357548549758,89.51156905245936,143.6804599134907,149.5268499389929,211.131719193289,201.30022257896863
1.0343677010343677,189.1451157440412,123.25173547020104,164.95769536187655,96.40575888693272,144.1228122613038,149.51615917535847,210.20612525318992,200.9775206440529
1.0677344010677343,182.45143613165013,123.78080007636768,161.892136164659,104.15905145286526,144.5563958808765,149.5941252495994,208.59935144286132,200.84744005409183
1.1011011011011012,174.843738709411,125.60955805874988,163.24933357070958,112.39285776259536,145.28400545080632,149.73295715696892,206.7696647881015,200.55320498726184
1.1344678011344678,165.96131688242846,128.24949608698455,163.61199735429767,119.40400499657076,146.05416072061914,149.88810638420057,204.9212185884895,200.06437707915467
1.1678345011678346,156.31950799351586,130.92753632493688,162.85493052001587,123.78884424716264,146.8050087751784,150.1291663842987,202.9521610007793,199.3386860904306
1.2012012012012012,145.4751876545159,132.5497909865805,162.26498766908497,127.45904831199977,148.07203108184368,150.86474806783502,200.357872871194,198.11634386473523
1.234567901234568,134.98046060206363,141.93210001635032,161.28530044074773,130.75278795530187,149.35483881922636,151.63825520920489,197.72649962963885,196.75391030728247
1.267934601267935,141.11506693644927,149.0911060729295,159.84861233835153,133.64109907871833,150.62700422303476,152.43412488461487,195.10206791016097,195.2647788395133
1.3013013013013013,138.0449633229914,153.04668209023282,157.88766686524528,136.09501758389925,151.8620995289784,153.23679417027282,192.5286043468093,193.66234288286972
1.334668001334668,137.04572698573102,155.83834751203452,155.33520752477796,138.08557937249475,153.03369697276673,154.03070014238648,190.05013557363264,191.9599958587942
1.3680347013680347,136.8494775165708,157.47697516451962,152.1239778202985,139.583820346155,154.11536879010924,154.80027987716375,187.71068822467976,190.17113118872888
1.4014014014014016,137.43586741140382,158.77812836358868,148.18672125515593,140.56077640653004,155.08068721671538,155.52997045081233,185.5542889339996,188.30914229411607
1.4347681014347682,138.7845491661245,159.70767624599472,143.45618133269917,140.98748345527002,155.9032244882946,156.20420893954014,183.62496433564093,186.387422596398
1.4681348014681348,140.87517527662737,160.23148794849195,137.865101556277,140.83497739402506,156.55655284055638,156.80743241955494,181.9667410636526,184.41936551701696
1.5015015015015016,143.68739823880682,160.31543260783465,131.34622542923864,140.07429412444532,157.01424450921024,157.3240779670645,180.62364575208343,182.4183644774152
1.5348682015348682,147.20087054855745,159.925379360777,123.8322964549328,138.67646954818085,157.2498717299656,157.73858265827673,179.63970503498228,180.39781289903505
1.5682349015682349,151.3952447017736,159.02719734407324,115.25605813670862,136.6125395668818,157.23700673853196,158.03538356939936,179.05894554639795,178.37110420331862
1.6016016016016017,156.25017319434986,157.5867556944776,105.55025397791486,133.85354008219824,156.94922177061878,158.1989177766402,178.9253939203793,176.3516318117083
1.6349683016349683,161.74530852218064,155.56992354874433,94.64762748190064,130.37050699578035,156.36008906193553,158.2136223562071,179.2830767909751,174.35278914564634
1.6683350016683351,167.86030318116033,152.94257004362763,82.48092215201478,126.13447620927823,155.44318084819167,158.06393438430786,180.17602079223423,172.38796962657497
1.7017017017017018,174.57480966718356,149.67056431588182,68.98288149160628,121.116483624342,154.1720693650967,157.73429093715026,181.6482525582056,170.47056667593648
1.7350684017350684,181.86848047614464,145.7197755022611,54.08624900402416,115.2875651426218,152.52032684836004,157.20912909094216,183.74379872293784,168.6139737151731
