Time,Left Shoulder Angle,Right Shoulder Angle,Left Elbow Angle,Right Elbow Angle,Left Hip Angle,Right Hip Angle,Left Knee Angle,Right Knee Angle
0.0,22.151955791671163,26.743761672803977,51.229897363958166,161.0999623463452,145.52453822136113,142.26006578327477,204.141198735463,201.1823711679106
0.0333667000333667,20.308147099178075,26.61887295836827,68.48742038131152,161.0532869021069,145.33099748564192,142.60010510106886,204.19023328549312,201.1683589911878
0.0667334000667334,18.83634230114537,26.5169355201918,82.7273879680244,160.9997746926324,145.15767365769767,142.8924917603002,204.23826695638544,201.1572065858473
0.1001001001001001,17.710302498421758,26.436599435303748,94.1531626130722,160.94026748454576,145.0038626728744,143.13992414262532,204.28471888066537,201.1486873363397
0.1334668001334668,16.903788791855916,26.376514780733345,102.96810680543038,160.87560704447102,144.86886046651813,143.34510062970077,204.32900819085825,201.14257462711564
0.1668335001668335,16.390562282296557,26.33533163350979,109.37558303407432,160.80663513903218,144.75196297397488,143.51071960318308,204.37055401948933,201.13864184262576
0.2002002002002002,16.144384070592366,26.311700070662287,113.57895378797949,160.73419353485335,144.65246613059062,143.63947944472878,204.40877549908413,201.1366623673207
0.2335669002335669,16.13901525759205,26.304270169220043,115.78158155612132,160.65912399855853,144.5696658717114,143.73407853599448,204.443091762168,201.13640958565108
0.2669336002669336,16.348216944144294,26.311692006212265,116.18682882747518,160.5822682967718,144.5028581326832,143.79721525863667,204.4729219412661,201.13765688206752
0.3003003003003003,16.7457502310978,26.33261565866816,114.99805809101652,160.50446819611713,144.45133884885206,143.83158799431192,204.497685168904,201.1401776410207
0.333667000333667,17.305376219301266,26.36569120361692,112.41863183572082,160.42656546321862,144.41440395556398,143.83989512467676,204.51680057760697,201.1437452469612
0.3670337003670337,18.000856009603396,26.409568718087773,108.65191255056344,160.34940186470033,144.39134938816497,143.82483503138775,204.5296872999004,201.1481330843397
0.4004004004004004,18.80595070285287,26.46289827910991,103.90126272451982,160.27381916718625,144.38147108200104,143.78910609610145,204.53576446830965,201.1531145376068
0.4337671004337671,19.694421399898395,26.524329963712542,98.37004484656538,160.20065913730048,144.3840649724182,143.73540670047436,204.5344512153601,201.15846299121304
0.4671338004671338,20.640029201588664,26.59251384892488,92.26162140567558,160.130763541667,144.39842699476245,143.66643522616306,204.525166673577,201.16395182960923
0.5005005005005005,21.616535208772376,26.66610001177612,85.77935489082586,160.06497414690992,144.42385308437983,143.58489005482411,204.5073299754858,201.16935443724591
0.5338672005338673,22.597700522298226,26.74373852929548,79.12660779099156,160.00413271965323,144.45963917661632,143.49346956811402,204.48036025361185,201.17444419857367
0.5672339005672339,23.557286243015145,26.824079478512363,72.50674259514845,159.94908102652235,144.50508120681909,143.3948721476905,204.44367664048227,201.1789944980449
0.6006006006006006,24.348060552319147,26.917987370804354,66.75768024586503,159.96680239070923,144.57755391231166,143.30098584087008,204.38435897429423,201.1803325416856
0.6339673006339673,24.025673594415505,27.001183349430534,60.880568060836346,159.9814393799346,144.63380414661324,143.2098149567149,204.33672513967892,201.1869388891252
0.6673340006673341,24.005624907769445,27.07257086818593,59.76529951537224,159.9918504558869,144.69060050349754,143.12431593630686,204.27549116940887,201.1938334517804
0.7007007007007008,24.1516629415526,27.13355369930996,61.80608354593083,159.99670161633392,144.7472003644764,143.04461240992347,204.1983330861359,201.1986053954568
0.7340674007340674,24.22129026705648,27.18438842384693,65.38398738554577,159.98578504778132,144.81001148821525,142.97017591287536,204.1018834960173,201.2021996646579
0.7674341007674341,24.273808551391785,27.229039587143365,70.02113941822108,159.966435139576,144.8833612687322,142.9032709757233,203.9865756375247,201.2038749753136
0.8008008008008008,24.24804940672028,27.26293517892146,72.02157949241928,159.9332854877326,144.95999996862363,142.84870792248114,203.8577010025651,201.1996932702416
0.8341675008341676,24.23936313084936,27.289766920746,73.29147014192205,159.91159047573464,145.04627101466954,142.8139189146041,203.71262131256623,201.18935313797968
0.8675342008675342,24.15498709617683,27.307988155913304,73.88077776257968,159.90137669962172,145.140898050457,142.797703394982,203.54279639154703,201.17080528937572
0.9009009009009008,23.95210826927108,27.334329518099366,73.24052136328395,159.91301695079653,145.24823852313574,142.7933059210862,203.36390768531533,201.14477556019605
0.9342676009342676,23.719999542662315,27.35624892096483,73.15549651742465,159.94118623324812,145.37268761366042,142.8046008738243,203.15675393322493,201.11147436874631
0.9676343009676344,23.61328760660209,27.37818998530528,81.75210452028622,159.98298712805953,145.49988168708254,142.82696327323094,202.94258933740616,201.0731564576613
1.001001001001001,23.34252592093068,27.40453639834878,87.03347251529338,160.01765134201926,145.63715948742006,142.84632088263123,202.7228630360121,201.03529604119785
1.0343677010343677,23.08903276060485,27.42168770821701,93.15783661728206,160.03130402824178,145.78880576567707,142.86370581053967,202.4841725334612,200.9973152238404
1.0677344010677343,22.479694632758186,27.44056066369626,100.37060476625024,160.03791725627963,145.94324376213922,142.8764282551848,202.23736317491336,200.97290604246265
1.1011011011011012,21.68895182428651,27.46348107317516,107.93085978019654,160.04047044988323,146.0889486960172,142.89186520508494,202.01683288850808,200.9464539255551
1.1344678011344678,20.957935065532283,27.500861822616773,117.6621616441051,160.0266266602654,146.21637609891428,142.89733475441858,201.8241102565025,200.92224625993907
1.1678345011678346,20.10893656794388,27.551327987148863,126.15605950086172,160.01427043785023,146.3399047096792,142.90250333675246,201.6474692380728,200.8979849908945
1.2012012012012012,18.44784837269213,27.60761648823358,130.30118341716891,160.01596464115286,146.46218042166842,142.91637798759035,201.4958995494188,200.86963600921223
1.234567901234568,17.361019141089034,27.663198760804303,134.85976892600482,160.0268627812181,146.58298996072216,142.93987653126575,201.3736194237673,200.8383977392604
1.267934601267935,16.64715295971203,27.735682945573632,139.61468875246985,160.0666971671749,146.70043718186503,142.97080111124097,201.28869473291505,200.80547913291903
1.3013013013013013,17.413560141911077,27.80760717496381,145.21902694393623,160.11638086135255,146.81603354321695,143.0130009940087,201.24758661801167,200.77179544634376
1.334668001334668,16.611382769462793,27.86774145188628,149.1099939925055,160.1593554988822,146.92912593279328,143.06266771676897,201.2460225189999,200.73681183169035
1.3680347013680347,17.277401295387357,27.90741643224488,153.43369812447236,160.1825227262215,147.04582664033856,143.11942441521765,201.28730442712683,200.6991980596042
1.4014014014014016,17.412524522966677,27.9210735461014,156.2445755173686,160.1604148106185,147.17639237332986,143.169880220401,201.34408003338763,200.66163620180944
1.4347681014347682,17.968081376675713,27.9306764516859,158.25796595003803,160.10045227943485,147.28993531676434,143.19650920552905,201.41768990004016,200.66260703603945
1.4681348014681348,18.11409270815044,27.895717959670527,158.69386881500918,159.9884710327883,147.38904426534447,143.24391709794787,201.50634954623112,200.65851877922145
1.5015015015015016,18.643821139482288,27.84896329115024,158.26291341203293,159.86556775814705,147.47788554940456,143.30739938536982,201.5937168698742,200.645325272182
1.5348682015348682,19.28116755660572,27.80448658995917,155.70083788592362,159.7442540289435,147.55119835349197,143.38553193782033,201.68353167536216,200.61940290411047
1.5682349015682349,19.925394124096485,27.773021039239296,151.5562003598708,159.63889345643585,147.61158589527454,143.46779460639792,201.7692257523952,200.58902121893988
1.6016016016016017,19.76005816332414,27.762348308674817,149.56701519516682,159.57047194023008,147.65520376610456,143.55020803171564,201.8565092651557,200.55384724807925
1.6349683016349683,19.86661921229092,27.782006843697094,150.1691873024255,159.55358546849587,147.68810101902173,143.6300637370246,201.9452557689032,200.51545036231613
1.6683350016683351,20.120575399767784,27.81466716552095,150.16913483128556,159.57095377575942,147.7184744884475,143.70248629636816,202.04327213388385,200.4754065175721
1.7017017017017018,20.44746184597157,27.85918548542863,150.9175711814798,159.6095978793761,147.72236046264965,143.7803731601229,202.1563197888986,200.43870391893972
1.7350684017350684,20.76619996385682,27.91584725455444,151.8014352155585,159.67830314477266,147.70970027387838,143.8569281370352,202.275740177834,200.41194468114136
1.7684351017684352,21.220407484468407,27.977463055744863,153.07897000014,159.75743178585006,147.69071106132307,143.93507421829395,202.3965933646984,200.3940393449742
1.8018018018018016,21.68077308274252,28.072946786756106,154.35624818078017,159.8881276129061,147.6907423099941,144.02715618781218,202.4704626938813,200.3672789480092
1.8351685018351689,22.178879420153727,28.18469795057252,155.77213058734017,160.03980292826378,147.70694576166585,144.13175658366254,202.4941859067201,200.3363451883725
1.8685352018685355,22.71138198021489,28.29446227152504,157.3418095217347,160.186795708139,147.73426726915693,144.2509959880684,202.48926815325424,200.30134088710287
1.901901901901902,23.27457192750393,28.40639922818555,159.01102974994785,160.34019022783204,147.75838633528312,144.379330622196,202.4626307234424,200.2600932920321
1.9352686019352687,23.764968431497728,28.51342999535497,160.61522065174546,160.48944121840103,147.78138009353816,144.51026051507526,202.4202515754304,200.2121241236973
1.968635301968636,24.257373856526968,28.62170040843535,162.27007544060254,160.6447738511272,147.7898652459079,144.63761355089832,202.35811111097755,200.1630176006637
2.002002002002002,24.77358404061264,28.71080583717355,164.00384551785757,160.75574017580198,147.77544448626068,144.73882824528854,202.29927226088824,200.1299701767056
2.035368702035369,25.32147998137499,28.78772472729745,165.86505520332426,160.83516231063027,147.75586024142638,144.82798252799063,202.2234609473792,200.10105214263004
2.0687354020687354,25.82696164978769,28.838087141476684,167.66961143021518,160.88555233983945,147.74198696208805,144.91604583344747,202.11295313087885,200.05669186250856
2.1021021021021022,26.35628699458998,28.879244230319788,168.39555782116392,160.91230026875195,147.7320931013124,145.00756284255297,201.97910076893447,199.99836155254943
2.135468802135469,26.74473352901312,28.930857110905954,165.11770347471142,160.92411215186073,147.73031202261888,145.1001610738364,201.8038349683562,199.929951353362
2.1688355021688355,27.136265012598287,28.986539254134307,165.7396474361218,160.9171829803645,147.737260480095,145.19922718551086,201.5893505915813,199.85292594046132
2.2022022022022023,27.4991896431004,29.038819004937537,166.2292610505769,160.87379304374414,147.7643752526408,145.2855203170066,201.3306306720964,199.7701318936038
2.235568902235569,28.07557580528385,29.090732807703304,167.2557239283181,160.83569810895304,147.80861350511225,145.38407147088785,201.0880191185429,199.67622818266
2.2689356022689355,28.74439214695093,29.12688050610312,168.23753512312754,160.7856695861188,147.87905958894686,145.50001311814768,200.84696861105823,199.5680326443764
2.3023023023023024,29.3220811220174,29.15839888531919,169.2004556241326,160.7685572357272,147.9631662897162,145.65118772431748,200.60933690984376,199.44788505379995
2.335669002335669,29.784485855191058,29.17155274557686,170.00264094310535,160.7675362149049,148.06861155200832,145.82120915914803,200.38461597724395,199.3165218532137
2.369035702369036,30.30570978801504,29.18738629083316,170.9829502134313,160.76973546230565,148.16944650831613,146.0074581873183,200.1774564843108,199.18491901668668
2.4024024024024024,30.79952399876205,29.25864334791928,171.94957983842409,160.80284078037428,148.2578441094364,146.18603034607173,199.9954692678816,199.05329118416705
2.4357691024357693,31.243243348857128,29.32953401503892,172.78596676983787,160.8043278594599,148.32067283002849,146.37187027913316,199.8355683199725,198.9259294696769
2.469135802469136,31.636847101147552,29.37618362564687,173.52036300712678,160.76937874453307,148.36732102468724,146.55487514362994,199.70179097408385,198.801813193992
2.5025025025025025,32.015588235730114,29.410972854856155,174.16829791806498,160.69942534847362,148.37984518106325,146.7425929919271,199.5955215037681,198.6849328451444
2.5358692025358693,32.45724550620618,29.422993165517152,174.88160404121322,160.554859916843,148.34348812934772,146.92891668446285,199.5172683758151,198.59179051182
2.569235902569236,32.911156691718105,29.44652523338741,175.57721047401145,160.38608151706276,148.25571212380558,147.12920818912812,199.4420638224084,198.51968821801253
2.6026026026026026,33.39739423143409,29.455173353077527,176.2657815038885,160.1904660904088,148.13614739137512,147.37212377614168,199.3774973498976,198.4113380406578
2.6359693026359694,33.94247708416083,29.5296313901192,177.08247309713198,160.0586028957955,147.99617515169777,147.6195205024957,199.30234949477327,198.30638412107595
2.669336002669336,34.51057246196558,29.66133359599755,177.94819655756933,159.97120757043143,147.84527207700174,147.8585664828263,199.23512386207472,198.2146921242868
2.702702702702702,35.06726757062912,29.832875652216966,178.79831155160124,159.9277681539593,147.69427585085683,148.09193437955813,199.1773555142733,198.134520650821
2.736069402736069,35.610306927574186,30.035841963475,179.6282379932208,159.92300608820526,147.52623949274775,148.30604386166516,199.14059169756263,198.09047814375432
2.7694361027694363,36.1217493115969,30.23812021403118,180.40624977653425,159.91402874917773,147.35528837233127,148.51366504731294,199.11777002052173,198.06304065051003
2.802802802802803,36.58254428756407,30.41711075286451,181.06874721234124,159.89621814414423,147.18989440859065,148.71892123552885,199.0889548769776,198.0620016130798
2.836169502836169,36.99367553982571,30.603655184695047,181.66384872628447,159.90369900689822,147.02933680308442,148.94626558861518,199.05326944311264,198.054678492372
2.8695362028695364,37.37684293633711,30.78249975123685,182.2190353598444,159.86783212197489,146.86098193573423,149.15768377256268,199.0492482599426,198.07948908668843
2.902902902902903,37.73403226222581,30.95650059281662,182.7467923161667,159.84544147481745,146.71559317918658,149.3895152955543,199.0490635592738,198.08602929655652
2.9362696029362696,38.04070045359119,31.144084021268192,183.26667442733185,159.87097754750062,146.63181878164306,149.6280742159833,199.04764388381105,198.06032302640577
2.9696363029696364,38.31186616651922,31.29963287578609,183.75543855397348,159.8846847839331,146.59562759326943,149.8879298474425,199.0326760200732,198.0052972514048
3.003003003003004,38.54391546602382,31.453368988932105,184.1649859269224,159.94279189818235,146.58825543571336,150.15941563245593,199.03104048006333,197.920198455022
3.0363697030363697,38.66551307347939,31.56416817565432,184.4004593292108,159.99189049119278,146.57416585583735,150.4416266540312,199.05592769613065,197.8177361835185
3.0697364030697365,38.68653131775256,31.619929347776743,184.43692426192885,160.01937232647816,146.54447288964252,150.73422341303268,199.1004870590954,197.6826017045888
3.103103103103104,38.71821750406556,31.621245020970544,184.4918520612437,160.01345675359602,146.51346667673928,151.03814459920426,199.15406019989845,197.5180288875696
3.1364698031364697,38.71458848999932,31.554521210968275,184.46427336647253,159.9428507320098,146.52384327086915,151.34399975782858,199.16918723799293,197.3130867979801
3.169836503169837,38.63448261120151,31.45635085709815,184.3499039635902,159.87255813965922,146.57922750300222,151.68629739298876,199.13388560016688,197.0479065202924
3.2032032032032034,38.42599645944415,31.309329210291985,184.11854169506293,159.81911852395035,146.68815530730018,152.08188649119265,199.15563459287085,196.67715356392944
3.2365699032365702,38.20707427943242,31.180327368804885,183.9708551613535,159.78980517201103,146.87123434437302,152.51434081005883,199.17138829526027,196.26160905933307
3.2699366032699366,38.007038655577546,31.0570303116895,183.8104631147813,159.79593339729166,147.10241865232962,152.9634158297177,199.1428081845198,195.83703227094333
3.3033033033033035,37.806462131515445,30.921838338934105,183.69808688538976,159.82503188717112,147.39253062771212,153.42401393986663,199.07749288101303,195.4067510595644
3.3366700033366703,37.51813389856667,30.785795333796354,183.5423661963389,159.90920904780924,147.73889400943304,153.88242909569186,198.9563517671831,194.97308182157283
3.3700367033700367,37.14176270826587,30.654897090800464,183.35650323003088,160.0342775955232,148.1087270545603,154.3615650746137,198.8359124605797,194.53867899124828
3.4034034034034035,36.71967531442131,30.58583076491561,183.064162949458,160.22655208978873,148.46968976586948,154.82089609037686,198.69677874824643,194.11903592338257
3.4367701034367704,36.282388832861216,30.53680483688417,182.7857758192093,160.4200645127582,148.81577499772365,155.27125247156718,198.52830045287865,193.7016106910449
3.4701368034701368,35.813523008851774,30.49627991894597,182.5505572941244,160.6479323677369,149.14852501264124,155.69674180368355,198.34890665823576,193.3039010880705
3.503503503503504,35.359947130802,30.452511351228,182.3943198055328,160.82445938267898,149.4400633290328,156.10876007514725,198.1615468904628,192.9278782838826
3.5368702035368704,34.914879673443906,30.4041008824856,182.11106007115785,160.96284397890471,149.71031379785774,156.467984105827,197.98039742335644,192.5906309753198
3.5702369035702373,34.436613221717465,30.262913715065054,181.7919719553868,160.94367131222498,149.94624347584048,156.8108551869194,197.80035312758216,192.2926880590916
3.603603603603604,33.96666557670291,30.09518729225149,181.5409237844329,160.8296060794724,150.15752770798528,157.12846719574875,197.6222552467737,192.0317607027764
3.6369703036369705,33.482621955008355,29.87578766467473,181.35508091064585,160.58257728457045,150.3236616797113,157.4395722317063,197.44910318032456,191.81383452131809
3.670337003670337,33.00965225703373,29.629502766601565,181.1649956525496,160.244617533131,150.44695128037435,157.74155698888748,197.27802849861723,191.64336636826192
3.703703703703704,32.515557059691936,29.350190073083187,181.0388164960804,159.8339700385985,150.52845181851868,158.0332198739467,197.11119414601475,191.50966459707752
3.737070403737071,32.06234870703871,29.044337766826448,181.0565757108638,159.30722644430986,150.56540501494524,158.3080362546561,196.94383298770447,191.41359634887093
3.770437103770437,31.54637852821803,28.714579129451938,181.08761666562003,158.7377892131792,150.58104608324683,158.56036501792462,196.77164468462124,191.36744176906663
3.803803803803804,31.03379038823132,28.32579682608379,181.18479162108167,158.1186594830827,150.5735941406941,158.78081461354827,196.6143498189884,191.3718582881017
3.8371705038371706,30.5342826348355,27.888913769860626,181.4548745806809,157.43439174408374,150.53450860713542,158.97545025797658,196.46656403556,191.41994842664715
3.8705372038705375,30.04958683633493,27.39394480738948,181.7206224449927,156.73510335088085,150.45014094058084,159.13190183138448,196.3340563854776,191.51919919935656
3.903903903903904,29.459915922312938,26.814529922018345,181.88536438129964,155.95932390149505,150.3525415121219,159.27631526886407,196.20633393963405,191.63184112939305
3.937270603937271,28.82105204201036,26.184998365899915,181.60836621201568,155.15565327952402,150.26361859014074,159.40701214897945,196.0830545972645,191.766896369066
