Time,Left Shoulder Angle,Right Shoulder Angle,Left Elbow Angle,Right Elbow Angle,Left Hip Angle,Right Hip Angle,Left Knee Angle,Right Knee Angle
0.0,64.48596122402832,77.50694973367698,163.15646478466593,160.74624502827825,129.7651814641348,130.3881349638402,212.13272103478147,214.6041418839326
0.0333778371161548,36.33670871954938,49.19121880329666,165.35402391803228,165.28853784178995,131.20876358367755,133.39053520048782,210.26921001082795,213.15427336557383
0.0667556742323097,15.138121406048384,27.08083511269056,167.022191195927,168.10830477400935,132.25946361847673,136.05819224716976,208.74385914541995,211.73290816793065
0.1001335113484646,0.3803150513991227,10.730133138334168,168.2030632355698,169.33997898396302,132.9475841916341,138.40710557323604,207.53254565815004,210.34548818598472
0.1335113484646194,0.3803150513991227,-0.3065526432970245,168.9387366541804,169.11799363067752,133.30342792625137,140.45327464803665,206.6111467686108,208.997455314718
0.1668891855807743,0.3803150513991227,-6.474887755727508,169.27130806897844,167.5767818731795,133.3572974454303,142.21269894092154,205.9555396963948,207.69425144911216
0.2002670226969292,0.3803150513991227,-8.220537722481794,169.2428740971837,164.85077687049554,133.13949537227268,143.70137792124078,205.5416016610945,206.44131848414912
0.2336448598130841,0.3803150513991227,-5.989168067084421,168.89553135601585,161.07441178165223,132.68032432988022,144.93531105834433,205.3452098823027,205.24409831481069
0.2670226969292389,-8.44659457652459,-0.2264443130598294,168.2713764626946,156.3821197656762,132.01008694135467,145.93049782158218,205.34224157961177,204.10803283607865
0.3004005340453938,-11.852491709848934,-0.2264443130598294,167.41250603443967,150.908333981594,131.15908582979782,146.7029376803043,205.5085739726144,203.0385639429348
0.3337783711615487,-10.347260580700125,-0.2264443130598294,166.36101668847078,144.78748758843227,130.15762361831136,147.26863010386072,205.82008428090305,202.0411335303609
0.3671562082777036,-4.440785421204325,-0.2264443130598294,165.1590050420076,138.1540137452176,129.03600292999707,147.6435745616014,206.25264972407032,201.1211834933389
0.4005340453938584,5.357049536512264,-0.2264443130598294,163.8485677122699,131.14234561097658,127.82452638795668,147.84377052287638,206.78214752170885,200.2841557268505
0.4339118825100133,18.536360060323418,8.621968016067456,162.4718013164773,123.8869163447358,126.55349661529196,147.88521745703562,207.38445489341115,199.5354921258776
0.4672897196261682,34.58726191810298,20.11040339677288,161.0708024718496,116.52215910552188,125.25321623510466,147.78391483342912,208.0354490587698,198.880634585402
0.5006675567423231,52.9998708777248,33.793196305531936,159.68766779560642,109.1825070523614,123.9539878704965,147.55586212140685,208.7110072373774,198.32502500040533
0.5340453938584779,73.26430270706255,49.22468121882024,158.36449390496756,102.00239334428096,122.68611414456927,147.21705879031884,209.38700664882649,197.87410526586964
0.5674232309746329,94.87067317399014,65.95919261311322,157.14337741715389,95.11625114030788,121.47989768042564,146.7835043095162,210.0393245127113,197.53331727677832
0.6008010680907877,117.30909804638146,83.55106496488625,159.07197739652145,91.55779171863072,120.3419259996189,146.08040815334377,210.5762152147645,197.7795426892774
0.6341789052069425,140.06969309211013,101.5546327506149,159.14240956112488,88.69073293418361,119.23646033661156,145.47885640852633,210.78979965108363,198.26056622821588
0.6675567423230975,162.64257407905006,119.52423044677484,164.66990762028595,89.10212080559846,118.55668301725778,144.92459033678526,210.68394857850907,198.6635420942144
0.7009345794392523,184.51785677507704,137.01419252984218,167.76124536121443,83.29060156746588,118.21333840106595,144.17421019032608,210.55475340844265,199.1437933071416
0.7343124165554072,197.97987076128229,145.8468373876979,167.4219887212467,78.94587868725515,118.34890177934716,143.45404784091872,210.36958824182847,199.94903755071056
0.7676902536715621,203.84497214871112,153.1418960211263,164.57789851449888,76.15850050060858,118.79333162444378,142.74642110276017,210.0759434132785,200.83038236851576
0.8010680907877169,211.4991621519617,158.82895363698734,161.68359808501543,74.4233256076823,119.49147610949252,141.9812384837356,209.78523710285208,201.71943642283537
0.8344459279038718,217.891960075272,154.45170454277908,159.2326400196694,74.18798917989844,120.52824359915653,141.4559391100673,209.3153406941285,202.5448616156282
0.8678237650200267,221.50267280349408,150.8991328965695,156.9723203142084,75.29659283500132,121.95286864994448,141.1360353489282,208.60793386528007,203.30014278403183
0.9012016021361816,217.62933319610693,147.78047860924303,155.8862264562438,77.88034502707889,123.7125128079353,141.23870107900512,207.6727735522384,203.6883390388484
0.9345794392523364,213.50654034675603,145.87342067089324,155.33297205121957,81.59314594859804,125.81317047743968,141.67488807448808,206.4609967162262,203.69752140338872
0.9679572763684912,209.1150087280879,144.4445349477378,154.25471503647557,87.06115130719088,128.15429490697085,142.3087255859342,205.0715762160819,203.31474076189943
1.0013351134846462,203.98147678651424,143.14722957222946,155.21255183103102,93.90621509444266,130.71105504274897,143.11496681067905,203.50289430824765,202.6945373583899
1.034712950600801,198.0252399924253,141.46989008751424,152.7116080586591,100.25565419222902,133.45789221834434,144.05745754232098,201.83720771996545,201.82259993342868
1.068090787716956,190.9101813272621,139.20510378103018,149.12251729475025,111.6341842791922,136.38700364952496,145.2146801736023,200.0336775117856,200.64366384181744
1.1014686248331107,182.32423081419807,135.99158953328836,144.62379651981732,119.27916304284328,139.4463983893105,146.48949541655023,198.13208604679585,199.2428750734012
1.1348464619492658,172.01387466573846,132.6847445569007,140.78551375215113,126.67572015698786,142.59335923695593,147.8697550668718,196.14195061926952,197.6493062613424
1.1682242990654206,160.66520474158898,127.97488318370604,136.63913669667812,133.2880378064331,145.78124424443058,149.33045678854393,194.1305686181676,195.8957153794986
1.2016021361815754,148.38722937861849,132.31557376814396,132.1779308888918,139.26759765797675,148.88630893441206,150.845722854582,192.1668959688365,194.0449957789054
1.2349799732977302,135.07182379477644,134.1439119957968,127.0636328046226,146.83317447067117,152.53451694633657,152.7582953894155,189.97590571157056,191.6363807241996
1.268357810413885,133.02159562823283,134.21365831488785,121.69259254699182,153.63298767496707,156.0800672918161,154.67251413242366,187.8379361156791,189.1705702559053
1.30173564753004,139.0962785000803,132.05190042215733,116.08797880141788,159.4580627015493,159.46916866056438,156.5565819590394,185.7820615527696,186.6849480828348
1.335113484646195,144.4195953063367,126.76847590739308,110.27296025332063,164.09942498110362,162.64802974229647,158.37870174469683,183.837356394451,184.21689791380152
1.3684913217623498,150.78389564742685,140.27076633541816,104.27070558811975,167.34809994431603,165.5628592267274,160.1070763648302,182.0328950123325,181.8038034576192
1.4018691588785046,157.8151857790213,153.77154296629578,98.10438349123524,168.99511302187224,168.1598658035722,161.7099086948736,180.39775177802304,179.48304842310145
1.4352469959946594,165.2801137374182,166.7274614063174,91.7971626480868,168.83148964445826,170.38525816254585,163.15540161026132,178.96100106313173,177.29201651906197
1.4686248331108145,172.94532755891777,178.59517726177552,85.37221174409426,166.6482552427599,172.18524499336348,164.41175798642746,177.7517172392677,175.26809145431443
1.502002670226969,180.57747527982,188.8313461389629,78.85269946467743,162.23643524746302,173.50603498574003,165.44718069880622,176.79897467803988,173.44865693767247
1.535380507343124,187.94320493642468,196.8926236441729,72.26179449525613,155.38705508925358,174.2938368293906,166.22987262283178,176.1318477510574,171.87109667794974
1.568758344459279,194.809164565032,202.2356653836979,65.62266552125018,145.89114019881723,174.49485921403013,166.72803663393825,175.7794108299293,170.5727943839599
1.6021361815754338,200.9420022019421,204.3171269638308,58.95848122807939,133.53971600683997,174.05531082937378,166.9098756075599,175.77073828626467,169.59113376451657
1.6355140186915886,206.1083658834546,202.59366399086431,52.29241030116356,118.12380794400777,172.9214003651365,166.7435924191309,176.13490449167256,168.9634985284335
1.6688918558077437,210.0749036458697,196.52193207109173,45.64762142592252,99.43444144100636,171.03933651103335,166.1973899440854,176.90098381776198,168.72727238452427
1.7022696929238983,212.60826352548767,185.55858681080525,39.04728328777608,77.26264192852172,168.35532795677935,165.23947105785754,178.0980506361421,168.91983904160256
1.7356475300400531,213.475093558608,169.16028381629786,32.51456457214404,51.39943483723963,164.81558339208954,163.83803863588153,179.75517931842185,169.57858220848203
1.7690253671562082,212.4420417815314,146.78367869386244,26.072633964446283,21.63584559784597,160.36631150667893,161.96129555359158,181.90144423621035,170.74088559397632
