Time,Left Shoulder Angle,Right Shoulder Angle,Left Elbow Angle,Right Elbow Angle,Left Hip Angle,Right Hip Angle,Left Knee Angle,Right Knee Angle
0.0,26.308986442601096,40.58627556002463,161.63838200674,175.32744726354844,135.5569220704565,129.19360126472475,200.82619212326395,201.4204728140975
0.0333667000333667,25.769242154908472,40.15165862151442,160.89678154580002,174.22599827725335,135.4882388436484,129.1002348033102,201.22431339204908,201.8116680207136
0.0667334000667334,25.324434751700647,39.81503346157343,160.27068064086467,173.34502196113982,135.42039364966217,129.01407493073947,201.59293515503447,202.1718036034977
0.1001001001001001,24.970441898421115,39.56931896398389,159.75634991171424,172.66898982511472,135.35295379789687,128.93544682987516,201.9331227835345,202.5020861285416
0.1334668001334668,24.703141260513373,39.407434012528014,159.35005997812902,172.18237337908488,135.28548659775166,128.86467568357986,202.24594164886312,202.8037221619373
0.1668335001668335,24.51841050342092,39.32229749098805,159.04808145988926,171.86964413295715,135.21755935862558,128.80208667471618,202.5324571223345,203.07791826977643
0.2002002002002002,24.412127292587257,39.30682828314621,158.84668497677532,171.71527359663838,135.14873938991772,128.74800498614675,202.7937345752629,203.32588101815105
0.2335669002335669,24.38016929345588,39.35394527278473,158.74214114856744,171.70373328003544,135.07859400102714,128.70275580073414,203.0308393789624,203.5488169731529
0.2669336002669336,24.41841417147028,39.45656734368583,158.7307205950459,171.81949469305516,135.00669050135295,128.666664301341,203.2448369047471,203.74793270087383
0.3003003003003003,24.52273959207396,39.60761337963176,158.80869393599104,172.04702934560444,134.93259620029426,128.6400556708299,203.4367925239312,203.92443476740576
0.333667000333667,24.689023220710418,39.80000226440472,158.97233179118314,172.3708087475901,134.8558784072501,128.62325509206346,203.60777160782888,204.07952973884045
0.3670337003670337,24.91314272282315,40.026652881786944,159.21790478040245,172.77530440891897,134.77610443161956,128.61658774790428,203.75883952775425,204.21442418126983
0.4004004004004004,25.19097576385565,40.28048411556067,159.54168352342927,173.24498783949795,134.69284158280175,128.62037882121496,203.89106165502145,204.3303246607857
0.4337671004337671,25.518400009251422,40.55441484950812,159.93993864004392,173.76433054923388,134.60565717019574,128.6349534948581,204.0055033609447,204.4284377434799
0.4671338004671338,25.891293124453966,40.84136396741153,160.4089407500267,174.31780404803362,134.51411850320062,128.66063695169635,204.10323001683804,204.50996999544432
0.5005005005005005,26.30553277490677,41.13425035305311,160.94496047315783,174.889879845804,134.41779289121547,128.69775437459225,204.1853069940157,204.5761279827708
0.5338672005338673,26.756996626053333,41.42599289021511,161.54426842921768,175.46502945245186,134.31624764363937,128.74663094640846,204.25279966379185,204.6281182715512
0.5672339005672339,27.24156234333736,41.70951046268008,162.20313523798774,176.0277243778854,134.2090500698725,128.8075918500086,204.3067733974824,204.6671474278789
0.6006006006006006,27.667095619406584,41.91575083634845,162.78805780933806,176.437367818824,134.0225689731227,128.8407480158966,204.41360482000965,204.7328812721449
0.6339673006339673,28.10068967302419,42.13492023138487,163.40918890920295,176.78973487754493,133.86388194956243,128.8769037310567,204.47691136135688,204.78205661157227
0.6673340006673341,28.616024007292378,42.30720806119368,164.1921541543776,177.04160902299031,133.7090634041107,128.95427611824843,204.49807120168865,204.80683663203868
0.7007007007007008,29.308546145601497,42.3856672491502,165.21906245624,177.10204862592084,133.5078998845293,128.99051319990272,204.4858464996156,204.79138655662248
0.7340674007340674,30.04033587785472,42.41155660842263,166.30605954246653,177.07046571736453,133.32669994470655,129.08247353650307,204.43430657172965,204.7496391204732
0.7674341007674341,30.767441052459723,42.43751640499933,167.44403641494335,177.0554485581633,133.18193777457404,129.2244910103663,204.357406515958,204.69441688247647
0.8008008008008008,31.464773115438742,42.41194749774939,168.6748771885954,176.97393805405056,133.05153814064255,129.42163076620892,204.293562781214,204.6504942413262
0.8341675008341676,32.09092209135353,42.36779686923818,169.8154688761159,176.86770066350388,132.96014196070766,129.64752585015455,204.2257030124516,204.64592833070748
0.8675342008675342,32.71328968980687,42.25293960433741,170.9757425452462,176.64552086878416,132.86947403186647,129.91533490563506,204.18151870959707,204.67858139428364
0.9009009009009008,33.34646613823696,42.11939881945455,172.17060698740414,176.3632248122713,132.7556403107322,130.21451743945929,204.17787551415336,204.7597002168592
0.9342676009342676,33.98065531562392,41.91090180235881,173.39753307566394,175.9433366509624,132.63091790657097,130.550353475221,204.1830531252229,204.848217746244
0.9676343009676344,34.65082422823681,41.65001868116471,174.6589961919685,175.41633427515507,132.49001339228133,130.900752221664,204.1567238421068,204.91483317897595
1.001001001001001,35.307997465654935,41.30587837559226,175.92414576710956,174.78898976570352,132.33380818898144,131.30437884115796,204.1473833668076,204.9785564706077
1.0343677010343677,35.89419044738845,40.89867877337737,177.08493085787495,174.07644659556223,132.18897815782196,131.72261716732405,204.1416834190843,205.0255650122901
1.0677344010677343,36.41486096644175,40.42785055844817,178.21469795967826,173.32317533785746,132.0706284671139,132.21493509651265,204.1275102782577,205.05455638992945
1.1011011011011012,36.83826573064483,39.969720314850974,179.2009153902545,172.59884602843456,132.01113759493313,132.7519709829968,204.05669527386829,205.0627219806792
1.1344678011344678,37.20217608424546,39.41459923706849,180.10345347851427,171.78809700979144,131.965054395463,133.3462884181495,203.9985947545595,205.04900725608064
1.1678345011678346,37.55848708979247,38.86028270874122,180.8673349165348,171.07405153565355,131.9198123194168,133.98250552470503,203.96783827597736,205.02129026855496
1.2012012012012012,37.92078445097988,38.21581557505939,181.68038115928468,170.2723573429802,131.8814294833572,134.6683091321838,203.94101434954572,204.95081046303343
1.234567901234568,38.3513412904201,37.54309594959479,182.3274616979445,169.46438894019073,131.8025617970103,135.4173434905138,203.9199305589984,204.8150507384688
1.267934601267935,38.806928018459374,36.76386121021722,183.17342756996905,168.5192979813122,131.70861051840052,136.2114127311085,203.91071909595652,204.61814875990024
1.3013013013013013,39.49169793000788,36.277973636141255,183.25081944323085,167.78083153207146,131.66837524692372,137.029807094811,203.9134965606596,204.3937221027079
1.334668001334668,40.092672975573166,35.65090364058743,183.78479978681744,166.88240259265072,131.619582360723,137.85101502896117,203.9303143692352,204.1373306479591
1.3680347013680347,40.57367754579109,34.38318743070354,189.7483714078681,166.19837861882263,131.61740126665785,138.7071701855323,203.9114220238445,203.8320647273169
1.4014014014014016,40.895414633849576,32.866575164926495,194.5892780709089,165.28064080927658,131.6542146571908,139.55375476509565,203.9204973199699,203.50908058879995
1.4347681014347682,41.47520417853536,31.87089031709097,199.00181878498915,164.62562037483772,131.64754130733235,140.35631942979444,203.9442460836982,203.1689285711132
1.4681348014681348,41.73810586218042,30.68122434714896,203.0552021156452,163.72130720754535,131.58032400800363,141.08992062501227,204.04993968726373,202.85698619990765
1.5015015015015016,41.96506623830621,28.611887828332083,203.401924227963,161.7549368229941,131.45683061903347,141.77932315693192,204.2296816814404,202.57730640904936
1.5348682015348682,41.64862817378337,26.484908118912173,202.6981847508021,159.43788565701155,131.22983935805016,142.41077229108896,204.45491436680527,202.30659589800308
1.5682349015682349,41.05820393757099,24.722021435262203,201.0701239381416,157.82089419540705,131.00166690906053,142.9618228547338,204.7535974748944,202.0604547937264
1.6016016016016017,40.12772163016745,23.023466407298105,198.6409937570454,155.3720010346693,130.8290604389514,143.42669780127886,205.08653480760773,201.8140423649409
1.6349683016349683,37.6633174822092,21.649083383501555,193.91789822488064,152.03941325007852,130.8421727118974,143.79562587307518,205.43724895393623,201.571490260928
1.6683350016683351,35.1716010365039,20.03108172857494,188.66818101569697,148.78863345632766,130.8208563071412,144.08442144136305,205.79694286165764,201.3592247705465
1.7017017017017018,33.051570633481546,18.650845457094565,183.5840489407872,147.57460265103853,130.7493707398207,144.25740381106195,206.1630254238628,201.1867685704667
1.7350684017350684,31.288889483484063,17.315186170396924,178.57962975423348,145.08703236944456,130.69357231803158,144.42339196687283,206.52095883863808,201.03416639524687
1.7684351017684352,29.62166439210926,16.279206291625247,173.5017343987558,145.1413616824799,130.63972510011808,144.54035451358882,206.8656021664533,200.8725788390816
1.8018018018018016,28.1761844302476,15.521963803166525,168.41475860293724,144.03952710873477,130.52883851795255,144.6209161610334,207.23145340533972,200.7149879973658
1.8351685018351689,26.639553231908582,14.822453336360695,163.10975233267808,141.10233258399748,130.37934945564072,144.627441217835,207.6097229681965,200.5747323044603
1.8685352018685355,15.62129555306074,14.477010240216687,157.66103016476805,137.4074015622297,130.2404747867429,144.65794332245042,207.998620777124,200.47747906191307
1.901901901901902,8.376599619751904,14.377358494380063,151.89830287165935,132.87463033489885,130.0663355359261,144.62067585237298,208.4073545761968,200.4223367620724
1.9352686019352687,4.252830422361405,14.563215203497103,146.21436515697675,127.79985582552344,129.85648910748716,144.55090692519295,208.82573795905552,200.4101808728571
1.968635301968636,3.6541601794001366,14.7322904732221,139.94353214026864,122.0374899451461,129.62566591302604,144.44983467702687,209.24343529988545,200.4415425091404
2.002002002002002,3.6541601794001366,15.169384024992972,134.24701576723442,115.93599651687082,129.34224262846308,144.33999232348123,209.68412396088772,200.4709129921488
2.035368702035369,3.6541601794001366,15.958098316244236,129.47868349833715,109.72571761339248,129.04515753866048,144.21396558502124,210.1362546295205,200.4943221787884
2.0687354020687354,3.6541601794001366,17.11325092521585,125.5818470450257,103.47161360759134,128.73244990100224,144.0774273397384,210.55941411109663,200.4730551865129
2.1021021021021022,3.6541601794001366,18.616372055100168,122.29613508565254,97.15535544630892,128.39910392096516,143.915747344096,210.9544555358877,200.4416053996288
2.135468802135469,3.6541601794001366,20.39541365306636,119.82378954672993,90.93090345990367,128.0715088918515,143.76890127121175,211.3507928700022,200.4171273164264
2.1688355021688355,3.6541601794001366,22.60324888780176,118.4354348887106,84.76181639190433,127.76793273927872,143.6005545051229,211.71310971687888,200.38328460925743
2.2022022022022023,3.6541601794001366,25.09456895454918,118.03650837322856,78.95344080972437,127.46888241086651,143.48227740118048,212.03506851899365,200.3415578873554
2.235568902235569,3.6541601794001366,27.6931284384626,118.45295055317186,73.4345420774779,127.18005230547548,143.3910879182222,212.3108953223456,200.29038503293984
2.2689356022689355,3.6541601794001366,30.35524073653917,119.83143072670448,68.29002555944903,126.85936437903636,143.35408518451,212.607884929051,200.2330722326473
2.3023023023023024,3.6541601794001366,33.134337048033565,122.2313360965978,63.67778118556863,126.5435620216976,143.3586042522175,212.8689834077729,200.1705423418652
2.335669002335669,3.6541601794001366,35.91081928951754,125.80942645529868,59.437542146437146,126.24932695991993,143.42224048212088,213.0830680458509,200.08587059899844
2.369035702369036,3.6541601794001366,38.75463828373541,130.42653245245512,55.78681727959162,125.9513383516597,143.53252711539105,213.2691538468478,199.9823775329262
2.4024024024024024,3.6541601794001366,41.54710558776851,136.38780440574044,52.66947449689304,125.7116263913908,143.67182426377465,213.4221195081026,199.88342572014284
2.4357691024357693,3.6541601794001366,44.15281352732585,143.47420654793387,50.06513654396058,125.52301394868624,143.85933923672852,213.5306112402517,199.8063370330616
2.469135802469136,3.6541601794001366,46.14349160280368,152.93563593716033,47.73728903193982,125.32202582538284,144.08321166288738,213.5965577316876,199.7280542165972
2.5025025025025025,3.6541601794001366,39.69422276907051,163.72729634637955,46.01887210135422,125.13796844354457,144.3520665978403,213.61654727980027,199.6576439816794
2.5358692025358693,3.6541601794001366,36.16118998573077,169.21491824950706,44.46056485300768,124.91371451487346,144.60207909252023,213.6491709598287,199.627659978764
2.569235902569236,3.6541601794001366,35.124210353182704,174.21471360149323,43.44245538872142,124.666804698001,144.8316549482448,213.66214904451724,199.629496911738
2.6026026026026026,3.6541601794001366,35.49013665660994,177.61802311627946,42.35135872569599,124.47710422392964,145.05588793786035,213.6740955092876,199.6766454343193
2.6359693026359694,3.6541601794001366,37.65211407434603,178.8056517920401,41.572618959359296,124.34575919551872,145.31251781101918,213.6732887314049,199.73139907459583
2.669336002669336,5.647250880216283,42.411844137726426,181.3067562732012,42.14134901812476,124.29050080420132,145.53853712555502,213.6657102010092,199.78331959748067
2.702702702702702,9.82569664632384,49.03249608499696,183.20833967552213,43.75032524586816,124.40204457470875,145.73287553236054,213.6520660294456,199.8441415608449
2.736069402736069,15.8474107340974,56.94702392086794,184.2866351127484,45.2065569615819,124.65953671089396,145.91270465681845,213.58861060315212,199.88446222999363
2.7694361027694363,23.79867258005451,66.16533271818273,184.52678123282635,47.75164881993952,124.96129267033808,146.06971517268792,213.4964772115273,199.92334928976683
2.802802802802803,33.220257838534884,76.2399902500094,185.79111784986748,51.905428812852975,125.11910175292888,146.2047663514581,213.4018494199393,199.9511367607212
2.836169502836169,43.83218010224147,87.63795509952334,187.0856076280348,56.88023762534586,125.2536718853442,146.31879810898957,213.29098324479995,199.9575977459312
2.8695362028695364,55.56449033247936,99.83743005226042,187.6186158910262,60.10734678376997,125.39721339842372,146.42010801809988,213.17286748397265,199.9348187541352
2.902902902902903,68.39772411023222,112.92977397248748,187.59853374325613,64.51008535188906,125.57263367461992,146.51878313824304,213.04420302548127,199.8778551907588
2.9362696029362696,82.13330747683045,126.528812363551,187.0868055655596,65.62439998387575,125.73955188363212,146.58766685714957,212.9289193284064,199.8204751695725
2.9696363029696364,96.5809121217054,140.37470641330384,186.0998040613539,66.18892332291004,125.9048714381515,146.62340360183674,212.806918583018,199.7512738195933
3.003003003003004,111.64148927167072,154.61887966734378,184.8453286360392,67.1938257546772,126.0256133010395,146.61480910632122,212.69982470614332,199.68235504817483
3.0363697030363697,127.17777115557612,168.95590681043052,183.00728932598,67.90443381520176,126.14913563811464,146.6000563371219,212.594568436388,199.5706190285153
3.0697364030697365,142.96289281282077,183.2915304624751,181.3210036710909,68.70585336201407,126.24162582206812,146.5724530610187,212.51958070486643,199.46283217564545
3.103103103103104,158.9045713539574,197.29166207939497,179.40123665877445,69.42221300325475,126.26170605568626,146.51747538242017,212.4643697440916,199.3588676367104
3.1364698031364697,174.49229136580607,211.2999235155488,178.51856263411605,70.3282809334504,126.24037167382228,146.41661300962738,212.4379714879161,199.283510040086
3.169836503169837,189.67881009031075,233.3090112275952,178.29950324099198,71.23614848317126,126.20485150774444,146.32607132613256,212.4311686582804,199.15002814215035
3.2032032032032034,204.26316695338213,252.28851555183132,178.2063041971297,71.97611864419177,126.11374026044308,146.19016570171968,212.4400020721055,199.0537766390264
3.2365699032365702,218.2078313089328,268.3614758202407,178.32978639713997,72.7226841969082,125.97653993003344,146.03394349126765,212.45145446772167,198.9795486864584
3.2699366032699366,230.8117398848317,281.23856913976147,178.80446081146198,73.30683554778506,125.79236699270145,145.83188325256742,212.4935171267869,198.97857079228243
3.3033033033033035,242.2167921162072,291.0953290666304,178.67850947695516,73.90724988381695,125.54385442872504,145.55650388320734,212.62560970915595,199.0865355724003
3.3366700033366703,251.87484353956825,297.5837073572077,178.43514181865203,74.42343098438705,125.22434062825056,145.2450324975301,212.79868139802008,199.2870363348477
3.3700367033700367,260.08843137607346,301.0459757311909,178.8205541631012,74.75095566757759,124.88650756667296,144.90921775226155,212.9749891631342,199.5667624965296
3.4034034034034035,266.4003671491663,301.25646084295573,180.02875100872066,74.82200683179978,124.53624115519726,144.51922204701754,213.16774958328097,199.94297659178545
3.4367701034367704,270.7824230315183,298.5233674607535,182.4845840145145,74.2899220026628,124.04486736817898,144.13938199916925,213.36873193506992,200.4541498923864
3.4701368034701368,274.66349774024724,292.18777486827054,184.6054452310042,73.50486585182672,123.5394632748474,143.689401604693,213.59863001156532,201.07373234992136
3.503503503503504,276.9458220616088,282.8678128857591,186.01042130237252,73.25818360469869,123.07914931860468,143.16079381786804,213.8701944581572,201.7855805398284
3.5368702035368704,277.0406283620143,269.98593180092536,188.63626164971103,72.61937182530977,122.63109601374184,142.57898702278678,214.15170550420908,202.5594507382124
3.5702369035702373,274.8028856046704,253.80966214522985,192.0818712637262,70.43821249142428,122.03280163821483,141.85461174467395,214.4336051319144,203.3896696172089
3.603603603603604,270.2851642022634,234.3112594698904,192.7108489259113,68.19258595904336,121.44538476892274,141.06628377919856,214.74081284279043,204.21537486064148
3.6369703036369705,263.2947614281661,211.5259449158287,199.39531607273,65.75406722400264,120.96310392856682,140.27130175043325,215.08200463134403,205.0733750105265
3.670337003670337,254.1283527002497,196.09504501126696,204.10479535313848,63.49607606741666,120.56147934939708,139.4557450213408,215.41885521812628,205.9814190076594
3.703703703703704,255.35020579400083,179.53761155027988,197.719127025739,60.07245909616245,120.27261092705956,138.7322231773594,215.6581321689848,206.8763261739612
3.737070403737071,256.47121150952466,162.57833812898528,191.5285806295566,57.11619969407545,120.05058768796536,138.03886723426132,215.8446984972825,207.80489729503708
3.770437103770437,257.9589247072667,145.52074390768388,189.0221791410703,54.08366044341695,119.82095072879278,137.3504080589416,216.0197489711862,208.7790901339666
3.803803803803804,258.72014368572883,128.52062166560276,186.6269872990834,51.77114253679792,119.6227438927634,136.63546867091537,216.188192208026,209.7831927511156
3.8371705038371706,259.0287931167835,111.66151547249048,184.6356442344222,49.92588474240413,119.44844893491349,135.9197168502082,216.39066694544263,210.80211502993748
3.8705372038705375,259.1288837273943,95.30551430100202,182.73308728791577,48.82084263468482,119.36599993365344,135.17765880192576,216.58250872150032,211.79980569224253
3.903903903903904,259.0911550300648,79.44714711902554,181.7451965655281,47.92913456848528,119.16476316207805,134.39535212727816,216.7371249385373,212.87732960665468
3.937270603937271,258.79720161267335,64.47588043398105,180.69259246236496,48.13756003453982,119.1540983275766,133.5830827371439,216.8433313797211,213.89580217377303
