Time,Left Shoulder Angle,Right Shoulder Angle,Left Elbow Angle,Right Elbow Angle,Left Hip Angle,Right Hip Angle,Left Knee Angle,Right Knee Angle
0.0,27.90104365443621,30.655719918966867,166.4736701747674,168.27652523351463,133.5689964348405,134.4016688229405,205.13434938369,211.91244825742623
0.0333667000333667,28.67759203020192,31.862765927727537,167.7765905638112,169.88387508464217,133.2548912280168,134.0220046390751,205.69896893528144,212.27839889693465
0.0667334000667334,29.34501009122965,32.92153980827451,168.89294872892071,171.2844626811227,132.97146301205308,133.68241020425387,206.21562426710912,212.6107296940005
0.1001001001001001,29.909257173613728,33.83891569705797,169.834521443743,172.48813586983883,132.7177278996413,133.3814706171737,206.6865472562613,212.91095272904505
0.1334668001334668,30.376292613448484,34.621767730528106,170.61308548192514,173.50474249767316,132.49270200347328,133.1177709765315,207.11396977982645,213.1805800824896
0.1668335001668335,30.75207574682825,35.276970045135094,171.24041761711416,174.34413041150825,132.29540143624095,132.88989638102413,207.5001237148928,213.4211238347553
0.2002002002002002,31.042565909847355,35.81139677732913,171.7282946229572,175.01614745822675,132.12484231063615,132.6964319293485,207.84724093854865,213.63409606626345
0.2335669002335669,31.25372243860013,36.23192206356039,172.08849327310128,175.5306414847112,131.9800407393508,132.53596272020155,208.1575533278824,213.8210088574354
0.2669336002669336,31.39150466918091,36.54542004027906,172.3327903411935,175.89746033784422,131.86001283507682,132.40707385228015,208.43329275998235,213.98337428869235
0.3003003003003003,31.46187193768402,36.75876484393533,172.47296260088092,176.1264518645084,131.763774710506,132.3083504242812,208.6766911119369,214.1227044404556
0.333667000333667,31.4707835802038,36.87883061097938,172.52078682581055,176.2274639115863,131.69034247833028,132.2383775349016,208.8899802608344,214.2405113931464
0.3670337003670337,31.42419893283456,36.912491477861394,172.48803978962962,176.2103443259606,131.63873225124155,132.19574028283824,209.075392083763,214.338307227186
0.4004004004004004,31.328077331670645,36.86662158103156,172.38649826598504,176.0849409545138,131.6079601419317,132.17902376678805,209.23515845781128,214.4176040229956
0.4337671004337671,31.18837811280639,36.74809505694006,172.22793902852396,175.86110164412855,131.59704226309256,132.18681308544788,209.37151126006745,214.47991386099665
0.4671338004671338,31.01106061233612,36.56378604203708,172.02413885089345,175.54867424168742,131.60499472741608,132.21769333751467,209.4866823676199,214.5267488216102
0.5005005005005005,30.80208416635416,36.3205686727728,171.78687450674056,175.157506594073,131.63083364759413,132.2702496216853,209.58290365755693,214.55962098525765
0.5338672005338673,30.567408110954847,36.02531708559742,171.52792276971238,174.69744654816787,131.67357513631856,132.34306703665672,209.6624070069669,214.58004243236024
0.5672339005672339,30.31299178223275,35.68490541696138,171.2590604134573,174.1783419508561,131.73223530628223,132.4347306811267,209.72742429294,214.58952524334103
0.6006006006006006,30.050649161630822,35.36167895227183,171.02862627677456,173.73819312529696,131.86232987121474,132.6185472246683,209.7787017587877,214.56405929812485
0.6339673006339673,29.777245116350898,34.96323958585634,170.8442983339355,173.15233568125765,131.98270495190812,132.79894112758026,209.83397132802665,214.55103046574763
0.6673340006673341,29.521871989807675,34.553838483141526,170.7433730462983,172.54888600080292,132.09655733756924,132.9651681028061,209.8918189542839,214.5500342286488
0.7007007007007008,29.2637457254568,34.14689926239894,170.6512595154032,171.95595157685474,132.19023381481875,133.11741719025272,209.96406464426656,214.5600314780617
0.7340674007340674,29.00633489075661,33.71586134539276,170.5756410844158,171.3207788770217,132.28709634692387,133.27099314437672,210.0249599847014,214.56273506141167
0.7674341007674341,28.79616650257825,33.319160027420416,170.60522770738035,170.76413347823382,132.39035025573529,133.4206324117474,210.07356126388112,214.5613570669588
0.8008008008008008,28.627993224629755,32.925130052822006,170.72695078142542,170.21927201755355,132.51492481141756,133.56430774051455,210.1112956072405,214.5672420234177
0.8341675008341676,28.492101653446205,32.56215551819769,170.9121870396951,169.67648950033026,132.6888729477408,133.71878190000902,210.1269184819412,214.5662381188051
0.8675342008675342,28.39571822814332,32.16915590214476,171.17074329345516,169.0796837556163,132.85300468404466,133.86968628157754,210.1727785096833,214.55686246618149
0.9009009009009008,28.3831742582058,31.750202221715224,171.59777324519058,168.46602691722742,133.0159412098488,133.9970629998921,210.2103576705789,214.57427297559784
0.9342676009342676,28.433416987959795,31.29907111963105,172.15239421710197,167.81741203905116,133.17036756946789,134.10358626521412,210.25027979876344,214.59213240215803
0.9676343009676344,28.521217032516777,30.8232223358168,172.71926710218764,167.15847637664243,133.30430012545,134.1659952215293,210.2871516069468,214.6203912176636
1.001001001001001,28.61144001173476,30.316937624861865,173.2874114695071,166.46919207102084,133.4425867611158,134.22937160150724,210.3489971901545,214.628357894646
1.0343677010343677,28.72203807140906,29.767538045741183,173.90391264709206,165.72506222870427,133.56632549199955,134.19902964746444,210.436227611406,214.7349591889088
1.0677344010677343,28.82579104092705,29.224146439405544,174.51764955062816,165.05271095852828,133.65032680130793,134.1716888997358,210.57802271430663,214.85816755470407
1.1011011011011012,28.936842382905564,28.84806563702064,174.9352134356783,164.515188190182,133.74031352978272,134.19477460727026,210.74038094041583,214.90475410513324
1.1344678011344678,29.043578784616017,28.531130368352827,175.35839723417376,164.09368404073257,133.8029524731186,134.2505187440709,210.9195944019516,214.8924349325969
1.1678345011678346,29.191742629557886,28.324002805814946,175.80856479705395,163.90506214632856,133.74199710636623,134.3017601152385,211.1598464601773,214.8508642714817
1.2012012012012012,29.324841573757592,27.98603064925901,176.26246301983022,163.55968245168947,133.657226319967,134.40245807620195,211.3839249095249,214.7444092887021
1.234567901234568,29.416216036868047,27.571800975835085,176.66717026278718,163.10235662234732,133.5340529482839,134.5243693145663,211.599395033525,214.6120490850618
1.267934601267935,29.49359312722733,27.05981670072012,177.1018408479025,162.5762034849756,133.38839502295735,134.67550365517133,211.8165123443966,214.434934588744
1.3013013013013013,29.59002971393745,26.537142708482847,177.61458033481102,161.99382491253047,133.24768179580985,134.84251527972054,211.99424593369508,214.24756037268256
1.334668001334668,29.73663426199177,25.976675579476503,178.2920248058793,161.4025707397122,133.15296384353323,135.02405509822165,212.11786737684216,214.0619126406459
1.3680347013680347,29.85364853614689,25.424475218231613,178.82803596335685,160.7455886015386,133.13550911280285,135.22105733552482,212.1336855421989,213.8358093329546
1.4014014014014016,29.95185934161802,24.837468136641903,179.46202776130974,160.09323369496985,133.18037541337338,135.4384694452572,212.08042068596663,213.5710333965732
1.4347681014347682,30.060875104186305,24.238924501355367,180.1459432324958,159.58199161408027,133.28810530075563,135.68339909093004,211.9708787642511,213.27137543991688
1.4681348014681348,30.12929205373157,23.57197273046767,180.92842784233548,159.07786295206125,133.41428085459887,135.93522579189957,211.82109066534983,212.94569764184132
1.5015015015015016,30.1651506797423,22.886727604740635,181.8098316481833,158.72315199208288,133.49810997597933,136.23889762224815,211.77827290403732,212.52619344849245
1.5348682015348682,30.141524422106976,22.08289533573141,182.74350925453783,158.30797412883868,133.5680953071146,136.6184692613698,211.7362633949548,212.0435778986844
1.5682349015682349,30.281387837392245,21.240930851589376,183.84410433861348,157.92913885296338,133.7634257804518,137.0004783694925,211.396610809392,211.56961721632524
1.6016016016016017,30.30880098367541,20.209309396734948,184.9612064793435,157.28823406956718,134.09561179359034,137.51732862200095,210.85833244683656,211.0652806612356
1.6349683016349683,30.499235856090344,18.99857144055636,186.3908134687884,156.58161822221732,134.52888651550393,138.0686792149469,210.21052424162608,210.56979905444808
1.6683350016683351,30.545580137437145,17.755182946053733,187.7183137521079,155.95729241361542,134.98423809455068,138.65106271041546,209.5106668983142,210.04951165412547
1.7017017017017018,30.392224784624045,16.445098739051183,188.93340172512544,155.28392426890753,135.52167485529756,139.19022686575073,208.6871943514973,209.669108098555
1.7350684017350684,29.944999431067814,15.109724951278077,190.06810540280665,154.51025742063234,136.05985612093298,139.73917760452042,207.86134959041496,209.2805124091221
1.7684351017684352,29.317755429598787,13.745691879547667,190.8873201987764,153.72056475561635,136.6119570346723,140.33263513243796,207.0233763440469,208.8118232385748
1.8018018018018016,28.47632785993067,12.472303172847486,191.5142003502678,152.99599822842006,137.13964477749877,140.97641028294493,206.2698032623321,208.27319869087933
1.8351685018351689,27.496730737749743,11.305628312123805,191.69386873270668,152.21662169883302,137.62091440909217,141.62661323460196,205.6149174805125,207.6874956360353
1.8685352018685355,26.38895240701397,10.184644370256596,191.84664604326548,151.38203339866587,138.07248176692897,142.2908826892019,205.05611732421755,207.06718914426992
1.901901901901902,25.11589360456708,9.068516068267638,191.7809973369996,150.63452566025026,138.44875961089934,142.95428739075123,204.6246793992364,206.4271890689009
1.9352686019352687,23.78528096211945,7.980293184346849,191.60238507821964,149.79007464608935,138.74430546778314,143.61302896950625,204.31625820813773,205.7833851641577
1.968635301968636,22.25536136004272,6.811390260511566,191.39681060135163,148.76633753715882,138.94929727565426,144.24655009518682,204.12696655785265,205.1573334193579
2.002002002002002,20.95576692752011,5.704931042243651,190.7868543068079,147.7952065914707,138.9987686709031,144.81797390899266,204.06257505581044,204.58408353221964
2.035368702035369,19.79789868444037,4.872643913170942,189.71298725580664,146.90876287196627,138.94644085224462,145.33495007306342,204.10290149658965,204.0588105256381
2.0687354020687354,18.67602500670523,4.229685206825048,188.5302141982896,146.08700120213288,138.81079888260243,145.8250843294464,204.27461591368984,203.52586744661625
2.1021021021021022,17.296823925169573,4.111607313375244,187.3325238095466,148.06124591385827,138.60039503427132,146.30097699699078,204.54733852580864,202.9903662571433
2.135468802135469,15.74654901322917,4.019717671422692,186.60058157811284,149.4861826462417,138.33512031045032,146.78016686766213,204.9462630379987,202.4487223299015
2.1688355021688355,14.090816296385828,4.006617678938657,185.92083111922483,150.20555007568765,138.02793364999116,147.22946696819997,205.42885010814035,201.941515060062
2.2022022022022023,12.346683636431742,4.006617678938657,185.63318030742587,150.4657506270337,137.6728355020232,147.75759507303448,205.99883307308065,201.3263754085252
2.235568902235569,10.37820248829076,4.006617678938657,185.4931883418312,150.6023984682191,137.27943811649632,148.3066595396393,206.59678779197708,200.6513535903414
2.2689356022689355,8.713274731488426,4.006617678938657,185.6720505521638,150.17465215860716,136.8173763212006,148.80840992931,207.2718490869976,200.0166786165744
2.3023023023023024,7.364586512967959,4.006617678938657,187.9081054544897,149.1858371459069,136.3331477776499,149.26421379780484,207.97635356306404,199.4340288654913
2.335669002335669,6.362902024427258,4.006617678938657,189.6723542255544,149.07378391587173,135.93072478338573,149.69939405598265,208.69925560161832,198.88732343990537
2.369035702369036,5.529547315618647,4.006617678938657,190.90191128379905,146.10000556017405,135.53576353360302,150.0655050187227,209.4842345658355,198.4129250912437
2.4024024024024024,5.148692986049751,4.006617678938657,191.77868533247425,142.69443185221678,135.16709606914733,150.3623939985763,210.31313101314623,197.99408941824825
2.4357691024357693,5.148692986049751,4.006617678938657,192.6392353576421,138.5439857360894,134.78863250357807,150.6212339981597,211.1618130983812,197.6457000282602
2.469135802469136,5.148692986049751,4.006617678938657,192.82744863152053,134.24721924090565,134.4463540472842,150.81998238911513,212.03784415880645,197.33991321981543
2.5025025025025025,5.148692986049751,4.006617678938657,192.70651979265992,130.79520247819588,134.13791426001896,150.94757270676553,212.9499715388571,197.0497152408025
2.5358692025358693,5.148692986049751,4.006617678938657,192.44942325571435,127.17046150669998,133.82133123246456,151.01956151674898,213.92787468418484,196.8073149019561
2.569235902569236,5.148692986049751,4.006617678938657,192.09768611977225,122.74457439096813,133.50891283553372,151.0215374594433,214.94423411817624,196.60939977720648
2.6026026026026026,5.148692986049751,4.006617678938657,191.631784419069,117.48146741541883,133.19987983389413,150.98368225703672,215.94788372772817,196.4521919591807
2.6359693026359694,5.148692986049751,4.006617678938657,191.1859151329007,113.0114054310014,132.93578823089933,150.92360979511895,216.89773769068628,196.32576581185572
2.669336002669336,5.148692986049751,4.006617678938657,190.5228325009009,108.0274925791021,132.81059682353555,150.80316243077604,217.56637252874447,196.3069913302428
2.702702702702702,5.148692986049751,4.006617678938657,189.38205142483525,101.1170367953998,132.79791792016962,150.61303839915723,217.9494065464632,196.3919062275988
2.736069402736069,5.148692986049751,4.006617678938657,187.2622597206921,94.41155656232358,132.74038103349758,150.40681395955892,218.3944970167912,196.51353246262303
2.7694361027694363,5.148692986049751,4.006617678938657,185.1066786688244,88.29077403105134,132.73211519701485,150.1479284781976,218.8169702197393,196.71485552338297
2.802802802802803,5.148692986049751,4.006617678938657,182.50488806955107,82.48792456510233,132.7675290910262,149.887099979131,219.19210225219268,196.94648248641
2.836169502836169,5.148692986049751,4.006617678938657,179.77256440772388,76.82643560944992,132.85722771362126,149.60917612728718,219.51354272930263,197.24310911279787
2.8695362028695364,5.148692986049751,4.006617678938657,176.8455735261944,71.55037509424118,132.89191626380676,149.39367732987398,219.9033595947101,197.407794225471
2.902902902902903,5.148692986049751,4.006617678938657,173.72676732512812,66.66430259979043,132.91473614845995,149.19729052627233,220.31585006510804,197.5350531405802
2.9362696029362696,5.148692986049751,4.006617678938657,170.6177004447482,62.14973221661908,132.87942305457767,148.99599662408625,220.79013380489172,197.68546939918195
2.9696363029696364,5.148692986049751,4.006617678938657,167.4778850264695,58.13166980368749,132.80235679751624,148.76809837484055,221.2703543671622,197.8660370992844
3.003003003003004,5.148692986049751,4.006617678938657,164.60124091657093,54.77239747554877,132.67778458996105,148.54455619033214,221.7543759156908,198.07150459803708
3.0363697030363697,5.148692986049751,4.006617678938657,161.64234644924758,51.797853110049225,132.50112698489903,148.32984929057304,222.2348203486502,198.28405880044025
3.0697364030697365,5.148692986049751,4.006617678938657,158.8961418643416,49.55121771248196,132.3047358508909,148.12366384857384,222.6703050855889,198.50670741339547
3.103103103103104,5.148692986049751,4.006617678938657,156.3158045727895,48.14307705568858,132.0979328484176,147.93246149812288,223.02438323251783,198.74290403103208
3.1364698031364697,5.148692986049751,4.006617678938657,153.78660033774202,47.97815000730166,131.90443397545707,147.78060306779443,223.28878513582464,198.9653993275488
3.169836503169837,5.148692986049751,4.006617678938657,151.83794452396907,48.97616491807018,131.7894059479634,147.70527174472292,223.4381907378262,199.0922037502864
3.2032032032032034,5.148692986049751,4.006617678938657,150.8390767035086,51.1443649764041,131.74486137067967,147.6882660568348,223.49327186974747,199.1729497966829
3.2365699032365702,5.148692986049751,4.006617678938657,150.58897673847082,54.61588773899636,131.73804006281364,147.7169724128822,223.4673999036536,199.2173573147921
3.2699366032699366,5.148692986049751,4.006617678938657,151.12205355939656,55.85367194452353,131.77092350936917,147.75036073628723,223.37999341009407,199.26184161138423
3.3033033033033035,5.148692986049751,4.006617678938657,152.00009351492815,57.34374361369788,131.83082227024235,147.77915243510378,223.21838948286327,199.31672942702028
3.3366700033366703,5.148692986049751,4.006617678938657,153.64707976347148,59.20739465950063,131.90000715846378,147.80998933654396,223.01459089676428,199.3971961585944
3.3700367033700367,5.575954590664962,4.006617678938657,155.6344353932428,61.32993136741133,131.98560526007495,147.84723614640137,222.76438158629068,199.51346580749745
3.4034034034034035,6.226133697168201,4.006617678938657,158.107716694969,63.16478901023988,132.10681499532464,147.87559268418678,222.52607065344665,199.66885277511432
3.4367701034367704,7.214945211342826,4.006617678938657,161.13090113430948,65.07763491786544,132.22268010102843,147.94927875261823,222.2719411438813,199.7086416561501
3.4701368034701368,8.50565122127636,4.006617678938657,162.2159359917511,66.89640880335992,132.3102130850598,148.01022748402403,222.0795567503025,199.7727257852717
3.503503503503504,10.057245393910888,4.006617678938657,163.4187540369464,63.77759303760335,132.25404817901264,148.5004501517311,221.876471688319,199.84166977390987
3.5368702035368704,11.854526156811158,4.006617678938657,164.5886118589567,62.84984126434406,132.19531708611203,148.8403006792848,221.75591423139213,199.9917680600361
3.5702369035702373,14.162090108013333,4.006617678938657,166.5371153718293,64.3983676695665,132.21096295444954,148.98001029459948,221.7240657358977,200.1448943761524
3.603603603603604,16.772522450305082,4.006617678938657,168.1035432074761,67.08993193897535,132.254299529339,148.96838454621462,221.7729209077058,200.3716842020169
3.6369703036369705,19.18536530859769,4.006617678938657,168.9068885407822,71.4899052047623,132.25127945506037,148.98246249672502,221.88859562956367,200.6208507157472
3.670337003670337,12.936573403877702,4.006617678938657,169.48608513581124,75.30864995085679,132.28912081838178,148.8598101519344,222.01837996323536,200.9663191266453
3.703703703703704,9.834057454898126,4.006617678938657,169.80437945898544,78.67759251245296,132.45631205697308,148.58986028283135,222.1839123108487,201.26790643376643
3.737070403737071,9.001935682424609,4.006617678938657,169.17696455885016,79.40870618648971,132.65418940161203,148.13861359373135,222.36228752297512,201.6608624204424
3.770437103770437,10.449217154322596,4.006617678938657,169.74360994279598,76.35697788042827,133.0621268571261,147.72487845000367,222.49016440192767,202.2718889517864
3.803803803803804,14.046295512673057,4.006617678938657,169.77522833823772,72.62819174504126,133.4247850508592,147.2267702292551,222.6167438192888,203.03522372305943
3.8371705038371706,19.7594294684354,4.006617678938657,169.32325891646218,74.19347682351018,133.66087891412468,146.51867641431193,222.7656267992481,203.91518916274967
3.8705372038705375,27.1917531861674,4.006617678938657,167.72818402576888,76.85517502042977,133.77539303055983,145.6988844064899,223.03314163557977,204.91216832023423
3.903903903903904,36.24627737071132,4.006617678938657,170.01551331334943,77.53959225681625,133.87449107220473,144.37845294257352,223.4952452566665,206.01705514910017
3.937270603937271,46.64429801084757,4.006617678938657,170.82375327110375,77.6781067341686,133.95592309741212,143.02486825625869,223.9608915710648,207.21274786846115
