Time,Left Shoulder Angle,Right Shoulder Angle,Left Elbow Angle,Right Elbow Angle,Left Hip Angle,Right Hip Angle,Left Knee Angle,Right Knee Angle
0.0,20.572544012715444,32.60072837470335,154.8106178651279,164.4520122754469,135.3483107718735,134.01752866720656,206.3851837909185,209.31930952965644
0.0333667000333667,21.509359787852897,32.26810770261588,155.20618986654094,164.0872149381059,135.21170705364435,134.3835732810238,206.7237680439776,209.04125026746465
0.0667334000667334,22.28553080537664,31.965572384208247,155.48791394410551,163.7724498981509,135.0638995574571,134.71547843351598,207.03244540594704,208.8006300104272
0.1001001001001001,22.912421850266515,31.69235194579557,155.66669143209188,163.50531188237642,134.90756580975847,135.01487989751178,207.31126424691297,208.59506326271452
0.1334668001334668,23.401397707502355,31.44767591369296,155.75342366477025,163.2833956175769,134.74538333699522,135.28341344583984,207.56027293696152,208.42216452849755
0.1668335001668335,23.763823162064,31.230773814215528,155.7590119764109,163.10429583054682,134.5800296656141,135.5227148513288,207.7795198461788,208.2795483119468
0.2002002002002002,24.011062998931283,31.0408751736784,155.69435770128405,162.96560724808057,134.41418232206186,135.7344198868073,207.9690533446508,208.1648291172328
0.2335669002335669,24.154482003084045,30.877209518396675,155.5703621736599,162.8649245969727,134.2505188327853,135.92016432510397,208.1289218024636,208.0756214485264
0.2669336002669336,24.20544495950212,30.73900637468548,155.39792672780868,162.79984260401767,134.09171672423113,136.08158393904742,208.25917358970344,208.00953980999807
0.3003003003003003,24.175316653165343,30.625495268859925,155.1879526980007,162.76795599600987,133.94045352284613,136.22031450146633,208.35985707645625,207.96419870581852
0.333667000333667,24.07546186905356,30.53590572723512,154.95134141850608,162.76685949974382,133.79940675507706,136.33799178518933,208.43102063280824,207.9372126401585
0.3670337003670337,23.9172453921466,30.46946727612619,154.69899422359515,162.79414784201396,133.67125394737064,136.43625156304506,208.4727126288454,207.9261961171885
0.4004004004004004,23.71203200742429,30.42540944184824,154.44181244753807,162.84741574961478,133.55867262617366,136.51672960786215,208.48498143465392,207.92876364107929
0.4337671004337671,23.471186499866487,30.402961750716383,154.19069742460513,162.92425794934073,133.46434031793285,136.58106169246923,208.46787542031976,207.94252971600145
0.4671338004671338,23.20607365445301,30.40135372904574,153.95655048906653,163.02226916798625,133.390934549095,136.63088358969495,208.4214429559292,207.9651088461256
0.5005005005005005,22.928058256163723,30.419814903151423,153.7502729751925,163.13904413234582,133.34113284610683,136.66783107236796,208.3457324115681,207.9941155356224
0.5338672005338673,22.648505089978432,30.45757479934855,153.5827662172533,163.2721775692139,133.3176127354151,136.69353991331687,208.2407921573228,208.02716428866248
0.5672339005672339,22.378778940877165,30.513862943952454,153.46493154952034,163.41926420538633,133.3230517434676,136.7096458853714,208.1066705632809,208.0618696094182
0.6006006006006006,22.15089618271623,30.621068123354952,153.6053479869696,163.67481919516408,133.48361321266944,136.68746331617766,207.87879614042365,208.07949761686083
0.6339673006339673,22.06974057940143,30.68656620873199,153.71015649703213,163.78918532734156,133.67358005097591,136.68133545325674,207.6364558307038,208.08246778712152
0.6673340006673341,22.13903853065784,30.74836777793668,154.0608473307911,163.84211861948702,133.89034237399872,136.68891191852344,207.3580485496189,208.07780256183747
0.7007007007007008,22.28013826615268,30.883277081657425,154.53389503597137,164.00810375252345,134.13514454548226,136.70142190120993,207.05659878862247,208.06777174143363
0.7340674007340674,22.51036450260263,31.051160478139533,155.18326449286093,164.1977867861882,134.40212479468224,136.6969145328384,206.74519356615232,208.074409782762
0.7674341007674341,22.79194772849851,31.28128724235504,155.91981981155686,164.4787636370871,134.67867584090834,136.6806149326123,206.43453076151005,208.06781048230013
0.8008008008008008,22.988612927438243,31.48938117925527,156.45751413147383,164.72258294652025,134.94968085730576,136.67879635493784,206.1337131951778,208.0262975393942
0.8341675008341676,23.17742263723854,31.69735440798189,156.97798026525712,164.94816441992077,135.243261373716,136.68484504682462,205.8304754446145,207.95942654959853
0.8675342008675342,23.401820124447795,31.905826404385817,157.569617936549,165.12926846677917,135.53057191590975,136.67981124287687,205.51562842029983,207.8790524384281
0.9009009009009008,23.676647369522147,32.13421865850947,158.26159602388475,165.31846827962943,135.84556310435235,136.68744917173458,205.17840227459848,207.77430402417195
0.9342676009342676,24.04666888496728,32.37379623715971,159.1015388332543,165.49837327481706,136.15594868777524,136.67944327870907,204.83065029056448,207.6577875063154
0.9676343009676344,24.4699033825854,32.621668342071175,160.0216044355817,165.68195822622897,136.4852195010666,136.67502106553195,204.4604566944349,207.5329330851685
1.001001001001001,24.937441339594603,32.88924173559763,161.02807880006714,165.8628448642525,136.8243248001498,136.67943377130874,204.07239875229268,207.3994978726443
1.0343677010343677,25.43934931283908,33.199004052540054,162.09526903494958,166.0663933083678,137.15267536592106,136.70231789456568,203.6853732375359,207.26665948956563
1.0677344010677343,25.98245836843011,33.53601221573397,163.27363189754396,166.2825382838701,137.50693501046183,136.74093186218195,203.2985399495868,207.14850933536607
1.1011011011011012,26.577900045948503,33.90251161526828,164.5594313957174,166.53224751343336,137.842486497571,136.821733431678,202.91345239110817,207.042672160217
1.1344678011344678,27.223162243669066,34.24540568924392,165.95547282295897,166.74459426850942,138.16776541142633,136.92435037859397,202.5527758886064,206.9463802070915
1.1678345011678346,27.93685130422013,34.577204730523455,167.41053993208823,166.9425539380859,138.408497185414,137.03404603130048,202.2410787035909,206.88662282369256
1.2012012012012012,28.72062758987849,34.881121539067955,168.9235205863742,167.11199819419068,138.59304078728923,137.15582021365444,201.96774246707736,206.85820473896908
1.234567901234568,29.56927956105186,35.14002501893174,170.4622656942735,167.26488611125674,138.72580861574843,137.31794547698522,201.71341291016947,206.81573375461176
1.267934601267935,30.37784294031361,35.31430022764187,171.89406420916524,167.30269403881204,138.75786465700503,137.5080689262962,201.52556191860063,206.77285351378617
1.3013013013013013,31.149386237801423,35.38178303730689,173.25352408987183,167.1987689499453,138.71334231342937,137.72700134837922,201.39602009426204,206.7174546487963
1.334668001334668,31.688951464199945,35.39447862961107,174.69228686115784,166.9991659391223,138.6101075481308,137.96060942329063,201.3131610394489,206.6379650036972
1.3680347013680347,32.17317681443073,35.30475078989684,176.00282696211798,166.5944864924862,138.50182198923358,138.1945320199122,201.19844470138088,206.5314183898264
1.4014014014014016,32.64695330986353,35.1485613023268,177.23144233109795,166.1557108981905,138.33010681794647,138.4584539508705,201.11775061201533,206.41456101700427
1.4347681014347682,33.05676625124517,34.95921232029409,178.23031997055202,165.74002162766396,138.10922190195018,138.76190484489285,201.04427347574952,206.2993739740421
1.4681348014681348,33.431385554144484,34.76663923742717,179.13369137127376,165.273216837696,137.89911617830126,139.11688516292642,200.91822226416235,206.1855935363108
1.5015015015015016,33.860007495906345,34.52410842780314,180.08133566623798,164.78534275270508,137.61064654122345,139.49324168691157,200.8526313543947,206.1011894798092
1.5348682015348682,34.2236095372202,34.197755518284275,180.87605204360617,164.18086552591723,137.31636059147357,139.89159387743325,200.7933076926604,206.0323360771616
1.5682349015682349,34.51402970800865,33.830436580407934,181.55379505495367,163.54263985551492,136.98157123113214,140.29333541986665,200.7919449818008,205.9941909375606
1.6016016016016017,34.78165391005173,33.434856295581376,182.2092661353012,162.99152186598374,136.71237871700205,140.7509995506179,200.8039634692532,205.9148884671385
1.6349683016349683,35.00332272070303,32.96581921017268,182.80526648634404,162.4430429861305,136.47885222067865,141.23025016219543,200.8399880206105,205.81331485099145
1.6683350016683351,35.17466945654691,32.41208887896025,183.02555979189736,161.85155499482806,136.2001725659292,141.7311294644132,200.9227275335336,205.66428725197915
1.7017017017017018,35.253680189378706,31.732181262570887,182.9303902123453,161.15301570906135,135.90934740194487,142.29156391630087,201.0579782629948,205.4534830619432
1.7350684017350684,35.43226238177487,30.982655783802688,183.00936855811307,160.37221904063802,135.60512093748417,142.86964112033775,201.2374723408361,205.20158750421595
1.7684351017684352,35.60986818933532,30.23895876757281,183.10927365568813,159.54934131873475,135.29305659127974,143.4811262528211,201.4642270862528,204.9104994033996
1.8018018018018016,35.790065556273774,29.443524225499417,183.08673689422804,158.59013485559842,134.96184487809202,144.0998234194195,201.72209556491768,204.60000432743576
1.8351685018351689,35.96455867270172,28.619757197182192,183.1825342257278,157.55658234379618,134.60562938831313,144.70279414680306,202.030784926102,204.2739309089364
1.8685352018685355,36.194684490957705,27.711669574712573,183.6179548944676,156.215570079106,134.2155123191053,145.2754174611475,202.38008420836485,203.93499231249592
1.901901901901902,36.19088423715062,26.750488772167927,183.6326497096508,154.73151395428056,133.79365848204552,145.8280982489236,202.76602770848376,203.55658913393825
1.9352686019352687,35.90142756551352,25.78704176019412,183.1293715146788,153.136046860903,133.3550329268599,146.35579662929814,203.1691148737619,203.15939928034007
1.968635301968636,35.38012313556468,24.72362512888181,183.33298513060063,151.2374656709271,132.92729817617098,146.85148599408967,203.56591030314232,202.76858963086
2.002002002002002,34.86038965261398,23.619326272978896,183.72106941437497,149.39640464176816,132.51095283917954,147.29767955873086,203.94265472985333,202.39658374668616
2.035368702035369,34.40945713642866,22.4819284704848,184.4776070549472,147.69589943924916,132.13460391708225,147.72651319403735,204.30586381272147,202.02939285219549
2.0687354020687354,33.92304091234952,21.297124120337635,185.87942553925927,146.3804662720414,131.77395677035008,148.11442375292145,204.6593402348447,201.6836203386792
2.1021021021021022,33.13392214056379,19.99464163381912,191.72054941956048,145.73436901174236,131.4423175632623,148.488579727523,204.98410121096268,201.35601140368212
2.135468802135469,32.670274641190936,18.72484576391852,193.69195595921832,144.77057621479534,131.1126713887106,148.8379646589942,205.3107158666783,201.05900243550025
2.1688355021688355,31.758954985209453,17.465098588191175,193.52061166450235,143.6350239946816,130.79928143368517,149.17908468006706,205.6342245199197,200.8037837427909
2.2022022022022023,30.716213207585948,16.103259209950757,197.40131926262688,142.10710159164984,130.51528122663137,149.49676515491916,205.94240206681675,200.5854487569788
2.235568902235569,29.17549650307796,14.869534963521888,200.2387369166116,140.61590020844278,130.26787004728465,149.7636144828532,206.2149393769738,200.4052287675096
2.2689356022689355,27.81271583735534,13.506373408940451,205.0448358456665,138.96416248305766,130.0309413790796,149.95725678691502,206.4895262218712,200.25804480967804
2.3023023023023024,26.28180585020896,12.1885751232289,205.81392655328,136.81648058031834,129.79810911164006,150.10690196151742,206.7406199646657,200.1450518846144
2.335669002335669,24.61986956940946,10.69572237128016,205.6701725149032,134.4912949755954,129.60825959198152,150.24418107131007,206.9404659608449,200.0286118257369
2.369035702369036,22.6672533326746,9.245536094512683,202.3858979656098,132.1191177694039,129.44277632073226,150.33959741815596,207.10756408655269,199.9174288359528
2.4024024024024024,20.838220790441373,7.734429924752516,201.3959290749132,129.69541148733836,129.2921825389719,150.37654889281805,207.25299619405337,199.8359462074632
2.4357691024357693,19.24356625906257,6.407939336250878,199.84136147468416,126.81407084125144,129.162456085269,150.34808388556556,207.3584022050049,199.77803866260672
2.469135802469136,17.59578930808547,5.278792413324984,197.4800712347855,123.75101269512014,129.070829177464,150.2656512559936,207.41491510346705,199.75672848738577
2.5025025025025025,7.381286813611532,4.368636833439799,194.6195027929958,120.5710096588383,128.99775214906995,150.14123708580203,207.405374534524,199.77921778601083
2.5358692025358693,9.198788835039975,3.508452561474497,192.20877056161004,118.23014610778704,128.9170916423717,150.02899739200595,207.43038547242764,199.8490996538657
2.569235902569236,11.199421695374893,2.681095701681227,189.7856375953548,116.06289561482,128.72816440184403,149.9127298207911,207.42714001830123,199.94881231024016
2.6026026026026026,13.580574777991826,2.681095701681227,187.54856611266217,112.052584784947,128.5589059382046,149.8763494701349,207.41117580539785,200.05906028367176
2.6359693026359694,16.237627793470807,2.681095701681227,184.45812046880283,107.9556723716086,128.4395455528452,149.81260349737815,207.43672159538824,200.1714166537608
2.669336002669336,19.10738205263298,2.681095701681227,181.0558308819172,103.55134336890865,128.47855312847437,149.73637206063043,207.3875485434752,200.261993623602
2.702702702702702,22.16139631596283,2.681095701681227,177.16216526635176,99.37391507615928,128.648725942733,149.61439964065866,207.3327145808456,200.32596580323624
2.736069402736069,25.32976226818836,1.8807485923891585,172.7810774788767,95.0574330560278,128.97325722131714,149.511069611941,207.23741886296227,200.33290109803687
2.7694361027694363,28.67018790156084,1.4963549318135825,168.6685955988642,90.44375495634156,129.35683735989934,149.40855650141586,207.1511995924571,200.3057677548944
2.802802802802803,32.20073294694733,1.4418832016578116,163.3884141071006,85.69030445335174,129.79915226323843,149.39502502390135,207.0512259164637,200.2161379478165
2.836169502836169,27.175646252149544,1.794792013278731,157.29593822602,80.81336560742196,130.38636175499894,149.4630170663141,206.9395578415724,200.09082524533136
2.8695362028695364,25.35788952619315,2.520023066830285,151.0516384014456,75.8495466232399,131.0262367761997,149.5162230872571,206.8258651102961,199.976932221868
2.902902902902903,25.90363054069116,2.520023066830285,145.41163363504086,70.8031002305222,131.66925897724303,149.58157994763567,206.7244268487496,199.86851878379537
2.9362696029362696,28.765919553978712,2.520023066830285,140.1247044947077,65.80263671555308,132.28147467946172,149.62670025382124,206.6244630742277,199.77057680339703
2.9696363029696364,43.72501412999178,2.520023066830285,139.15598501456054,60.93011111996592,132.81258316316303,149.6380239448682,206.53120550142253,199.70045618500345
3.003003003003004,57.56775934889859,2.520023066830285,136.69378954347636,56.20307269007369,133.31037569043923,149.63515826462532,206.44214359079044,199.642587575295
3.0363697030363697,69.54595395559927,2.520023066830285,133.7477681621825,51.956713655090894,133.771461089788,149.6359308666321,206.3782267016474,199.5881527114684
3.0697364030697365,80.05958244857517,3.598571013146447,131.0901913493064,48.276582752534495,134.1792097902742,149.65405441471736,206.3374325651786,199.5345200660809
3.103103103103104,89.23717720145011,3.598571013146447,129.70319938572283,45.09253940603621,134.55679433162996,149.6847873946915,206.31038914802383,199.5019574129607
3.1364698031364697,97.39413186754516,3.598571013146447,128.66185174771636,42.81365873135297,134.90949424770332,149.72829241310149,206.2844832669068,199.47789381774268
3.169836503169837,93.568481043258,3.598571013146447,127.11314833400724,41.23015609733262,135.22317316748607,149.80365298471634,206.26532097633427,199.4519229128181
3.2032032032032034,92.512013675389,3.598571013146447,125.38723077621631,40.23791610076596,135.50084218998572,149.90281399215746,206.24223055224164,199.423846724306
3.2365699032365702,92.41430312485636,3.598571013146447,125.36727717905094,39.49239083599799,135.75950833934996,150.03122674463145,206.21712718125212,199.38606587511345
3.2699366032699366,93.71277902702926,3.598571013146447,120.84709655669634,38.36892143851773,135.99466805370614,150.18947114700876,206.20392534148925,199.3446679631735
3.3033033033033035,95.52326980222897,3.598571013146447,120.03372181841412,37.76003200893013,136.18279550927704,150.36453252302073,206.20678172259085,199.294739448076
3.3366700033366703,98.58813043304872,3.598571013146447,122.51035800817952,37.50408356185797,136.31375198420105,150.5375532553894,206.2209695526648,199.23921816450857
3.3700367033700367,102.7010823051518,3.598571013146447,121.33239780610154,37.86834333911066,136.40656435081078,150.70638389491722,206.2606714663754,199.1998297193315
3.4034034034034035,107.84490314235182,3.598571013146447,120.6887987135344,38.316501549945386,136.44333540719433,150.89602782732834,206.3179045939324,199.15775314502085
3.4367701034367704,113.1927141945728,3.598571013146447,116.8113895281822,38.91285568523596,136.41850531639707,151.08102619116673,206.3977935176433,199.1265724855343
3.4701368034701368,119.01120435828142,3.598571013146447,115.54528483407526,40.121802295477,136.3425791407007,151.25520227688628,206.49733657468468,199.11136248080493
3.503503503503504,125.19645412549671,3.598571013146447,114.77179676334204,41.65348575856974,136.20321643495436,151.40356257237755,206.6201114927056,199.1190396004588
3.5368702035368704,131.85504593976998,3.598571013146447,117.64259938192076,43.26638367008547,136.00377941445038,151.54668394027678,206.753157704688,199.14494007628616
3.5702369035702373,138.62431376733318,3.598571013146447,118.836556195873,44.7594249174339,135.7592859787934,151.69269451197243,206.88452742091715,199.18636600272475
3.603603603603604,145.2641853943862,3.598571013146447,120.63620622512728,46.57165516556612,135.4777027861591,151.8605445924331,207.0088048157148,199.2244917635152
3.6369703036369705,152.03038625737608,3.598571013146447,123.51098625171984,48.49235542091664,135.16701076487593,152.03598913419972,207.13057264108264,199.2542158917773
3.670337003670337,170.42386090040247,3.598571013146447,127.33182851068466,50.45206843850914,134.8451060817641,152.2235831960109,207.26787283321843,199.26941929267892
3.703703703703704,179.77211264509995,3.598571013146447,130.94991787657003,51.35427828659616,134.49654581700926,152.40349167327642,207.37960505263868,199.27348250169595
3.737070403737071,188.83471825687704,3.598571013146447,134.5164987992273,51.3031466032547,134.29818187495513,152.59593649261328,207.46585381914645,199.2491239194408
3.770437103770437,197.284103857386,3.598571013146447,137.43184254847296,52.47663848694007,134.16614981376992,152.66205770177916,207.5423668021345,199.21419266390748
3.803803803803804,204.9901080679169,3.598571013146447,140.65683240689702,53.56934085423627,134.08137715026126,152.69466287429069,207.60360346992704,199.1937149734572
3.8371705038371706,211.7808475964891,3.598571013146447,143.68176110879628,54.78924999512589,134.08962021948233,152.70448534007755,207.6215328663017,199.18183806316023
3.8705372038705375,217.53855673405712,3.598571013146447,146.722834920859,55.6306655097183,134.12065728566046,152.74047256681513,207.62878764337864,199.1783679416329
3.903903903903904,222.20341461184788,3.598571013146447,149.75873817400415,56.35292849214827,134.1363859523662,152.81126386128906,207.6486866939088,199.16304009198373
3.937270603937271,225.58814507455224,3.598571013146447,151.84511533512523,57.03076108067991,134.1229891513719,152.90714473420462,207.68483416013632,199.142496297368
