Time,Left Shoulder Angle,Right Shoulder Angle,Left Elbow Angle,Right Elbow Angle,Left Hip Angle,Right Hip Angle,Left Knee Angle,Right Knee Angle
0.0,6.7777929164384485,45.75302769846067,121.39084142582804,146.56998221711396,159.67737629786035,149.370289322248,197.2184817295567,197.4967981326276
0.0333667000333667,13.611193101091407,42.17100720227148,135.53097789376855,157.76349157879625,159.25808199284694,149.04794648732832,196.8653669848838,197.60720708092725
0.0667334000667334,19.428652219926747,39.0197198792922,147.0954528860072,166.33236683020485,158.77028343854678,148.83154594466043,196.605714293462,197.61750258493865
0.1001001001001001,24.294665574637285,36.28007564627141,156.22796561838027,172.44225019080437,158.21843095052722,148.71119747405754,196.43718749308772,197.53874503885945
0.1334668001334668,28.273728466915856,33.9329844199577,163.07221530672416,176.2587838800594,157.60697484435556,148.67701085533275,196.35745042155764,197.38199483688743
0.1668335001668335,31.430336198455265,31.959356117099624,167.77190116687518,177.94761011743464,156.94036543559915,148.7190958682992,196.36416691666807,197.1583123732204
0.2002002002002002,33.82898407094836,30.340100654445763,170.4707224146697,177.67437112239463,156.22305303982534,148.82756229277007,196.45500081621543,196.87875804205603
0.2335669002335669,35.534167386087944,29.05612794874469,171.31237826594403,175.604709114404,155.45948797260144,148.99251990855848,196.6276159579964,196.5543922375921
0.2669336002669336,36.61038144556686,28.08834791674498,170.44056793653456,171.90426631292735,154.6541205494948,149.20407849547755,196.8796761798072,196.19627535402643
0.3003003003003003,37.12212155107791,27.417670475195205,167.99899064227762,166.7386849374293,153.81140108607272,149.45234783334047,197.2088453194445,195.81546778555665
0.333667000333667,37.13388300431394,27.02500554084394,164.1313455990095,160.27360720737448,152.9357798979026,149.72743770196035,197.61278721470467,195.4230299263805
0.3670337003670337,36.71016110696775,26.89126303043976,158.98133202256668,152.6746753422275,152.0317073005517,150.01945788115037,198.08916570338425,195.03002217069584
0.4004004004004004,35.915451160732175,26.997352860731223,152.69264912878538,144.10753156145287,151.10363360958738,150.31851815072363,198.6356446232796,194.6475049127004
0.4337671004337671,34.814248467300054,27.32418494846693,145.408996133502,134.7378180845154,150.15600914057697,150.6147282904933,199.24988781218727,194.28653854659177
0.4671338004671338,33.471048328364176,27.85266921039544,137.27407225255283,124.73117713087952,149.19328420908784,150.89819808027252,199.92955910790383,193.95818346656787
0.5005005005005005,31.95034604561741,28.563715563265315,128.4315767017743,114.25325092000996,148.21990913068728,151.15903729987446,200.67232234822563,193.6735000668264
0.5338672005338673,30.31663692075255,29.438233923825145,119.02520869700272,103.46968167137128,147.24033422094263,151.3873557291122,201.47584137094915,193.44354874156508
0.5672339005672339,28.63441625546253,30.457134208823764,109.1986674540754,92.54611160442914,146.2590097954224,151.5732631478002,202.3377800138724,193.2793898849832
0.6006006006006006,28.56469711162217,31.854702825048843,96.1829752960688,81.63360807269108,145.32787353754688,152.03178023418369,203.3001999278808,193.1736946614696
0.6339673006339673,28.64090701477376,33.25015291146534,84.65949617101786,70.5912951870574,144.42569470337378,152.09154104967675,204.4874009820628,193.3976370609838
0.6673340006673341,29.2636841046847,34.71665242682108,74.77781916966876,60.43217159647492,143.3057232746677,151.62252174032608,205.8290296730552,194.26378447947985
0.7007007007007008,30.477228329134988,36.50884629629546,66.08848615968289,52.65176663102767,142.1372027560952,150.8112777307301,207.172782517795,195.6818198319313
0.7340674007340674,31.16884726910598,37.69870814121074,58.14434991193203,45.589887628918135,140.72617002131813,150.17918448533268,209.2792937878498,196.5506026429396
0.7674341007674341,31.24941457899977,39.27762135559183,50.88475990530081,39.53421396187221,139.30241473538152,149.54444726758845,211.1972835403358,197.45291080474547
0.8008008008008008,29.667548749798783,40.41940946714717,47.6698850853424,36.22900515773172,137.9350719864594,148.62203462182055,212.83522216853785,198.4185195711524
0.8341675008341676,28.1640917196272,39.93291995676597,44.13254423683321,31.237019793231244,136.89609507541653,147.5660107196967,213.92757578022844,199.23597159789625
0.8675342008675342,26.761676177570138,30.543751194981063,43.824050932996336,28.413081208023307,135.95943427793352,146.43021141243202,215.07049739387224,199.9300131314102
0.9009009009009008,25.637684175023747,26.913387879306256,42.58108830506181,25.482240484968816,135.45137312976473,145.3571673473335,215.55285669020668,200.37345312838136
0.9342676009342676,24.464114005073306,32.20051874923669,39.03238581052043,27.256400468719423,135.29315825846004,144.47761364445105,215.57801372326404,200.70124372185944
0.9676343009676344,23.51227733223366,36.66220975813373,37.19322064969078,29.94352414969612,135.46359746684803,143.88234228605756,215.24197672987333,200.8377160128024
1.001001001001001,23.329981390141043,40.38453885789704,37.3697982101162,33.26313857903064,135.8124885127657,143.35087215639226,214.6211263600732,200.970965240656
1.0343677010343677,23.53178213565284,43.49054010210736,38.79132413582667,37.87093158452771,136.27485704107278,142.811258054472,213.7493964999749,201.1786854105244
1.0677344010677343,24.498073160987307,47.24023244827983,41.85270579972658,43.77160279453491,136.83429243071092,142.22935414521874,212.67537178166728,201.3644144589169
1.1011011011011012,26.144382954592253,50.97512107213021,46.51334556058802,50.93602889600809,137.5055891616005,141.69591215760977,211.2495485830792,201.4148473662268
1.1344678011344678,28.31679614222408,54.2866649226816,52.1092862230937,59.1750629630099,138.27330285856607,141.3215750146668,209.3904745145952,201.23251353706308
1.1678345011678346,31.207900079006592,57.9222832808984,55.49990572417119,66.48495624112029,139.19666631854486,141.2082474486287,207.11926325246267,200.629458175028
1.2012012012012012,34.40307229416575,60.81970601121776,60.62711005701921,74.65834206390257,140.49357403716476,141.2463261439304,204.5434835663628,199.8356677722576
1.234567901234568,38.37997158694788,62.68842530371345,61.0173235300878,76.37764786182038,142.17973987401984,141.4259182457592,201.71529947938285,198.8625126082436
1.267934601267935,40.13885120061246,65.337233111115,63.1139743630839,82.56318440423043,144.21854894022988,141.82778776603138,198.2757613230393,197.53493260239395
1.3013013013013013,41.7943096702662,67.67304843258323,65.27503893909198,88.6685090428059,146.36052650800127,142.37514084631982,194.8170188956485,196.1218672981098
1.334668001334668,43.32496030391224,69.62375869313388,67.52234267381701,94.62713984858117,148.5772830287393,143.0683098139624,191.401508647382,194.64546435804056
1.3680347013680347,44.70941640955391,71.11725131778326,69.87771098296408,100.37259489259073,150.8404289538503,143.9076269962981,188.0916670284127,193.12787144483727
1.4014014014014016,45.92629129519459,72.08141373154756,72.36296928223832,105.83839224586922,153.12157473474076,144.8934247206659,184.949930488914,191.5912362211509
1.4347681014347682,46.954198268837615,72.44413335944307,74.99994298734492,110.9580499794512,155.39233082281703,146.02603531440482,182.03873547905908,190.0577063496325
1.4681348014681348,47.77175063848635,72.13329762648607,77.81045751398896,115.66508616437125,157.6243076694856,147.30579110485382,179.42051844902105,188.54942949293303
1.5015015015015016,48.35756171214415,71.07679395769281,80.81633827787562,119.89301887166394,159.78911572615286,148.73302441935195,177.15771584897306,187.0885533137036
1.5348682015348682,48.69024479781436,69.20250977807953,84.03941069471001,123.57536617236389,161.8583654442252,150.30806758523812,175.31276412908838,185.69722547459503
1.5682349015682349,48.748413203500334,66.4383325126625,87.50150018019728,126.6456461375056,163.803667275109,152.0312529298514,173.9480997395401,184.3975936382585
1.6016016016016017,48.51068023720544,62.71214958645796,91.22443215004256,129.03737683812375,165.59663167021077,153.90291278053076,173.12615913050143,183.21180546734504
1.6349683016349683,47.95565920693302,57.9518484244822,95.230032019951,130.68407634525283,167.20886908093684,155.92337946461518,172.90937875214553,182.16200862450552
1.6683350016683351,47.061963420686425,52.08531645175148,99.54012520562776,131.51926272992756,168.61198995869367,158.0929853094437,173.36019505464563,181.27035077239103
1.7017017017017018,45.80820618646902,45.040441093282055,104.17653712277792,131.4764540631823,169.77760475488762,160.41206264235524,174.5410444881748,180.55897957365252
1.7350684017350684,44.17300081228417,36.74510977409016,109.16109318710666,130.48916841605185,170.6773239209252,162.88094379068883,176.51436350290638,180.05004269094115
1.7684351017684352,42.13496060613521,27.12720991919208,114.51561881431913,128.49092385957067,171.28275790821274,165.49996108178348,179.3425885490134,179.76568778690776
1.8018018018018016,39.67269887602549,16.114628953604075,120.26193942012036,125.41523846477334,171.5655171681567,168.2694468429782,183.08815607666904,179.72806252420347
