Time,Left Shoulder Angle,Right Shoulder Angle,Left Elbow Angle,Right Elbow Angle,Left Hip Angle,Right Hip Angle,Left Knee Angle,Right Knee Angle
0.0,3.223790422392234,1.830027215091571,188.3331601916641,171.2987545829061,163.90159351566192,208.14585164925327,179.85238520794482,175.03103977450306
0.0333667000333667,3.430116289836403,1.830027215091571,188.7193174565421,170.99508018527888,164.01164692493384,208.42013183527507,179.58252996291435,174.41102345634343
0.0667334000667334,3.607501755279265,1.830027215091571,189.0789315926397,170.78217109152553,164.12774648647567,208.6782328946382,179.35491330557196,173.86818365583414
0.1001001001001001,3.757145440037589,1.830027215091571,189.41444142377145,170.65462108092706,164.24786950226948,208.9199413928427,179.16754585605378,173.3992621112087
0.1334668001334668,3.8802459654281423,1.830027215091571,189.7282857737517,170.60702393276452,164.36999327429737,209.14504389538868,179.01843823449596,173.00100056070065
0.1668335001668335,3.978001952767694,2.2638239287393835,190.0229034663949,170.6339734263189,164.49209510454136,209.35332696777616,178.90560106103464,172.6701407425434
0.2002002002002002,4.051612023373013,2.6158247724425494,190.3007333255155,170.73006334087123,164.61215229498356,209.5445771755052,178.82704495580597,172.4034243949705
0.2335669002335669,4.102274798560867,2.892091901261748,190.56421417492788,170.8898874557025,164.728142147606,209.71858108407585,178.78078053894615,172.19759325621544
0.2669336002669336,4.131188899648024,3.0986874702576577,190.8157848384465,171.10803955009382,164.83804196439078,209.8751252589882,178.76481843059125,172.0493890645117
0.3003003003003003,4.139552947951253,3.2416736344909576,191.0578841398858,171.3791134033261,164.93982904731996,210.0139962657423,178.77716925087742,171.9555535580928
0.333667000333667,4.128565564787322,3.327112549022327,191.2929509030602,171.69770279468042,165.03148069837562,210.1349806698382,178.81584361994086,171.9128284751922
0.3670337003670337,4.099425371472999,3.3610663689124447,191.5234239517841,172.0584015034378,165.1109742195398,210.237865036776,178.87885215791772,171.9179555540434
0.4004004004004004,4.053330989325054,3.349597249221989,191.75174210987203,172.45580330887924,165.17628691279458,210.32243593205564,178.96420548494407,171.9676765328799
0.4337671004337671,3.991481039660253,3.2987673450116404,191.9803442011383,172.88450199028574,165.22539608012204,210.3884799211773,179.06991422115613,172.05873314993522
0.4671338004671338,3.915074143795366,3.214638811342076,192.2116690493974,173.33909132693836,165.25627902350425,210.435783569641,179.19398898669002,172.18786714344282
0.5005005005005005,3.825308923047161,3.103273803273975,192.44815547846372,173.8141650981181,165.26691304492326,210.4641334429468,179.3344404016819,172.35182025163618
0.5338672005338673,3.723383998732407,2.970734475868018,192.69224231215185,174.304317083106,165.25527544636117,210.47331610659475,179.48927908626786,172.54733421274886
0.5672339005672339,3.6104979921679057,2.8230829841848823,192.9463683742775,174.80414106118448,165.2193435298014,210.46311812608656,179.65651566058554,172.77115076501576
0.6006006006006006,3.387778913804368,2.6663814832852464,193.26729430444976,175.30471752601918,165.05386357209736,210.3387915113971,179.86024535163173,173.10338262103497
0.6339673006339673,3.076575307637953,2.50669212822979,193.69868973190577,175.72095080360353,164.87831207847358,210.20557293742172,180.0515913067225,173.41688553147748
0.6673340006673341,2.774950698645048,2.3500770740791936,194.1351174095716,176.10619814732692,164.67301109939496,210.0198314669204,180.2158796929691,173.76440278390103
0.7007007007007008,2.44572848747869,2.202598475894137,194.57340053162432,176.44771019257198,164.42495715525786,209.798934451914,180.3748270680633,174.15540803299902
0.7340674007340674,2.148146149776962,2.145750156476871,194.9078925944465,176.72357464409987,164.08895499378812,209.56541347380093,180.5655778150641,174.54240077753255
0.7674341007674341,1.8994615370186287,2.0668555249364746,195.01937056607505,176.96435308859094,163.69308149040006,209.3483628303534,180.76979016321653,174.89168750750562
0.8008008008008008,1.650094564681948,2.003761938941702,195.07885937059737,177.35882566577814,163.29288262361612,209.18854851083623,180.9697707783428,175.17862502572694
0.8341675008341676,1.5437423354924933,1.9451070453455688,195.2834182776914,177.7884608087318,162.927570864339,209.09247931948485,181.17066721573656,175.41144540991067
0.8675342008675342,1.5005575848351442,1.904186456070512,195.674387033492,178.04297847997546,162.5720325577637,209.04926851562567,181.37043595140725,175.60447213920273
0.9009009009009008,1.5005575848351442,1.904186456070512,196.2436314606641,178.36207893798567,162.27389647249427,209.04908859678443,181.57449864685805,175.7492316276443
0.9342676009342676,1.5005575848351442,1.904186456070512,196.7836887584018,178.6315801091636,162.02362519540003,209.13821943523612,181.76088206505972,175.82518934425798
0.9676343009676344,1.5005575848351442,1.904186456070512,197.4066803307704,178.83207146175602,161.81581994755308,209.2566554001259,181.92920066210152,175.86759230309022
1.001001001001001,1.5005575848351442,1.904186456070512,198.21990811478813,179.11169941445976,161.65549732066643,209.3866921354491,182.0852556999064,175.8800729206565
1.0343677010343677,1.5005575848351442,1.904186456070512,199.17559837449087,179.52275600466123,161.57297433916548,209.53427425696688,182.21895728663705,175.85918749177677
1.0677344010677343,1.5005575848351442,1.904186456070512,200.118202397038,179.97393072753027,161.5763993538195,209.69915407281337,182.3209494381706,175.79963535704346
1.1011011011011012,1.5005575848351442,1.904186456070512,200.99964546959563,180.5341356065496,161.65133148351248,209.91642482152,182.423529648211,175.6911606460577
1.1344678011344678,1.5005575848351442,1.904186456070512,201.7590337473438,181.1763179090692,161.7683996432862,210.15193921511147,182.51565638399296,175.54342205204853
1.1678345011678346,1.5005575848351442,1.904186456070512,202.26347749221105,182.17395985275985,161.93939767880738,210.42418150624903,182.57794492183228,175.35171446806442
1.2012012012012012,1.5005575848351442,1.904186456070512,202.5180855171457,183.2080672211121,162.15766494966152,210.7197582019466,182.6295555924285,175.13403100369158
1.234567901234568,1.5005575848351442,1.904186456070512,202.6913515435782,184.3124784067823,162.40696622078366,211.00909583916143,182.68288317010172,174.90692323000928
1.267934601267935,1.5005575848351442,1.904186456070512,202.6275378089144,185.55190442846867,162.649980185997,211.33774663654725,182.7430383587976,174.65991434209698
1.3013013013013013,1.5005575848351442,1.904186456070512,202.649987010878,186.80404110584155,162.9299373228294,211.58798229398943,182.77896455341457,174.4200546732756
1.334668001334668,1.5005575848351442,1.904186456070512,202.9868067761568,188.13859594668847,163.21236177662783,211.8569544238233,182.78266466958308,174.17389158485187
1.3680347013680347,1.5005575848351442,1.904186456070512,202.72908511582224,189.3413109741876,163.61282546771264,212.08866699966887,182.7667435789353,173.95315995613026
1.4014014014014016,1.5005575848351442,1.904186456070512,202.5117420292317,190.50789814615584,164.12929680160272,212.2792483927827,182.7157186982512,173.75410909275283
1.4347681014347682,1.5005575848351442,1.904186456070512,202.206355489307,191.5640641240992,164.75310555742175,212.4775127553576,182.62358513006828,173.55404358736465
1.4681348014681348,1.5005575848351442,1.904186456070512,201.97519860440227,192.6220177934978,165.43664553219128,212.569098734208,182.51562842124108,173.43650675429635
1.5015015015015016,1.5005575848351442,1.904186456070512,201.48891751879177,193.6015514588876,166.1705607666805,212.5346326511757,182.38638083661016,173.43186416633432
1.5348682015348682,1.5005575848351442,1.904186456070512,200.84898560396,194.49458929096764,166.94140029986505,212.4098986591744,182.2484282668901,173.53873821502248
1.5682349015682349,1.5005575848351442,1.904186456070512,200.0810730641288,195.15848487231645,167.70889756601298,212.1809378608552,182.07018702097963,173.69829057930468
1.6016016016016017,1.6421120841426018,1.904186456070512,199.18338879318603,197.0933902044134,168.52040911768364,211.9047882071108,181.8439656065175,173.88461464205656
1.6349683016349683,1.6421120841426018,1.904186456070512,198.3428152175524,198.44135474601845,169.32678929276256,211.6137437615127,181.5961741048817,174.0819631572823
1.6683350016683351,1.6421120841426018,1.904186456070512,197.5955742100196,198.78887163603173,170.13189603311213,211.29866454710395,181.3281203658088,174.29888121480076
1.7017017017017018,1.6421120841426018,1.904186456070512,196.9314656393973,199.51247298093068,170.93738998978202,210.98941487991547,181.0274290621264,174.523824365041
1.7350684017350684,1.6421120841426018,1.904186456070512,196.3007843678992,199.95184704259293,171.74066092290093,210.5938400613992,180.68807975577,174.76807557580904
1.7684351017684352,1.8592060204583285,1.904186456070512,196.98865361947264,200.37699269779145,172.5190684435195,210.1365126604817,180.3239042802436,175.04058396860742
1.8018018018018016,1.8592060204583285,1.904186456070512,197.2438944997596,203.40987273771933,173.27016516236134,209.640834106256,179.9459958734064,175.3221474813879
1.8351685018351689,1.8592060204583285,1.904186456070512,197.24868426756527,205.63714694393693,173.97768588214777,209.18950578774903,179.58515483611063,175.5617907356559
1.8685352018685355,1.8592060204583285,1.904186456070512,196.69236596688685,207.49258586577432,174.67593709458686,208.79218649001493,179.21534013439194,175.71303660223583
1.901901901901902,1.8592060204583285,1.904186456070512,195.99627993708933,208.57150593244668,175.41037090050756,208.49617619976985,178.80965326447696,175.79033904054742
1.9352686019352687,1.8592060204583285,1.9434289581267647,195.17718650484508,208.56842382553472,176.1854610733399,208.2075218350409,178.38278563341822,175.81451443537566
1.968635301968636,1.8592060204583285,1.9434289581267647,194.5807863188737,207.80314644369489,176.9538562535741,207.95016095072387,177.9431556303546,175.8260085121962
2.002002002002002,2.120860986669526,1.9434289581267647,193.82980216720352,206.74181355151933,177.6993311513466,207.7026939859119,177.48155349096743,175.81799302730843
2.035368702035369,2.120860986669526,2.0652911091871027,192.9528938333056,205.80974464913032,178.40224319445664,207.4751627089041,177.02139665186905,175.76681857162012
2.0687354020687354,2.120860986669526,2.0652911091871027,192.50477838325543,203.4627349275031,179.08141029690617,207.2570509627264,176.5546905509468,175.68203043815964
2.1021021021021022,2.120860986669526,2.0652911091871027,191.4854831937068,200.6810383119949,179.7569965337952,206.9915881859456,176.09284124272102,175.59829976618923
2.135468802135469,2.120860986669526,2.0652911091871027,190.04975327066973,197.7283504521759,180.3912235459267,206.75084937803567,175.62818711788165,175.50463271776314
2.1688355021688355,2.120860986669526,2.258008525465593,187.7920018004038,194.5868716700328,180.97173112729345,206.54762045674977,175.17071869373888,175.39211433686822
2.2022022022022023,2.120860986669526,2.258008525465593,185.0645130758115,191.8715465662669,181.4683321732145,206.37869767734907,174.7365341561242,175.27760721621723
2.235568902235569,2.120860986669526,2.258008525465593,182.61665325923155,188.89653635359528,181.87478716257405,206.2397289971071,174.32056197865936,175.16195840044708
2.2689356022689355,2.120860986669526,2.258008525465593,179.51167492257267,185.5640642389836,182.18664159652843,206.1290756423775,173.89190664602495,175.0687031213541
2.3023023023023024,2.4727899462716705,2.258008525465593,176.13376955133606,182.050261504423,182.4290658233424,206.0870677787308,173.45899065326233,174.9655420147686
2.335669002335669,2.4727899462716705,2.258008525465593,173.0390772828386,178.08899586375776,182.5974970018268,206.0857398756359,173.03536180611758,174.87952165363183
2.369035702369036,2.4727899462716705,2.258008525465593,170.00623058148233,173.91714708917803,182.69076290006345,206.1560179629028,172.60783419248597,174.80500057400445
2.4024024024024024,2.4727899462716705,2.258008525465593,166.71413653956148,169.61247134777472,182.706865244,206.22589683674863,172.1924983072233,174.72045890707744
2.4357691024357693,2.4727899462716705,2.5573603763696804,162.90518314298447,164.79187090964462,182.71580974829195,206.221343197698,171.77035316845792,174.6407545508455
2.469135802469136,2.4727899462716705,2.5573603763696804,158.21325323491965,159.82014317734266,182.70143761717785,206.16680423282884,171.35605357718094,174.5373842952812
2.5025025025025025,2.4727899462716705,2.5573603763696804,150.76204999503943,154.89746643649815,182.7579408849928,206.0081787476118,170.9646636717364,174.4284504424737
2.5358692025358693,2.4727899462716705,2.5573603763696804,145.67752290157327,150.41631192194063,182.7516628503228,205.8621365048676,170.5804960519326,174.3477837420594
2.569235902569236,2.4727899462716705,2.5573603763696804,141.10611978608526,146.32251245003835,182.67591531587496,205.71885160381552,170.22094128507337,174.28900482615404
2.6026026026026026,2.4727899462716705,2.5573603763696804,137.14937214011593,142.77450476774135,182.5490522568801,205.56007303515992,169.87751570678617,174.249026092335
2.6359693026359694,2.4727899462716705,2.5573603763696804,131.04443858541413,139.49039831392545,182.4416335248203,205.4556958467148,169.5354724284291,174.20557192774984
2.669336002669336,2.4727899462716705,2.5573603763696804,126.24855843957984,136.72943963831403,182.2745355415731,205.36485774489336,169.2124412312024,174.17618950189882
2.702702702702702,2.918524035717758,2.5573603763696804,123.94676674562945,134.993918065898,182.0302589700632,205.28884974927652,168.91351152015304,174.17851699269818
2.736069402736069,2.918524035717758,2.5573603763696804,123.63072160821432,134.52166153767956,181.73373627644253,205.2625197556154,168.62561252932534,174.18113993650525
2.7694361027694363,2.918524035717758,2.9171286878574607,123.94916355132732,133.17598961802526,181.4926287041133,205.2454930315736,168.28507836023437,174.2014331133627
2.802802802802803,2.918524035717758,2.9171286878574607,124.6952064366402,132.58670469509815,181.20597890450776,205.23521315091867,167.98110500184734,174.22110571523072
2.836169502836169,2.918524035717758,2.9171286878574607,127.22297750820296,132.85177112500588,180.8467964268744,205.2282278643717,167.7082489094154,174.21539306586675
2.8695362028695364,2.918524035717758,2.9171286878574607,130.43896894489367,133.19798712907874,180.4081612292627,205.13780334537697,167.4574394692029,174.20917880424102
2.902902902902903,2.918524035717758,2.9171286878574607,134.36279697067033,134.80520909213973,179.97510065218552,205.04615543220737,167.20299342125847,174.19050954812093
2.9362696029362696,2.918524035717758,2.9171286878574607,136.41778207508872,138.0692524912837,179.54764997809957,204.94863989489312,166.9467456554945,174.16917983554046
2.9696363029696364,2.918524035717758,2.9171286878574607,136.10663391523815,139.16717866305137,179.10701317192897,204.850078391584,166.70619748540614,174.14103700634882
3.003003003003004,2.918524035717758,2.9171286878574607,135.73246270606586,141.09429315738066,178.69006513022848,204.7314602892432,166.48189777857564,174.11130945741317
3.0363697030363697,2.918524035717758,2.9171286878574607,138.79456804754955,147.62920714723333,178.28262075160163,204.6045004988437,166.28298809359285,174.07131425679242
3.0697364030697365,2.918524035717758,2.9171286878574607,141.29788744723916,147.6256042831229,177.90464007523497,204.4145952802088,166.0833010411764,174.02234944595833
3.103103103103104,2.918524035717758,2.9171286878574607,143.68807073622335,147.2237749868425,177.54688016597376,204.23241069543985,165.88042505508596,173.9785823500048
3.1364698031364697,2.918524035717758,2.9171286878574607,146.3603166763267,151.43991423421377,177.2240296681884,204.05851268599247,165.6814551677715,173.9234277176167
3.169836503169837,3.4055146689438867,3.387634329876108,148.551039864423,150.76600939491362,177.01221707537638,203.8676326505609,165.4951641906836,173.8765234460563
3.2032032032032034,3.4055146689438867,3.387634329876108,151.4120421769213,149.69315517842452,176.75990398782986,203.6420498544613,165.31138455662892,173.8584842634616
3.2365699032365702,3.4055146689438867,3.387634329876108,152.98333407154482,148.53667451248245,176.57314103981025,203.4434823250509,165.11971765562427,173.85155834006386
3.2699366032699366,3.4055146689438867,3.387634329876108,153.99030415411974,147.0691803953696,176.50826234352354,203.2545875828288,164.90725755036,173.88886499044614
3.3033033033033035,3.4055146689438867,3.387634329876108,154.18175030467089,145.652989171625,176.51170115796043,203.0837627565884,164.69672648983607,173.9146129234446
3.3366700033366703,3.4055146689438867,3.387634329876108,154.29260633401637,144.4993890067991,176.5721570616496,202.99211312021163,164.49081147279213,173.90102945156698
3.3700367033700367,3.4055146689438867,3.387634329876108,154.1046447112523,142.55494700981785,176.6457178365273,202.9712014251593,164.2563954241745,173.8502968701762
3.4034034034034035,3.4055146689438867,3.387634329876108,152.78741938973727,140.55747183964587,176.8385920921188,202.98975888517023,163.8980469722313,173.7963491509004
3.4367701034367704,3.4055146689438867,3.387634329876108,150.4757046697204,139.42397866829313,177.0755796346332,203.11507755339417,163.53331321582553,173.69672991767163
3.4701368034701368,3.4055146689438867,3.387634329876108,147.55178514846372,137.80401349107396,177.40415377333122,203.30274629250496,163.10274609375537,173.5883119390498
3.503503503503504,3.4055146689438867,3.387634329876108,144.12862218065624,136.59549205652425,177.81009220522662,203.5458731645741,162.66172259549424,173.48796772018594
3.5368702035368704,3.4055146689438867,3.387634329876108,139.48423262317007,135.16312115360978,178.33144267839253,203.85180781854896,162.25956315106131,173.34527623484655
3.5702369035702373,3.4055146689438867,3.387634329876108,134.21279142121872,133.64729401987623,178.9518490660542,204.02040312329336,161.91444853886907,173.23777358880653
3.603603603603604,3.4055146689438867,3.387634329876108,128.4248115489573,132.85738214108548,179.64449106319984,204.1759170092573,161.5898119332136,173.12771731063714
3.6369703036369705,3.4055146689438867,3.387634329876108,123.2894665985099,132.78941823950794,180.2536499038832,204.4461891562532,161.4167556229548,173.0107056766501
3.670337003670337,3.4055146689438867,3.9116946174872247,119.21616768604903,130.51399446308687,180.9980042791549,204.9002459547378,161.24057642985466,172.78840744752844
3.703703703703704,3.992494401978284,3.9116946174872247,115.78028561821114,129.4158836970596,181.5929911251848,205.3383310710515,161.3487051496631,172.46959030414595
3.737070403737071,3.992494401978284,3.9116946174872247,112.63717115679034,132.16142383614243,182.0343138547278,205.7359280834337,161.6323430516691,172.19162495650528
3.770437103770437,3.992494401978284,3.9116946174872247,108.72345817413864,125.4085144385408,182.45886122617588,206.0163506794917,161.98347953656753,172.00758595037246
3.803803803803804,3.992494401978284,3.9116946174872247,110.74397678690369,120.71167367076704,182.6444989242899,206.2590254538956,162.57763334743413,171.85156935561884
3.8371705038371706,3.992494401978284,3.9116946174872247,113.28849804709668,117.5385322006639,182.57163276795595,206.3191327949913,163.4479081996185,171.86826949853315
3.8705372038705375,3.992494401978284,3.9116946174872247,115.3904006978062,121.08242443963071,182.2854609146474,206.27687098661423,164.59425454445085,172.0104566080117
3.903903903903904,3.992494401978284,3.9116946174872247,118.27586243192306,123.88305149895912,181.8733625475689,206.15925479189772,165.91212774837493,172.1390806023139
