Time,Left Shoulder Angle,Right Shoulder Angle,Left Elbow Angle,Right Elbow Angle,Left Hip Angle,Right Hip Angle,Left Knee Angle,Right Knee Angle
0.0,10.32774081429788,36.34106223755367,155.34302560960109,156.19441321384664,141.3611934184164,138.95184272615197,195.53516327512256,195.7247872230451
0.0333667000333667,20.14346284436044,39.13808390862465,156.38491608834687,162.17766697931611,141.52907825702002,138.0341965471672,194.60370817011,195.9198853928128
0.0667334000667334,27.602233711141945,41.08664893950227,157.5135699541778,166.939636308675,141.59244191864903,137.34090995702388,193.90892963946663,196.09870849839973
0.1001001001001001,32.926459527219315,42.25594076302291,158.71199764754678,170.5435037251034,141.55966072722967,136.85864953834255,193.43649491250656,196.26120114611345
0.1334668001334668,36.33854640516949,42.71514281202298,159.96320960890668,173.05245175178135,141.43911100668828,136.57408187374378,193.1720712185436,196.40730794226133
0.1668335001668335,38.06090045756939,42.53343851933887,161.25021627871044,174.52966291188892,141.23916908095111,136.47387354584816,193.1013257868917,196.53697349315104
0.2002002002002002,38.31592779699596,41.78001131780696,162.5560280974109,175.0383197286062,140.96821127394446,136.5446911372762,193.2099258468649,196.65014240508992
0.2335669002335669,37.3260345360261,40.52404464026366,163.86365550546094,174.64160472511324,140.6346139095946,136.7732012306485,193.48353862777708,196.74675928438552
0.2669336002669336,35.313626787236764,38.83472191954537,165.1561089433135,173.40270042459014,140.24675331182783,137.14607040858562,193.9078313589422,196.82676873734536
0.3003003003003003,32.50111066320487,36.78122658848848,166.41639885142143,171.38478935021692,139.81300580457045,137.64996525370813,194.4684712696742,196.89011537027687
0.333667000333667,29.110892276507336,34.432742079929376,167.62753567023765,168.6510540251737,139.3417477117487,138.27155234863653,195.15112558928703,196.9367437894876
0.3670337003670337,25.36537773972111,31.858451826704467,168.77252984021504,165.2646769726405,138.84135535728888,138.99749827599146,195.9414615470947,196.966598601285
0.4004004004004004,21.48697316542313,29.127539261650128,169.83439180180648,161.28884071579745,138.3202050651173,139.81446961839347,196.82514637241104,196.9796244119766
0.4337671004337671,17.698084666190276,26.30918781760278,170.79613199546486,156.78672777782455,137.78667315916022,140.70913295846307,197.7878472945501,196.97576582786988
0.4671338004671338,14.221118354599524,23.472580927398795,171.6407608616431,151.82152068190192,137.24913596334395,141.66815487882087,198.81523154282576,196.9549674552723
0.5005005005005005,11.278480343227775,20.686902023874588,172.35128884079404,146.4564019512096,136.71596980159472,142.67820196208743,199.892966346552,196.91717390049132
0.5338672005338673,9.092576744651993,18.02133453986655,172.9107263733706,140.7545541089277,136.1955509978389,143.72594079088327,201.0067189350428,196.86232976983464
0.5672339005672339,7.885813671448286,15.54506190821115,173.30208389982715,134.7791596782375,135.69625587600382,144.79803794783018,202.1421565376135,196.7903796696112
0.6006006006006006,13.468933971412197,14.376681216848766,172.95594650657182,128.77600902043778,135.35615723977236,145.82599869740662,203.0893704521013,196.70584657646663
0.6339673006339673,20.849183806226645,13.800935138243563,172.51594625533315,122.80573696004367,135.08649251105606,146.88450224591247,204.0623035876322,196.53511137297508
0.6673340006673341,29.657856071555084,13.756124944143812,172.13973080710122,116.58791341888715,135.03694947915457,147.90615990165043,204.92209822146123,196.33556790652065
0.7007007007007008,48.87004931913079,14.857475169682328,171.6983750376637,110.94571120921609,135.03613724756318,149.08220544894965,205.7966290510536,195.72449397741312
0.7340674007340674,67.72865542998392,16.40804154398272,171.93904555874684,104.7989727131361,134.82676040854793,150.74609680556983,206.4334234187626,194.97187202899
0.7674341007674341,85.41201753068296,18.64248049848339,168.10121273364155,100.34812650083404,134.64785275644803,151.9880934917311,207.321905563249,194.26437393013765
0.8008008008008008,100.4487235644741,20.325698469842465,166.12335235149249,91.58458548703396,134.56352999230316,152.99364847652438,208.36162399907505,193.5954414599556
0.8341675008341676,114.15003779310116,22.50200187471725,164.5727510739178,84.84707701793423,134.3502721678381,153.50611069256652,209.6824663832776,193.3174660499378
0.8675342008675342,127.08666209273927,24.15553925543376,163.96161327236493,77.87699305505704,134.0143231331607,153.5106804515058,211.01427909348303,193.6824065193825
0.9009009009009008,138.88637188457943,25.73822613171179,164.85603168819205,72.5943352196723,133.5878994284966,153.40750153874845,212.2401522921464,194.352578697434
0.9342676009342676,148.521215037858,27.080341694589013,165.13556055269007,71.06218835693934,133.31007465874492,153.16538758510413,213.24031266652293,195.44577225926648
0.9676343009676344,156.03901601073454,29.18574998983128,164.55606342751523,71.44119145184189,133.1664564324938,152.78092024690616,213.92124502900765,196.65028007996705
1.001001001001001,161.94287482807692,30.792960801431057,163.8780405264157,71.09914395800338,133.096865101793,152.2298026700087,214.3941697868572,197.8492645326644
1.0343677010343677,165.78540610410937,32.677694068362634,163.68639182853914,69.88731418419378,133.17986877537916,151.54883661461537,214.6047034267664,198.94867056784813
1.0677344010677343,159.364461208451,34.5335893825677,163.27787057406954,67.33387534992808,133.47204218841557,150.77828531297763,214.5795617315142,200.0092862233056
1.1011011011011012,156.00610739791566,27.100097014826144,155.44608602371144,61.08732899478727,133.87636470664938,149.8760342791893,214.38751907476268,200.99038036110184
1.1344678011344678,152.12238225953973,22.52038209917244,150.45876372959063,56.29293829053493,134.34896489451722,148.89443595194166,213.9263646800472,201.87365703636976
1.1678345011678346,148.53846778504249,20.04898690858557,145.04937408119727,53.931947483425056,134.88630187815644,147.88974006388744,213.22773577580588,202.48738494143603
1.2012012012012012,145.26715502843294,19.43052556689184,140.23078010872155,53.64059460554182,135.32481902800552,146.8777585723281,212.49372662072707,202.9353032274224
1.234567901234568,142.09592334051328,20.90331745291548,136.23872889942277,55.05419044826064,135.9146878491868,145.86784838451106,211.38024160950243,203.23319203670505
1.267934601267935,138.98559496421305,23.65052781144977,133.05855895660363,57.737192572347226,136.59085836986844,144.93717112400378,209.9909618726201,203.2846506481229
1.3013013013013013,135.8856624101067,27.73902050984381,130.54863960338767,62.12671820694372,137.26723887881118,144.0934807496649,208.41238532918703,203.12240702818136
1.334668001334668,132.50013329954015,33.1240892081629,129.82217214928593,68.33252301899984,137.92256592472563,143.2906176864066,206.68902098309,202.83130941247896
1.3680347013680347,128.47373983851165,38.73025905411576,131.54972450027287,76.76504364339344,138.64612732106872,142.57070182157526,204.86179916045108,202.35549697253003
1.4014014014014016,123.35896484155488,55.24675858611712,133.15781294737562,83.31573668198827,139.28817861551178,142.02207513976325,202.96035441883413,201.75310867500573
1.4347681014347682,126.29842160356831,69.87226718574209,135.0132249796962,89.45978651061243,140.02723926272725,141.72412281303792,200.90855699028472,200.9264253035928
1.4681348014681348,126.84152601423868,83.6219679391016,132.78230996035282,95.62847018783494,140.78318979135926,141.59681646824322,198.84159243178377,199.83027571652207
1.5015015015015016,124.95577297168316,95.4399516588039,129.16973391598913,100.40035216171115,141.60693346865793,141.5918693495723,196.76534635270684,198.52547031402167
1.5348682015348682,132.08395167989937,111.25986678047504,126.09991998890388,105.86245257204624,142.6907054909616,141.93645678361298,194.18213102853892,196.47569988402896
1.5682349015682349,139.7768060180698,126.6241360853876,122.6795729327824,110.9836422685448,143.7686075338252,142.3854158684454,191.62138705537137,194.31856594898
1.6016016016016017,147.7816207073018,141.16410707229454,118.88555276408492,115.6490693852328,144.82549728005725,142.9289603853561,189.1208361481397,192.08890178321525
1.6349683016349683,155.84568046870444,154.51112723994913,114.69471949927308,119.7438820561371,145.8462324124674,143.55730411563283,186.7182000217813,189.82154066107685
1.6683350016683351,163.71627002338684,166.29654408710564,110.08393315480843,123.1532284152844,146.81567061386536,144.2606608405632,184.4512003912336,187.551315856907
1.7017017017017018,171.1406740924581,176.15170511251725,105.03005374715266,125.76225659670143,147.7186695670608,145.02924434143495,182.35755897143363,185.31306064504776
1.7350684017350684,177.86617739702757,183.70795781493777,99.50994129276732,127.45611473441502,148.5400869548634,145.85326839953575,180.474997477319,183.14160829984127
1.7684351017684352,183.640064658204,188.59664969312104,93.500455808114,128.11995096245198,149.26478046008282,146.7229467961533,178.8412376238269,181.0717920956298
1.8018018018018016,188.2096205970969,190.4491282458204,86.97845730965436,127.63891341483898,149.87760776552875,147.62849331257527,177.4940011258947,179.13844530675533
1.8351685018351689,191.32212993481505,188.89674097178985,79.92080581384997,125.89815022560282,150.36342655401089,148.56012173008935,176.47100969845968,177.37640120756004
1.8685352018685355,192.724877392468,183.57083536978269,72.30436133716243,122.78280952877036,150.7070945083389,149.50804582998325,175.8099850564592,175.82049307238609
1.901901901901902,192.1651476911645,174.10275893855274,64.10598389605339,118.17803945836818,150.89346931132246,150.4624793935446,175.54864891483055,174.5055541755756
1.9352686019352687,189.39022555201387,160.1238591768539,55.30253350698442,111.96898814842322,150.90740864577126,151.41363620206118,175.72472298851102,173.46641779147072
1.968635301968636,184.1473956961252,141.26548358343942,45.870870186417136,104.04080373296212,150.73377019449495,152.3517300368206,176.37592899243802,172.73791719441354
2.002002002002002,176.18394284460766,117.15897965706338,35.78785395081313,94.2786343460118,150.3574116403032,153.26697467911055,177.5399886415488,172.35488565874627
2.035368702035369,165.2471517185703,87.43569489647899,25.030344816634013,82.56762812159894,149.76319066600578,154.14958391021878,179.25462365078073,172.352156458811
2.0687354020687354,151.08430703912254,51.72697680044064,13.575202800341458,68.79293319375019,148.93596495441227,154.9897715114329,181.5575557350711,172.76456286894987
