Time,Left Shoulder Angle,Right Shoulder Angle,Left Elbow Angle,Right Elbow Angle,Left Hip Angle,Right Hip Angle,Left Knee Angle,Right Knee Angle
0.0,39.97839352229143,9.634333556888189,157.68945604262603,166.7017008491561,172.34815639399685,210.8670174234068,176.92048441772238,174.60832102092493
0.0333667000333667,24.482986539982555,7.64621453501489,164.7585669402392,170.67978787525615,169.48644563509953,211.08244305185988,177.89408102578184,175.39858797563383
0.0667334000667334,11.97803911054945,6.181742753201084,170.8704529230842,174.14236105986896,167.22999928528856,211.1832753865004,178.7103830824069,176.11616826492863
0.1001001001001001,2.2768365637713828,5.206764144551947,176.07106219762522,177.1098362617725,165.53639148310333,211.17885698859823,179.37928118759342,176.7623633730867
0.1334668001334668,-4.807335770572358,4.687124642172662,180.40634297032645,179.60262933974482,164.36319636708316,211.0785304194233,179.91066594133724,177.33847478438554
0.1668335001668335,-9.461192562702507,4.588670179168406,183.9222434476521,181.6411561525639,163.6679880757674,210.89163824024564,180.3144279436342,177.8458039831025
0.2002002002002002,-11.871448482839796,4.877246688644357,186.6647118360665,183.24583255900777,163.40834074769543,210.62752301233505,180.6004577944801,178.285652453515
0.2335669002335669,-12.224818201204954,5.518700103705697,188.67969634203365,184.4370744178544,163.5418285214066,210.29552729696152,180.7786460938709,178.6593216799005
0.2669336002669336,-10.708016388018692,6.4788763574576045,190.013145172018,185.23529758788183,164.0260255354402,209.904993655395,180.8588834418024,178.96811314653638
0.3003003003003003,-7.5077577135017535,7.723621383005257,190.7110065324835,185.66091792786807,164.81850592833567,209.46526464890545,180.85106043827028,179.21332833770006
0.333667000333667,-2.810756847874849,9.218781113453836,190.81922862989447,185.73435129659111,165.87684383863234,208.9856828387628,180.76506768327056,179.39626873766898
0.3670337003670337,3.196271538641298,10.93020148190852,190.3837596707153,185.476013552829,167.15861340486953,208.4755907862369,180.61079577679905,179.51823583072053
0.4004004004004004,3.196271538641298,12.823728421474486,189.45054786141003,184.90632055535968,168.62138876558663,207.9443310525978,180.3981353188516,179.58053110113212
0.4337671004337671,3.196271538641298,14.865207865256922,188.06554140844287,184.0456881629612,170.222744059323,207.4012461991154,180.1369769094239,179.5844560331812
0.4671338004671338,3.196271538641298,17.020485746360993,186.27468851827803,182.91453223441155,171.92025342461793,206.85567878705965,179.83721114851198,179.53131211114516
0.5005005005005005,3.196271538641298,19.255407997891886,184.1239373973798,181.5332686284888,173.67149100001083,206.31697137770044,179.5087286361116,179.4224008193014
0.5338672005338673,3.196271538641298,21.53582055295479,181.65923625221228,179.92231320397082,175.43403092404105,205.79446653230772,179.16141997221865,179.2590236419274
0.5672339005672339,3.196271538641298,23.827569344655,178.92653328924123,178.10208181963728,177.16544733524933,205.29750681215333,178.80517575683027,179.0424820633021
0.6006006006006006,10.326612775825945,26.75184148583461,173.44669869698717,175.6049645786915,178.03904107817692,205.01809224187647,178.84393377926176,178.64207034011392
0.6339673006339673,18.39355219345838,28.943627134418577,168.7031989230919,175.11584795419012,178.54615360757313,204.70346652502053,178.99221901230888,178.20618734375233
0.6673340006673341,27.21037512131781,29.830074628024366,164.9706607670318,174.1979812703797,178.7681500223037,204.4691319345312,179.16860700002982,177.74457509204183
0.7007007007007008,36.59036688918363,30.987807199104644,166.2250343227161,169.0799673800609,178.8815745725871,204.2100814353778,179.13620960306451,177.33181149853763
0.7340674007340674,46.346812826835006,32.162486284815714,167.4272015860409,166.4294615604662,179.18109873807342,204.025533459106,178.6238471318572,176.77545638806887
0.7674341007674341,56.29299826405167,30.18078396825405,166.95906766088234,163.73212292886905,179.61978536875603,203.98834582176767,177.77919380971275,176.0749453854607
0.8008008008008008,65.27874798106828,31.865768611253515,164.8830993881481,161.3614594385772,180.0277782963144,204.3540866718789,176.7417324693493,175.18366994565665
0.8341675008341676,73.6225142566659,32.98030941698302,160.40485685663893,159.6264469708851,180.52485329012887,204.92724993505203,175.78646800920117,173.95550382941516
0.8675342008675342,80.51442096332579,33.89978063505536,157.17773433117284,157.61673097307292,180.9072939327308,205.51688258643728,175.1451075077923,172.75740671282605
0.9009009009009008,86.60206539888848,35.640561895535754,154.64440550483903,153.78555270025976,180.81547577898235,205.5346122920088,174.98032942688192,172.18085377329578
0.9342676009342676,91.71722538408656,36.96882822831768,152.26216337911444,151.34805023022693,180.2262969227878,205.6880748222828,175.23699644284136,171.54116454044055
0.9676343009676344,95.38585644505994,37.31819365139443,157.09639412290164,148.68837152343286,179.4570009558448,205.7347981678612,175.67786073362709,171.2367178974933
1.001001001001001,98.04196059092496,37.46660371657888,160.53328615374235,147.6009794920124,178.47189372113615,205.70465444408111,176.3686994520451,171.4141881020061
1.0343677010343677,100.81186807685818,36.22536614375199,162.7090317413834,145.97903535299798,177.57325750075742,205.8936268129208,177.09228175371942,171.74926274418803
1.0677344010677343,104.08003952482258,33.88909718314054,156.2348956921804,142.0502788553264,176.70264431137696,206.15571763269736,177.75831292323642,172.38068384825866
1.1011011011011012,106.67478193681828,31.591433461601152,156.8345494264102,139.24884353041645,175.953289523737,206.3182214729121,178.51678498732866,173.23659312845248
1.1344678011344678,108.0929720350126,29.75622657507157,149.68522356555218,137.04110955042853,175.39038313568295,206.618649376205,179.2957961229192,174.15173448529626
1.1678345011678346,107.75007785708736,27.93636541504586,144.84095514915956,136.64496043041376,174.8918828253092,207.0006232544116,180.23203722876767,175.11729243152925
1.2012012012012012,105.55076247574888,27.55401829546619,141.41626781768525,136.6393578653763,174.52289299961575,207.3829060277202,181.24849276662883,176.26397618758483
1.234567901234568,101.48499568270896,26.831778423015216,140.11188449342723,138.50789846335033,174.41668189064006,207.8435396926175,182.24667383697496,177.69616755523862
1.267934601267935,96.15846212436574,26.65430789515138,138.16273183640067,141.55434697092687,174.5736196544308,208.29837264753047,183.1651119468756,179.40296390231595
1.3013013013013013,91.3768212360349,27.629637900303027,136.79034325485998,144.36024442224365,174.86852357745502,208.54438745611296,184.0092793307844,181.47819089377327
1.334668001334668,85.2748976614846,28.294481550282185,135.64319605230952,147.27704918192944,175.315168787029,208.62748649474088,184.76497841130617,183.8860431493732
1.3680347013680347,78.23563968656116,29.300281605456217,137.35061509416755,151.92383531114606,176.32103808448772,208.3969892970492,185.2495454808296,186.5675112350263
1.4014014014014016,74.70972767498706,31.28579144594152,139.3311111172855,156.85878037845362,177.49211003030513,207.9921304164695,185.67192744594908,189.48777979863303
1.4347681014347682,63.703650917001205,33.508258432167715,137.08786589939646,161.64088096859984,178.72992110292233,207.52684840258752,186.025014426004,192.48802418517505
1.4681348014681348,54.1685298362133,34.085170811601444,137.80200658169025,164.7355823504558,180.26104332967824,206.9614047048504,186.39645406669865,195.5823000725709
1.5015015015015016,46.77955588450996,41.88450879261161,140.96748752975208,166.9270384796669,181.98308939753989,206.20123667457565,186.4990536429247,198.7677116296959
1.5348682015348682,41.183644840362085,51.02549534380971,143.73359833634706,168.1981131060731,183.50628748905007,205.11526821584968,186.4015076857714,202.0596292164124
1.5682349015682349,35.819637466075164,60.44992441637663,146.27061812741923,172.85332515083104,184.99990991272068,203.6347872335716,186.4258434895578,205.20209690056092
1.6016016016016017,31.70164247911348,71.12265236573305,142.27342276533346,177.51641606967792,186.3053689180664,202.4528537141543,186.4811625214085,207.9539691456993
1.6349683016349683,36.92095231235527,80.83815354946734,141.5312156232369,180.48780484169168,187.4752464089792,201.3401217993289,186.2234045634653,210.73278093527028
1.6683350016683351,42.07484475765937,90.81225408679276,140.99159923216243,183.322232330926,188.56123083929225,200.22067311320023,185.88560363612308,213.38678177317863
1.7017017017017018,51.463762324353446,100.94359198418866,140.70254818123158,185.9926045280077,189.54691231109905,199.10872312284965,185.471859156242,215.89071001560984
1.7350684017350684,48.36540188840454,111.13080524813468,140.71203705956677,188.47182742356483,190.4158809264944,198.0184872953598,184.98627054068373,218.21930401875068
1.7684351017684352,57.18466272789963,121.2725318851104,141.0680404562905,190.7328070082255,191.15172678757312,196.9641810978136,184.43293720631,220.3473021387881
1.8018018018018016,68.57223965803112,131.26740990159556,141.81853296052518,192.7484492726177,191.7380399964303,195.96001999729384,183.81595856998217,222.24944273190903
1.8351685018351689,76.58123175703986,141.0140773040698,143.01148916139334,194.4916602073696,192.1584106551607,195.02021946088337,183.13943404856207,223.90046415430035
1.8685352018685355,84.88774098660603,150.4111720990128,144.69488364801742,195.9353458031091,192.3964288658593,194.15899495566492,182.40746305891147,225.2751047621489
1.901901901901902,93.38492319149243,159.35733229290412,146.9166910095199,197.0524120504644,192.4356847306209,193.3905619487215,181.62414501789172,226.3481029116417
1.9352686019352687,101.9659342164623,167.7511958922234,149.7248858350232,197.8157649400635,192.25976835154043,192.7291359071357,180.79357934236472,227.09419695896565
1.968635301968636,110.52392990627864,175.49140090345037,153.16744271364985,198.1983104625345,191.85226983071288,192.18893229799056,179.9198654491919,227.4881252603076
2.002002002002002,118.95206610570486,182.47658533306475,157.29233623452228,198.1729546085054,191.196779270233,191.78416658836875,179.00710275523497,227.5046261718543
2.035368702035369,127.1434986595039,188.6053871875459,162.14754098676292,197.7126033686044,190.27688677219572,191.5290542453532,178.05939067735557,227.1184380497929
2.0687354020687354,134.99138341243903,193.77644447337383,167.7810315594943,196.7901627334593,189.0761824386961,191.4378107360265,177.08082863241535,226.3042992503102
2.1021021021021022,142.38887620927338,197.88839519702805,174.24078254183888,195.3785386936985,187.5782563718289,191.52465152747172,176.07551603727592,225.0369481295932
2.135468802135469,149.2291328947701,200.83987736498813,181.5747685229192,193.45063723994977,185.766698673689,191.8037920867717,175.0475523087989,223.29112304382852
2.1688355021688355,155.40530931369238,202.52952898373388,189.83096409185745,190.97936436284127,183.6250994463713,192.28944788100904,174.001036863846,221.04156234920345
