Time,Left Shoulder Angle,Right Shoulder Angle,Left Elbow Angle,Right Elbow Angle,Left Hip Angle,Right Hip Angle,Left Knee Angle,Right Knee Angle
0.0,18.88218742705767,38.03623418445562,153.61236599450564,167.92302685893637,130.32500313836124,135.15217101092395,209.6739312817556,212.70466816490327
0.0333778371161548,19.21751073747675,37.406882100985314,154.89965630455185,166.95951720295162,131.01698038375963,135.1090536969303,209.3855823919756,212.29719456174
0.0667556742323097,19.55274792685357,36.84874575387204,156.06914648631144,166.13054235596564,131.56738731253876,135.051219583812,209.1548615388833,211.9773786990704
0.1001335113484646,19.88718175058103,36.35598197068553,157.1302295280638,165.42795996436166,131.98585966763272,134.9820981899356,208.97692440963493,211.7383563819991
0.1335113484646194,20.220094964052016,35.92274757899551,158.0922984180883,164.84362767452276,132.2820331919756,134.90511903366755,208.84692669138656,211.57326341563063
0.1668891855807743,20.550770322659435,35.54319940637173,158.96474614466433,164.36940313283216,132.46554362850134,134.82371163337436,208.76002407129428,211.47523560506949
0.2002670226969292,20.878490581796186,35.211494280383896,159.7569656960713,163.99714398567298,132.54602672014408,134.74130550742242,208.71137223651425,211.4374087554201
0.2336448598130841,21.20253849685516,34.92178902860175,160.47835006058855,163.7187078794284,132.53311820983785,134.6613301741783,208.6961268742025,211.45291867178707
0.2670226969292389,21.522196823229265,34.66824047859503,161.1382922264955,163.52595246048156,132.43645384051672,134.58721515200838,208.7094436715153,211.5149011592748
0.3004005340453938,21.8367483163114,34.445005457933455,161.74618518207154,163.41073537521564,132.2656693551147,134.5223899592792,208.7464783156085,211.6164920229878
0.3337783711615487,22.14547573149444,34.24624079418676,162.31142191559607,163.3649142700138,132.0304004965659,134.4702841143572,208.8023864936384,211.75082706803065
0.3671562082777036,22.44766182417131,34.06610331492468,162.84339541534845,163.3803467912592,131.74028300780432,134.4343271356089,208.8723238927611,211.91104209950765
0.4005340453938584,22.742589349734896,33.89874984771694,163.35149866960808,163.448890585335,131.40495263176402,134.4179485414007,208.95144620013264,212.09027292252347
0.4339118825100133,23.029541063578097,33.738337220133275,163.84512466665433,163.56240329862433,131.0340451113791,134.42457785009915,209.03490910290915,212.28165534218252
0.4672897196261682,23.30779972109381,33.57902225974341,164.33366639476662,163.7127425775104,130.63719618958356,134.45764458007068,209.1178682882468,212.4783251635894
0.5006675567423231,23.576648077674943,33.41496179411708,164.82651684222432,163.89176606837634,130.22404160931146,134.5205782496818,209.1954794433016,212.6734181918485
0.5340453938584779,23.83536888871438,33.240312650824016,165.3330689973068,164.09133141760532,129.80421711349686,134.61680837729895,209.2628982552297,212.86007023206432
0.5674232309746329,24.0832449096052,33.04923165743428,165.86271584829478,164.3032962715818,129.38735844507494,134.74976448128973,209.3152804111889,213.0314170893432
0.6008010680907877,24.425523249275013,32.90833637019643,166.79603249406526,164.54227679244264,128.93085003638916,134.8518914014538,209.4923420672629,213.21271328468148
0.6341789052069425,24.716556218492123,32.7111790230623,167.6683609944877,164.77063803281516,128.61368196862716,135.0542343612756,209.52344725677315,213.31798669498951
0.6675567423230975,24.99023027138174,32.49247102779988,168.44540974149936,164.9926990023391,128.4077558510039,135.29860385201602,209.4165772189513,213.46128714460832
0.7009345794392523,25.27709947095076,32.20354686366306,169.21128647159645,165.1899544425063,128.26645263691466,135.68343114165836,209.2305366819901,213.49353923471813
0.7343124165554072,25.54270313541729,31.79088837840037,169.9753811285723,165.28431521570613,128.21577940858566,136.1868415275704,208.9518777128456,213.3967604755848
0.7676902536715621,25.83381949979565,31.317864645154405,170.94633822695874,165.29906907388255,128.19017188813058,136.76569895417728,208.6325657593287,213.18357973993253
0.8010680907877169,26.119251585785147,30.73404693730531,172.06497032984618,165.12341087990737,128.26346459221105,137.41679649031684,208.230933357578,212.89980869168923
0.8344459279038718,26.30063839021833,30.00168961782429,173.10826159193462,164.79314674533146,128.42360877073057,138.19318575508467,207.7582730116328,212.50655300229585
0.8678237650200267,26.36253532429212,29.218171359607787,174.1966935495221,164.54632342861842,128.6656104593081,139.04091733129928,207.229982587704,212.02268033616843
0.9012016021361816,26.34377042637756,28.327278675231803,175.40314211321734,164.27795712842834,129.03906425475552,139.9814617915067,206.6200538356202,211.4153978939836
0.9345794392523364,26.210043897061173,27.292985937827435,176.6007270489091,163.9214703866207,129.4742966590501,140.94697079524332,205.9741081765616,210.74916189138463
0.9679572763684912,25.920067375046155,26.086880858080946,177.69011602150508,163.35092164665895,129.9336746342984,141.9051872341911,205.33013388458647,210.0320698220005
1.0013351134846462,25.57758100364213,24.734819925193097,178.84911445138667,162.60149775243258,130.37277127496256,142.84190347279184,204.69407160894764,209.2518341201765
1.034712950600801,24.98572028741039,23.27788301063607,180.37952881610843,161.7712778045792,130.7923534943549,143.7573858517016,204.0474279935443,208.4016848674632
1.068090787716956,24.18835053494313,21.649704323360748,184.9449294794119,161.17461017216905,131.20461438946344,144.65119979959164,203.3781803258573,207.4931253036873
1.1014686248331107,23.17720153729396,19.84497732516342,188.0754099648675,160.93080499763155,131.58893338029935,145.49284574260523,202.69675434034068,206.555972328259
1.1348464619492658,21.98463096754366,17.96819816575078,191.5810928661027,160.76565488012153,131.92835431252774,146.2785301129307,202.0363370579657,205.62114502491409
1.1682242990654206,20.44955604993884,15.736501331457102,191.11201920083565,159.8704814417527,132.240895816665,147.0212763767447,201.41154523241235,204.67172336794897
1.2016021361815754,18.80238350881096,13.399497430276938,190.19447177890368,159.2128853321476,132.4997914953565,147.7485796726577,200.8347566872544,203.7057453991757
1.2349799732977302,17.047717930814954,11.29346594099085,188.76777551581372,157.46933620457773,132.7358309235181,148.42895190834787,200.30657416430083,202.7336073299614
1.268357810413885,15.3491965471082,9.619053268582848,187.20184053632235,158.32077670859022,132.9301884494959,149.0383751562208,199.83531519457475,201.77234526559184
1.30173564753004,13.863393959440632,8.281674175948142,185.63280835877944,160.06865952505407,133.04680380426336,149.63746486557557,199.4432350930697,200.8424944446716
1.335113484646195,12.420756762727954,7.184306905890279,183.56736319906105,161.02700267464405,133.12837661201638,150.17871092815895,199.1298918441223,199.949255326528
1.3684913217623498,11.127781502169594,6.319368880718544,181.11171955412888,161.85600782605127,133.0984368737268,150.5989881337935,198.95872814729657,199.14026377893867
1.4018691588785046,10.120097104997058,5.870223713516719,178.37530144673477,162.84824189050292,132.96601105974804,150.91634363400627,198.91580568774063,198.42375336499217
1.4352469959946594,9.421350990565934,5.870223713516719,175.36642947283548,163.6636321161456,132.72601931243844,151.1200959783271,199.0054205753184,197.77904226088103
1.4686248331108145,8.434979340270312,5.870223713516719,171.58735210976843,164.18227522942192,132.37794927497782,151.21049085062137,199.2354761980208,197.22374096270715
1.502002670226969,-1.442696336914952,5.870223713516719,167.43317135507806,164.4219793853159,131.925274988554,151.18563774366072,199.6035140716965,196.779580237284
1.535380507343124,-1.442696336914952,5.870223713516719,163.30100442647827,163.95354886426898,131.3409129777038,151.04450482544533,200.1081483579416,196.466096591792
1.568758344459279,-7.694471897812188,5.870223713516719,159.19987203914096,162.75690689630372,130.63827948093876,150.82064165221712,200.7438430099752,196.27690043985345
1.6021361815754338,-10.559047586796826,5.870223713516719,155.329657494988,160.9903556340522,129.80742372717376,150.4771303228687,201.50421077793968,196.2106741581676
1.6355140186915886,-10.423875291482991,5.870223713516719,151.75006263991796,158.88959787863288,128.8788797440191,150.0579589158593,202.4005144498896,196.2365311069116
1.6688918558077437,-7.604698654423303,5.870223713516719,148.6163814669696,156.33021785913743,127.97718737276666,149.57510445810948,203.34651468331225,196.37068539462132
1.7022696929238983,-2.434617938083548,5.870223713516719,145.79151349265868,153.38636997295876,127.17004319267916,149.1344135355613,204.2288298406767,196.4618345886688
1.7356475300400531,4.883688299050793,5.870223713516719,143.15970755814348,149.8596286665971,126.56971627102656,148.75197183939466,204.96771803418247,196.59029537236665
1.7690253671562082,4.883688299050793,5.870223713516719,140.80020264749368,145.94731766551408,126.03243176132564,148.3603064244575,205.55153882849163,196.7807003648333
1.802403204272363,4.883688299050793,5.870223713516719,138.96523328185071,141.73680120789498,125.49485177401218,147.95114004245136,206.1347558763176,197.03353210634955
1.835781041388518,4.883688299050793,5.870223713516719,137.5335286237595,137.25599441215385,124.95945847358152,147.5973844202696,206.73100768773705,197.2162111272968
1.8691588785046729,4.883688299050793,5.870223713516719,136.64087702223785,132.56469482019088,124.4891405261422,147.26005300221715,207.27578310321007,197.3899155379773
1.902536715620828,4.883688299050793,5.870223713516719,136.28737594459056,127.64232353700072,124.05800968971356,146.951506094522,207.81605345039875,197.557575746874
1.9359145527369823,4.883688299050793,5.870223713516719,136.3910256815423,122.61003291606102,123.74289887597364,146.6963482863152,208.30082533233897,197.71231499605665
1.9692923898531367,4.883688299050793,5.870223713516719,136.7616129129274,117.67353001309812,123.48665612960389,146.5015161329148,208.75558432271364,197.8270624942239
2.0026702269692924,4.883688299050793,5.870223713516719,137.7016861794047,112.8854232018019,123.28627149766471,146.28108106689191,209.15916462756687,197.9502030827076
2.036048064085448,4.883688299050793,5.870223713516719,139.19046648492622,108.045294639172,123.13678998785116,146.0602438747693,209.5091778773856,198.08192351213225
2.069425901201602,4.883688299050793,5.870223713516719,141.1970508329964,103.3452302202012,122.96125525876522,145.8218393282789,209.8336083122683,198.24042144639432
2.102803738317757,4.883688299050793,5.870223713516719,143.97160250305257,98.85936569624728,122.81308824549896,145.61238972692237,210.10782796495005,198.3545168169769
2.136181575433912,4.883688299050793,5.870223713516719,147.68912800493817,94.87774129010296,122.69693921671526,145.4423336852079,210.29899197689667,198.4163787033294
2.1695594125500666,4.883688299050793,5.870223713516719,152.12210695933902,91.4800009606092,122.5985534824609,145.3034527746747,210.43585815894284,198.4461061341592
2.2029372496662214,4.883688299050793,5.870223713516719,156.83811327710387,88.7022178072857,122.51495443924058,145.1854953476898,210.53224748278785,198.46315859189468
2.236315086782376,4.883688299050793,5.870223713516719,157.97686254299575,86.20086720949537,122.44037143367726,145.08165882389127,210.6038269148425,198.47603120490683
2.2696929238985315,4.883688299050793,5.870223713516719,159.04127119414258,83.82369407273332,122.3682550564434,144.9946277375368,210.6678068542329,198.48053915307244
2.3030707610146863,4.883688299050793,5.870223713516719,157.869166026433,81.74243289982076,122.3168942043948,144.93435304476668,210.72607941103385,198.44753967930603
2.336448598130841,4.883688299050793,5.870223713516719,159.19434321386217,80.93417599976303,122.28297537357456,144.8949318431216,210.77117693978715,198.39184304612235
2.369826435246996,4.883688299050793,5.870223713516719,160.36460929447486,80.71159035503061,122.28885264905476,144.8530598206112,210.7931744121505,198.3247012387115
2.403204272363151,4.883688299050793,5.870223713516719,161.4756832079399,82.81475074451431,122.28627168132262,144.79323739292244,210.8230003105986,198.25815429055257
2.4365821094793056,4.883688299050793,5.870223713516719,162.1932274014417,83.33566929509607,122.29750529112457,144.7288920181417,210.8592885598444,198.19698323506955
2.4699599465954605,4.883688299050793,5.870223713516719,162.45793878863455,83.03982120516665,122.32905776064317,144.65086245864472,210.888618193438,198.144982003156
2.503337783711616,4.883688299050793,5.870223713516719,162.4434885431657,83.46300287969633,122.32787748640368,144.560424387862,210.9369101330192,198.1003306426338
2.53671562082777,4.883688299050793,5.870223713516719,162.10291085643192,84.05308328114518,122.32524871139582,144.47603483993623,210.9888982648415,198.06049261351225
2.570093457943925,4.883688299050793,5.870223713516719,161.37577782697494,84.26673988547367,122.30806493978898,144.39988124402151,211.04635848540147,198.0214499710666
2.60347129506008,4.883688299050793,5.870223713516719,160.25818956337818,84.22140094142627,122.28400249609452,144.3354610012462,211.1041253552806,197.98310856209991
2.636849132176235,4.883688299050793,5.870223713516719,159.51673504067938,84.00080402630569,122.25663620679506,144.2823403550086,211.1599499323064,197.95035610353943
2.67022696929239,14.323915003713063,5.870223713516719,159.1201590586261,83.31515764031415,122.21129924419844,144.2325680130528,211.2188848033549,197.92475629066664
2.7036048064085447,25.579192207635625,5.870223713516719,158.72877018678142,82.61127557514652,122.1637930522932,144.19125029052697,211.27480962201773,197.8950901844383
2.7369826435247,38.31644342315973,5.870223713516719,158.36725846947343,81.95717237633882,122.11147843523952,144.1490616071377,211.3216561607407,197.86141482021063
2.7703604806408544,52.44132914027482,5.870223713516719,158.00240930571488,81.3324974734661,122.07865535932105,144.1499207216383,211.3889638441481,197.83733139017383
2.803738317757009,67.62772298365357,5.870223713516719,157.60127988333346,80.61507634767183,122.05480800201718,144.14329136999478,211.47310719694352,197.8369966173924
2.837116154873164,83.62651456225979,5.870223713516719,157.08310787198775,79.81869830741469,122.01607687946118,144.12096303222802,211.5599252312669,197.8635978963197
2.870493991989319,100.04504977232196,5.870223713516719,156.45765869007562,78.89924772994921,121.96883700913229,144.0858500296071,211.64789644762627,197.92296926619795
2.9038718291054737,116.89441025857366,5.870223713516719,155.83841304423078,78.0581122923127,121.87440056068212,144.01068008312032,211.7668456585405,198.00968192258705
2.937249666221629,134.03846743608986,5.870223713516719,155.25287673338656,77.30651324282101,121.77584821404436,143.94944566428052,211.89302993540747,198.07895028899463
2.970627503337784,151.15885241963866,5.870223713516719,154.63150088074582,76.57731583466852,121.65138877009326,143.89637567873945,212.045707965779,198.14725590678955
3.004005340453938,168.05633597963518,5.870223713516719,154.1318461461021,75.7204243570518,121.50158602939231,143.88985487375078,212.2321815405041,198.1720410940522
3.037383177570093,184.4213224672651,5.870223713516719,153.62218954642924,74.96523697987404,121.33967779510924,143.8958658912416,212.4495363456508,198.17440983817104
3.0707610146862483,200.10705591901024,5.870223713516719,153.1260507638044,74.4517300845014,121.15410325045048,143.90807868271048,212.68172779691932,198.14741207100792
3.104138851802403,214.8765731129788,5.870223713516719,152.4052141923257,73.94369569204511,120.9661697458136,143.93597780180622,212.9148517615104,198.1090815697616
3.137516688918558,228.74553344254747,5.870223713516719,151.75561896390133,73.4392362526644,120.7233945728394,143.9612932357898,213.1711067993212,198.06522581009952
3.170894526034713,241.5514071720704,5.870223713516719,151.27518836202367,72.77895866720232,120.41358512691863,143.99787009889306,213.47648641076165,198.02948549797907
3.204272363150868,253.1945819546393,5.870223713516719,150.8616372634066,71.99738056870852,120.01280115035672,144.0330083879555,213.809446138109,197.99595423456063
3.2376502002670224,263.42858922920783,5.870223713516719,150.5657535081749,70.9801377222442,119.56675102738204,144.04664559938485,214.16149152603973,197.9632037880693
3.2710280373831773,272.32261530373626,5.870223713516719,150.59758210862142,70.40039059577236,119.06757008370724,144.03941576344107,214.5593676702844,197.9048915064793
3.3044058744993325,279.6320479816,5.870223713516719,150.7485200685285,66.26441206030273,118.5377572299029,143.93790583403754,214.97746727770388,197.92631874109543
3.337783711615488,285.27456371399205,5.870223713516719,149.96667457782704,68.4765056564902,117.84799185072632,143.83799196997916,215.4614035388228,197.88338220731424
3.371161548731642,288.9604947140655,5.870223713516719,152.1030210422049,70.15812304984475,117.2482646900765,143.70414853696948,215.89081879334083,197.8655901096785
3.404539385847797,290.4321793267678,5.870223713516719,155.38587598546516,68.87890117628716,116.6579043861585,143.5087666451862,216.2809705265628,197.9691332894596
3.437917222963952,289.9676257096003,5.90072564324772,156.65713837572463,67.97355869174554,116.16502268284444,143.28384495485207,216.65970550073413,198.1347982182524
3.4712950600801067,287.2746034336634,6.387112602408235,152.13301925018584,66.87166484620893,115.752199857604,142.99396231655678,217.0018890202395,198.38622461772115
3.504672897196261,282.09117049777825,7.248694240957564,148.69269603933807,66.05327817400227,115.39791339363376,142.68140275172766,217.2457249279936,198.67402984421827
3.5380507343124163,274.23658130111426,8.390042070036854,146.00987764632995,65.00689415550697,115.10537271847656,142.28382126701962,217.37900147902133,199.0647426101879
3.571428571428571,264.2997187512205,9.702862843694238,149.79499752760984,63.79187559525349,114.86005599092876,141.92430408587694,217.4480540960357,199.4515508915753
3.604806408544726,263.938406729754,11.28363527432158,146.75497439983678,61.59088268455616,114.50959886206134,141.62985747159564,217.45864789698763,199.94945140368992
3.638184245660881,263.6606252243644,13.291809116607071,147.84740195576634,60.6808457447259,114.18322646619907,141.2779286480203,217.43508335225715,200.58967180961287
3.671562082777036,263.4087167657034,15.602283912751226,148.87184444298637,60.838878755286345,114.0388986012658,140.92881375156725,217.2254115877324,201.3335002232182
3.704939919893191,263.16850644004853,18.219350995487584,150.11123849575972,61.68210239505168,114.05828999228852,140.5678655295471,216.84294998776704,202.11745689195388
3.7383177570093458,263.0019721222344,20.85773481189402,151.5993528023289,62.70856662547917,114.1889452761382,140.10349505300192,216.3244284037588,203.01131975441763
3.7716955941255006,262.9077527896129,23.58566329492826,153.2434731659182,64.14796911522335,114.38891896893138,139.4461826811746,215.68566418454995,204.0700252789083
3.805073431241656,263.09557469793793,26.44176439149417,154.95384172356088,65.92842813435509,114.73535991052438,138.731666154853,214.93242503898395,205.19399711274
3.83845126835781,263.2952868654181,21.07635565215889,156.59297631220142,68.1127500988353,115.23169043560172,137.97298938951238,214.0429859507712,206.38992457504813
3.871829105473965,263.5501947425812,18.402248554109256,158.11022026740469,70.90576513395966,115.85480543075816,137.28260859034344,213.06083559197504,207.5907718761391
3.90520694259012,263.9849693656684,18.36794085274719,159.58579805230897,74.20305370859884,116.58311470708504,136.65177694231178,212.04039502451025,208.76764561860523
3.9385847797062734,264.41080529176,20.584499502391544,161.5248085878048,77.8339932186723,117.47630251915837,136.11492404413133,210.89668330635385,209.8911974378505
