Time,Left Shoulder Angle,Right Shoulder Angle,Left Elbow Angle,Right Elbow Angle,Left Hip Angle,Right Hip Angle,Left Knee Angle,Right Knee Angle
0.0,24.24990966563061,28.70894663104244,157.3343111942164,161.17976861916634,127.9358238247534,122.46288594247252,202.8399307436921,207.3065721661428
0.0333667000333667,24.43590145945312,28.875589106945483,157.70905832492238,161.4286182500203,127.8948778284944,122.44674583269936,202.76137626537408,207.29452643427803
0.0667334000667334,24.61705628484899,29.05145419273424,158.09424817757667,161.69910212569957,127.85518794196228,122.42316487324734,202.70109103145893,207.2993444953777
0.1001001001001001,24.79412960072455,29.233303576498127,158.49029843891864,161.98678204888262,127.8163191433592,122.39389296109978,202.658157454404,207.3195872987291
0.1334668001334668,24.967876865986103,29.417898946326588,158.89762679568753,162.28721982224786,127.77783641088728,122.36067999324,202.6316579466667,207.35381579361973
0.1668335001668335,25.139053539539955,29.60200199030906,159.31665093462263,162.59597724847373,127.7393047227486,122.32527586665137,202.6206749207044,207.40059092933708
0.2002002002002002,25.308415080292423,29.782374396534973,159.74778854246327,162.90861613023867,127.70028905714534,122.28943047831712,202.6242907889745,207.4584736551686
0.2335669002335669,25.476716947149807,29.955777853093764,160.19145730594872,163.22069827022108,127.66035439227956,122.2548937252207,202.6415879639343,207.5260249204017
0.2669336002669336,25.644714599018425,30.118974048074868,160.6480749118183,163.5277854710994,127.61906570635344,122.22341550434535,202.6716488580413,207.601805674324
0.3003003003003003,25.813163494804577,30.268724669567725,161.11805904681125,163.82543953555208,127.57598797756908,122.19674571267444,202.7135558837528,207.6843768662228
0.333667000333667,25.98281909341458,30.401791405661765,161.60182739766688,164.10922226625755,127.53068618412856,122.17663424719127,202.76639145352613,207.77229944538567
0.3670337003670337,26.15443685375473,30.514935944446425,162.09979765112453,164.3746954658942,127.48272530423408,122.1648310048792,202.82923797981888,207.86413436110004
0.4004004004004004,26.32877223473136,30.60491997401114,162.61238749392345,164.6174209371405,127.4316703160877,122.16308588272152,202.9011778750882,207.95844256265332
0.4337671004337671,26.506580695250754,30.668505182445344,163.14001461280293,164.83296048267488,127.37708619789156,122.1731487777016,202.9812935517916,208.05378499933312
0.4671338004671338,26.688617694219232,30.70245325783848,163.68309669450227,165.01687590517574,127.3185379278478,122.19676958680272,203.0686674223864,208.1487226204268
0.5005005005005005,26.875638690543106,30.70352588827997,164.2420514257608,165.1647290073215,127.25559048415852,122.23569820700828,203.16238189933003,208.24181637522184
0.5338672005338673,27.06839914312868,30.668484761859258,164.81729649331774,165.27208159179065,127.18780884502584,122.29168453530151,203.26151939507983,208.33162721300573
0.5672339005672339,27.26765451088246,30.59409156666604,165.4092495839139,165.3344954612629,127.11475798865294,122.36647846866676,203.3651623220948,208.41671608306768
0.6006006006006006,27.49482277893228,30.38474575958175,166.11353940523415,165.24968952307972,127.0987488707134,122.50270834824224,203.4296349320515,208.461282636611
0.6339673006339673,27.80091228866077,30.118377397540776,166.75724923069097,165.08610101839702,127.09383787549449,122.6586373741348,203.43339835827592,208.4870588815577
0.6673340006673341,28.166833103509,29.804621989299743,167.52655403813478,164.85911363617387,127.02741195101618,122.82460247023803,203.4742687867431,208.5068325537116
0.7007007007007008,28.56212335560696,29.4545267794439,168.36389691867592,164.54171541812366,126.89684442867365,123.02322177475318,203.57743210623275,208.5333890846464
0.7340674007340674,28.93973221117636,29.065817591002613,169.17623834889156,164.23137499812577,126.73241168521132,123.243034866935,203.7188085454719,208.5740448414737
0.7674341007674341,29.300580685885457,28.654510309256004,169.95581137599115,163.8274289330379,126.50205076078768,123.48297000591808,203.9094978022968,208.6082316072997
0.8008008008008008,29.6323047375938,28.17924643822957,170.74693488372776,163.27244944704856,126.22122582517189,123.71038024153056,204.1418479201022,208.69306876025425
0.8341675008341676,29.934216371522744,27.80424282457068,171.2497957955456,162.75966661445017,125.90876986496107,123.91834977378304,204.4078676267908,208.80949984400783
0.8675342008675342,30.230575386679195,27.404194818036192,171.7399710046513,162.3090135383978,125.60381188497642,124.14421268933346,204.6622361164288,208.9405911943608
0.9009009009009008,30.48263666368892,26.92916380569233,172.23883136239408,161.86874965565843,125.33183876853045,124.38558785723204,204.89026437974067,209.0834702643805
0.9342676009342676,30.692851210337835,26.353765187451984,172.70646015486676,161.41945477910025,125.09804341116066,124.66273537001332,205.04785545361648,209.17940652983373
0.9676343009676344,30.85978954208192,25.72244575044257,173.08560636708302,160.97751042680727,124.94505807510386,125.00970653850864,205.14287599989547,209.18960646566887
1.001001001001001,31.068554409577448,25.10884472501925,173.73090705053193,160.51772996130387,124.88796770796118,125.44758844256278,205.13729556192945,209.1112679991236
1.0343677010343677,31.282851343113165,24.49059071209033,174.33536364859182,160.14719563287323,124.86702796702174,125.94305380552036,205.1317259496605,208.97507826252024
1.0677344010677343,31.51620306626577,23.7850302459054,175.54001767159087,159.71475670154817,124.85544806915053,126.5049448238045,205.1774164377142,208.7572191248147
1.1011011011011012,31.50429709546715,22.904386880305967,176.35602873220498,159.18394392706082,124.87683536859484,127.13100597849206,205.28890316812257,208.45115382197488
1.1344678011344678,31.274395874341536,21.897630117346058,176.958836896709,158.60036850458263,124.94186871719756,127.79835893471154,205.38779019397387,208.0925072376648
1.1678345011678346,30.9191161465068,20.841498993938306,178.05605533551622,157.6343706569147,125.0564537577842,128.51695003824264,205.4299138126758,207.6557324004277
1.2012012012012012,30.294183964631188,19.75354512760036,179.50458908376172,156.55772773042858,125.22445254501277,129.28776334497647,205.41190097593525,207.14617061808823
1.234567901234568,29.269496933442205,18.624253210627945,180.703217024972,157.1416547325053,125.43124265683493,130.1164971572987,205.3093051266684,206.5945020148085
1.267934601267935,27.889055225592124,17.424426360426292,182.47232363846624,157.61988830150432,125.62825903360734,130.95328938706257,205.14296573805973,206.03337206790889
1.3013013013013013,26.31439873964104,16.108268692993956,186.2440692432289,157.42680671357957,125.78674331271525,131.76992760364,204.96427289988864,205.46749573385472
1.334668001334668,24.640045251613422,14.887856499204318,189.423091215468,156.78335072282889,125.9536437314744,132.58796439189382,204.7800651409576,204.85085725485612
1.3680347013680347,23.021026047418303,13.66583671940623,192.4432909740552,155.42881936055505,126.113224577417,133.3959025765392,204.61687473449624,204.1864403074461
1.4014014014014016,21.559561625839088,12.295147835151218,195.21040538821512,153.63812429097302,126.17256576442598,134.18627845744564,204.51815374132192,203.5248012297471
1.4347681014347682,19.919440614797608,10.901495909801676,196.88126186858463,151.3594236998295,126.15549523669976,134.94838390958114,204.470483541701,202.8615241172629
1.4681348014681348,18.28689519141508,9.349993503401526,197.9150795001186,148.56778466372376,126.11466772173333,135.6885307509596,204.4745481105213,202.1638455114483
1.5015015015015016,16.856425438209055,7.846137897486586,198.48708192064544,145.80884271285348,126.0493928059314,136.3975033567831,204.55531042718988,201.42627278857628
1.5348682015348682,15.233684431799963,6.447922315794293,198.02142779407748,142.95635150127134,126.02708303547784,137.10985856091858,204.67916296572275,200.6435489325132
1.5682349015682349,13.446248787117485,5.222963916730064,196.56465146227256,139.68510484238865,126.0192510429612,137.8121924967719,204.85848663408976,199.85057036051867
1.6016016016016017,2.3789000501929967,4.154078816023613,194.48252336123025,136.4069034538945,126.05077334519264,138.51566206525203,205.08073288604763,199.0671274809848
1.6349683016349683,2.3789000501929967,3.2584288171507536,192.0862221013093,132.5781498788971,126.07186964376268,139.1913229662697,205.3694885651657,198.29455645399548
1.6683350016683351,2.3789000501929967,3.2584288171507536,189.43553661391763,128.36028612719542,126.11423683352275,139.8354332627926,205.7033804320432,197.52631215049328
1.7017017017017018,2.3789000501929967,3.2584288171507536,186.1729664100845,123.28655689672496,126.16196573447424,140.43888939777503,206.0784104304149,196.77349896831825
1.7350684017350684,2.3789000501929967,3.2584288171507536,182.64877793089724,117.93777331452203,126.19627778619206,141.002778457134,206.5044912825908,196.06237591983947
1.7684351017684352,2.3789000501929967,3.2584288171507536,179.0917148033664,112.41586171097111,126.16411529800476,141.49797407297734,207.0361555959105,195.40863764525272
1.8018018018018016,2.3789000501929967,3.2584288171507536,175.24844006682503,106.27679187665034,126.06930726901722,141.93621514971898,207.70288063259684,194.82525870161228
1.8351685018351689,2.3789000501929967,3.2584288171507536,171.25660204094078,100.14324634430685,125.9355304129155,142.3059186459347,208.4361710526289,194.330873969708
1.8685352018685355,2.3789000501929967,3.2584288171507536,167.34029868053088,94.1831708245936,125.8102879646088,142.5921699048813,209.18726534523373,193.91875608698405
1.901901901901902,2.3789000501929967,3.2584288171507536,163.52227232850052,88.3399683151659,125.69840322312066,142.79285859498523,209.95021001142229,193.5733975490621
1.9352686019352687,2.3789000501929967,3.2584288171507536,159.76613596097528,82.95847498579452,125.64796474290644,142.9142827777454,210.69159970947405,193.31515865148936
1.968635301968636,2.3789000501929967,3.2584288171507536,156.0695941547177,78.12950823974082,125.66328487589467,143.00907828965074,211.3859470430349,193.07667596029373
2.002002002002002,2.3789000501929967,3.2584288171507536,152.77634664065323,73.79876566761838,125.74448270928497,143.09972814316387,211.99993458904183,192.848093361816
2.035368702035369,2.3789000501929967,3.2584288171507536,149.97428296616664,70.00355531489365,125.91686241534435,143.18478915811752,212.5507631731234,192.60477015076472
2.0687354020687354,2.3789000501929967,3.2584288171507536,147.67965996665524,66.83393115930252,126.13502735456076,143.30677664793313,213.03219776433247,192.31659999030887
2.1021021021021022,2.3789000501929967,3.2584288171507536,145.8598488639853,64.26933401354734,126.43433399121666,143.4726998910878,213.4943481479728,192.0143302952312
2.135468802135469,2.3789000501929967,3.2584288171507536,144.64800078049532,62.32145259847072,126.78317623137652,143.66226019653,213.95239876123503,191.7303604556288
2.1688355021688355,2.3789000501929967,3.2584288171507536,143.70558797692752,61.02524565908464,127.13585820557294,143.84615255580715,214.46056597189764,191.47598307489605
2.2022022022022023,2.3789000501929967,3.2584288171507536,143.4446481495633,60.32123382629632,127.52488595237404,144.04529015822115,214.94454216056732,191.22221048832628
2.235568902235569,2.3789000501929967,3.2584288171507536,143.2065579303192,60.20787682244617,127.97653124079748,144.2434368782292,215.32759933749657,190.99450666150565
2.2689356022689355,2.3789000501929967,3.2584288171507536,144.00928961674143,60.79416895218806,128.45050119833152,144.4248035772413,215.5624635555157,190.8139890914053
2.3023023023023024,2.3789000501929967,3.2584288171507536,146.03975041217666,62.06485377154039,128.92773857477178,144.61505724286278,215.69321269663536,190.64806750829973
2.335669002335669,2.3789000501929967,3.2584288171507536,148.6608126666603,64.40887254501443,129.37641866357484,144.8007531413117,215.75897351832805,190.5252716727348
2.369035702369036,2.3789000501929967,3.2584288171507536,151.87647311455976,67.66186718096483,129.76486889687808,144.97839971601252,215.7576126074037,190.4569627607148
2.4024024024024024,2.3789000501929967,3.2584288171507536,156.24829926419457,69.62781772186891,130.0804599888545,145.13164791781472,215.7634384650025,190.3920561822496
2.4357691024357693,2.3789000501929967,3.2584288171507536,160.9493404527489,71.35185484448037,130.37065862925868,145.31059667557588,215.78214129717057,190.28174255004888
2.469135802469136,2.3789000501929967,3.2584288171507536,163.69665995874928,73.19825645418754,130.64277619838177,145.53292260370452,215.8124779713533,190.1093302198992
2.5025025025025025,2.3789000501929967,3.2584288171507536,166.46705657576095,75.06773640879933,130.84704483176793,145.75232026394644,215.89147060927507,189.9405909201049
2.5358692025358693,2.3789000501929967,3.2584288171507536,168.60522319588796,77.20346026754186,130.97101035871538,145.9976402093827,216.07333645560985,189.73048626668933
2.569235902569236,2.3789000501929967,3.2584288171507536,169.9133784236238,79.47185697311323,131.0623175754865,146.22762807847607,216.27176081758984,189.5276955820204
2.6026026026026026,2.3789000501929967,3.2584288171507536,171.27041734480662,81.99609748327161,131.1614691493158,146.44002741341745,216.4791886471113,189.3475442716607
2.6359693026359694,2.3789000501929967,3.2584288171507536,172.19273260617285,84.71609169304021,131.28449669654185,146.657887376902,216.63013279126568,189.1419956886676
2.669336002669336,2.3789000501929967,3.2584288171507536,172.50327003878596,87.07210747318624,131.4859416874907,146.86304531739253,216.7619919119448,188.9815051875549
2.702702702702702,2.3789000501929967,3.2584288171507536,172.96957805115687,89.03262634888408,131.6796969446376,147.0083002355166,216.8938011005046,188.93522609530729
2.736069402736069,2.3789000501929967,3.2584288171507536,173.50354594386678,90.7447232950518,131.71819440446322,147.15781799141124,217.0868434329797,188.92225716588737
2.7694361027694363,2.3789000501929967,3.2584288171507536,174.0496703375998,91.61777701593653,131.67113645773034,147.1722742817878,217.3021296895357,189.07409576446548
2.802802802802803,2.3789000501929967,3.2584288171507536,174.95322792776207,92.06102908705292,131.4255320904115,147.0536512151537,217.54512689247755,189.44434433833047
2.836169502836169,2.3789000501929967,3.2584288171507536,174.62611682094374,92.18301644700044,131.27135437133143,146.770787836936,217.85983236353965,190.0324459949106
2.8695362028695364,2.3789000501929967,3.2584288171507536,174.40238493068452,92.44211222315504,131.06479684547682,146.30177765304654,218.1941872935301,190.9015340833193
2.902902902902903,2.3789000501929967,3.2584288171507536,174.35224178097187,92.16632400890173,130.7702562180981,145.66856637986433,218.508368703404,192.0226175180676
2.9362696029362696,2.3789000501929967,3.2584288171507536,174.38940811118613,90.44326102037384,130.3640336444615,144.8665847773455,218.75781098199823,193.28458680048183
2.9696363029696364,2.3789000501929967,3.2584288171507536,174.49575767969932,90.29283287424228,129.80421769221795,143.8789633355426,218.95542017214103,194.6906758965237
3.003003003003004,-5.1113566640308425,3.2584288171507536,172.92712785708977,89.48987533342833,129.12660233695132,142.737446934934,219.1222561956392,196.2361717515091
3.0363697030363697,-9.325538720050549,3.2584288171507536,169.677980383143,88.33492230350426,128.39422172762232,141.4727106322137,219.2411910734464,197.92606908713023
3.0697364030697365,-10.132286948855254,3.2584288171507536,167.05545191896218,86.81853427798123,127.65734251121428,140.1340224107871,219.304613238588,199.73921403608435
3.103103103103104,-7.99501250259915,3.2584288171507536,164.1417879929123,84.77922096974467,126.84496784020124,138.75643763191724,219.420727579724,201.6474468889465
3.1364698031364697,-3.2254756296661764,3.2584288171507536,161.40480004565984,81.9765733787437,126.01866314802096,137.33052628666772,219.4929858816215,203.64900051962343
3.169836503169837,3.9393208161096354,3.2584288171507536,161.2462238899927,79.38184592009345,125.1435951374823,135.8703508923532,219.54673168603475,205.74180892631287
3.2032032032032034,3.9393208161096354,3.2584288171507536,162.03046003988007,77.15742228144734,124.2097164055504,134.40457854192638,219.5414413818735,207.8935800212264
3.2365699032365702,3.9393208161096354,3.2584288171507536,162.94687703106354,75.49023167210686,123.12964487365916,132.8291839563693,219.49919684581616,210.1953184679212
3.2699366032699366,3.9393208161096354,3.2584288171507536,163.7794589540683,74.35380163019961,122.1062284673864,131.28214404385696,219.41623920992785,212.4835403224792
3.3033033033033035,13.170539046793143,3.2584288171507536,164.56740350209856,73.55830665374611,121.10961561191266,129.69495167937882,219.35461260284603,214.79857727497816
3.3366700033366703,24.217070460537293,3.2584288171507536,165.28123938624051,72.79121001823437,120.29326075474084,127.94729098045384,219.1318978747508,217.1487306759736
3.3700367033700367,36.83016441258604,3.2584288171507536,166.7624012460327,72.68098615911704,119.71442991488794,126.29632660198692,218.67699786658136,219.37164428193924
3.4034034034034035,50.86659388273896,3.2584288171507536,168.70930605897138,73.14563298852033,119.33022437980274,124.79987405304352,217.88531332218105,221.42282345492933
3.4367701034367704,66.11372531990963,3.2584288171507536,170.88000451829674,74.09307296257977,118.98696186794064,123.5021437920024,217.07234860149848,223.19832381734625
3.4701368034701368,82.31228212452898,3.2584288171507536,172.71352709866383,75.6985104155355,118.9185618768462,122.5142649915775,215.85420241052367,224.55710491886825
3.503503503503504,99.10183470841964,3.2584288171507536,173.3250241859554,77.582424401892,119.1032532818642,121.81122267369302,214.24074780823844,225.49623810163047
3.5368702035368704,116.34068260881612,3.2584288171507536,174.09074285139454,80.09116564588797,119.62709946528572,121.43883214091166,212.2868724912832,225.98014098316324
3.5702369035702373,133.7569483764874,3.2584288171507536,174.596580273908,83.2000891201058,120.38335708672228,121.34537376066046,210.160192582555,226.0411888856858
3.603603603603604,151.21259827101437,3.2584288171507536,174.48183429352702,86.71962918174754,121.34451179640148,121.5923664572776,207.93432678917,225.5945664420992
3.6369703036369705,168.43525960056616,3.2584288171507536,174.1268804809842,90.76129090106132,122.4194426972986,122.1323047116798,205.6592486565404,224.63810577589425
3.670337003670337,185.08506920847813,3.2584288171507536,173.55641516536696,95.39766998939982,123.5549508562232,122.94622953710356,203.3872392019835,223.1840182837477
3.703703703703704,200.82185911279203,3.2584288171507536,172.6166854978035,100.72926856699272,124.76350421203696,123.96481700199568,201.0769018363948,221.36384747756767
3.737070403737071,215.667790204489,3.2584288171507536,171.7130510828392,106.23505566818604,126.0382586174351,125.1834794013066,198.7550455913615,219.13971559221616
3.770437103770437,229.444659446936,3.2584288171507536,170.75473995720412,111.89224141202592,127.39907509744152,126.61806432507576,196.436013809145,216.55413651711163
3.803803803803804,241.90792917061,3.2584288171507536,169.7949748092235,118.08747536835348,128.79124012469697,128.23099779799134,194.22554783031,213.75003406553185
3.8371705038371706,253.0254677957821,3.2584288171507536,168.78336417204082,126.22667213033074,130.11771654154109,129.888307750903,192.1420336347477,210.78040800451063
3.8705372038705375,262.82901306078827,3.2584288171507536,168.7515702346426,134.05480814712465,131.32865572883287,131.5938218687269,190.2076054025573,207.6845976359305
3.903903903903904,271.2121707656058,3.2584288171507536,168.7325195006983,141.70221864328934,132.58624751769736,133.32772669594365,188.38623697375405,204.6517956903927
