Time,Left Shoulder Angle,Right Shoulder Angle,Left Elbow Angle,Right Elbow Angle,Left Hip Angle,Right Hip Angle,Left Knee Angle,Right Knee Angle
0.0,32.90032860439125,40.838869315917215,162.66206537750753,165.03419105570492,127.248785869388,123.56213149595516,213.52207662736583,216.60396928357304
0.0333667000333667,33.13365078049416,41.11764055834353,163.05934271985652,165.04868252949998,127.03433117658984,123.48000676071904,212.93837713832343,216.77442585027765
0.0667334000667334,33.33290040862838,41.38268877382054,163.4127147848394,165.1150249686795,126.85157055902536,123.3984314127001,212.40374020615704,216.9510253278701
0.1001001001001001,33.50026562056468,41.632807472991935,163.72578199311448,165.2283617655059,126.69859716803415,123.31807852069012,211.9157696648165,217.1328294188124
0.1334668001334668,33.637934548073815,41.86679016650138,164.00214476533995,165.38383631224136,126.57350415495596,123.23962115348088,211.4720693482518,217.31889982556652
0.1668335001668335,33.74809532292653,42.08343036499257,164.245403522174,165.5765920011483,126.4743846711304,123.16373237986411,211.0702430904128,217.50829825059472
0.2002002002002002,33.83293607689359,42.28152157910919,164.4591586842749,165.801772224489,126.39933186789712,123.0910852686317,210.70789472524936,217.7000863963589
0.2335669002335669,33.89464494174574,42.45985731949491,164.64701067230092,166.0545203745258,126.34643889659576,123.02235288857534,210.38262808671143,217.89332596532108
0.2669336002669336,33.93541004925373,42.61723109679341,164.81255990691022,166.32997984352102,126.31379890856604,122.95820830848686,210.09204700874892,218.0870786599434
0.3003003003003003,33.957419531188336,42.75243642164839,164.95940680876106,166.623294023737,126.29950505514758,122.89932459715804,209.8337553253118,218.28040618268784
0.333667000333667,33.9628615193203,42.86426680470351,165.09115179851167,166.92960630743602,126.30165048768004,122.8463748233806,209.6053568703499,218.4723702360165
0.3670337003670337,33.95392414542037,42.95151575660247,165.21139529682029,167.24406008688044,126.31832835750308,122.80003205594645,209.4044554778131,218.6620325223914
0.4004004004004004,33.932795541259324,43.01297678798894,165.32373772434514,167.5617987543326,126.34763181595636,122.76096936364723,209.2286549816513,218.8484547442746
0.4337671004337671,33.901663838607895,43.04744340950661,165.43177950174444,167.87796570205478,126.38765401437954,122.72985981527482,209.0755592158145,219.0306986041281
0.4671338004671338,33.862717169236845,43.05370913179915,165.53912104967645,168.18770432230932,126.43648810411226,122.70737647962098,208.94277201425257,219.20782580441403
0.5005005005005005,33.818143664916924,43.03056746551026,165.64936278879938,168.48615800735854,126.4922272364942,122.69419242547748,208.82789721091532,219.3788980475944
0.5338672005338673,33.7701314574189,42.976811921283605,165.76610513977147,168.76847014946478,126.552964562865,122.69098072163612,208.72853863975283,219.5429770361312
0.5672339005672339,33.72086867851378,42.891236009763226,165.8929485232523,169.02978414089165,126.61679323456544,122.69841443688964,208.64230013471663,219.69912447248828
0.6006006006006006,33.68379196274037,42.73454680106023,166.0557086029183,169.2606563588075,126.72150572263315,122.7589556776112,208.5228880026459,219.75764003048508
0.6339673006339673,33.66486785335939,42.52660136115461,166.25997869627594,169.4014248133966,126.80432365579692,122.82261097109048,208.37958353825448,219.8255754006825
0.6673340006673341,33.6658400375891,42.33907398231072,166.5050594477753,169.52576532385677,126.87208663057464,122.81755154420608,208.2786290687693,219.9727419478476
0.7007007007007008,33.68174297426336,42.09525551932621,166.82591926200988,169.58412382950357,126.9211383559403,122.80720525649502,208.1986942743768,220.17070837929128
0.7340674007340674,33.68340999999832,41.82430041784603,167.13824674946324,169.63504584469575,126.965910522418,122.77775376074086,208.1242305263625,220.410397542669
0.7674341007674341,33.68667369254478,41.49069234301979,167.45270637627138,169.61711100992363,126.99977958338276,122.79679136904691,208.05550868061312,220.61868101802852
0.8008008008008008,33.71710928009286,41.11800007242844,167.70501231730978,169.51851056912705,127.00653271529173,122.83903856551504,207.9803931395981,220.7845633995444
0.8341675008341676,33.75779578197998,40.72904583850176,167.9615137415578,169.37252219662432,126.97019556492724,122.9489709164018,207.89798857061496,220.89201624524
0.8675342008675342,33.8233783892632,40.42055580102043,168.2871144914633,169.25566870872012,126.9166804961722,123.09587889074857,207.81036365951405,220.95204326633493
0.9009009009009008,33.90040308258857,40.0559026779561,168.66942829052743,169.0447212972696,126.83656567149258,123.29843641924856,207.74626485688665,220.95212805757828
0.9342676009342676,34.04573892066686,39.7596846032975,169.18055097079406,168.94793907456625,126.65137021728331,123.52335646580843,207.7676580677809,220.92241924327425
0.9676343009676344,34.21397734861894,39.37994725716356,169.73586431923712,168.72902154037405,126.43889915337574,123.80315883608094,207.8269674269064,220.8244568530159
1.001001001001001,34.37613574285751,39.0271990623171,170.34425314054056,168.5647189812213,126.26254041886726,124.11808797293736,207.8895342511989,220.67409152985212
1.0343677010343677,34.505984544803695,38.54966028290895,170.9259987397764,168.1945352724083,126.09785420344744,124.47051023001606,207.95987305739823,220.48437566559028
1.0677344010677343,34.58035722651697,38.01166334482256,171.5978335641615,167.59070673062806,125.97634164661794,124.87827772125208,208.0018903547048,220.21552023387824
1.1011011011011012,34.6088298523736,37.351871962894975,172.20097725133428,166.80726704559078,125.85063153710348,125.34452340117647,208.06173125646532,219.9006970456892
1.1344678011344678,34.57631455383599,36.62592762920392,172.74669890912938,165.85818536134266,125.81233756275472,125.84170766514085,208.07854848963123,219.53436515878187
1.1678345011678346,34.53128645482383,35.789240636813965,173.16328533574443,164.7557139741112,125.76566724754716,126.36028946588006,208.1058412127934,219.15028319256385
1.2012012012012012,35.34756301701053,35.04228447832809,172.84211441531608,163.7400689764131,125.65520804178912,126.89362143314298,208.187214910216,218.74135532244887
1.234567901234568,36.0709306214429,34.19514209248424,172.69146873499275,162.6271853465244,125.48422699412232,127.45594937545276,208.3146475716063,218.31529820388803
1.267934601267935,36.443253180295976,33.32964246649929,172.3450112729072,161.32538141842716,125.29704030103638,128.02873997392442,208.4889250625133,217.8858470405232
1.3013013013013013,36.42382983399128,32.31402307515011,171.87101266327977,159.9296825040984,125.08080419787323,128.6171024085955,208.7036727170336,217.43036818017325
1.334668001334668,36.23699030407385,31.17037388697733,171.46207243921145,158.67227202236705,124.84020463941869,129.21452853831792,208.94107403739105,216.96280975259512
1.3680347013680347,35.83378463205442,29.872829011810936,172.06845889356373,157.37301314294936,124.56180379800126,129.82084770491505,209.20130696594927,216.4969053186485
1.4014014014014016,35.10673149407426,28.454607319612627,171.92192864673294,156.34235242343635,124.2323042982993,130.42309834053816,209.4706610799056,216.04446329880687
1.4347681014347682,34.22119801858984,26.947434426536866,172.24952999866633,155.0728681500958,123.87239217795764,131.01850608934117,209.75579737935567,215.60653707341496
1.4681348014681348,33.29828973597454,24.97603498372204,172.57861780737795,155.4122143751542,123.43267151931109,131.59935233485655,210.04238516857865,215.20220478569345
1.5015015015015016,32.06727240228206,22.958384741473107,173.4110210317568,155.23852901974317,122.97216948277446,132.1950459766339,210.35152937160103,214.809368766459
1.5348682015348682,30.55490102647074,21.035197535568805,174.54318613449033,154.2959265183571,122.48985105009012,132.7476462951051,210.6969373830348,214.48239358493265
1.5682349015682349,28.77852834117807,19.17419834473758,175.18828034246206,152.58818324241693,122.0166123238195,133.26159683582722,211.07115013496207,214.2125465056864
1.6016016016016017,26.750824513134525,17.666331347672163,177.06864314011167,150.45186688276888,121.5915426834582,133.75336412857916,211.4499155600512,213.9604766362988
1.6349683016349683,24.67531560317904,16.347418099910097,177.40510423347973,147.973331184966,121.19389254091676,134.22118629280288,211.85119175194328,213.7206434486078
1.6683350016683351,22.3365222995602,15.067179716549449,177.03125064366162,145.30005133226766,120.79869243915132,134.62551635383377,212.2829806084721,213.5507220311908
1.7017017017017018,20.2359738536788,13.723131725758964,176.34731467466835,142.13984559758612,120.3797202931201,134.98142848152614,212.73116756533028,213.4214084940656
1.7350684017350684,18.462386425024803,12.360227035287693,176.0761370357271,138.56095093844598,119.92571955157771,135.28151305671884,213.1632403350652,213.32728272711705
1.7684351017684352,16.911459242651325,11.036731064240794,175.5377750477409,134.7586232361303,119.49559640425684,135.55290360450644,213.6075223342916,213.27700881900168
1.8018018018018016,14.665373422802451,9.491046913008816,173.40272646133226,131.12187848250616,119.07909104959458,135.76444462049247,214.0392676837195,213.2836360612412
1.8351685018351689,12.71969793235363,8.155464362655112,170.93740418661707,127.18306556562004,118.69726338590644,135.9852991376427,214.45742700604384,213.2570059523731
1.8685352018685355,11.023736528626928,7.548919798166771,167.89621055307958,121.59763158227376,118.35689697025566,136.22157733629703,214.8937667219477,213.1672819396763
1.901901901901902,9.790275797791832,6.906276137236758,164.86006493426535,116.02378518280368,118.05589371153708,136.4709505456539,215.36471466614583,213.01733665877248
1.9352686019352687,8.819203795400167,5.278579230215618,161.8342338745045,112.36971970070032,117.86808562146103,136.68336888132515,215.833092823584,212.8293136561604
1.968635301968636,-0.5335966285958096,4.131232927821868,158.78219806223018,109.02537447826246,117.7779013132034,136.902665683889,216.32918806455507,212.6025070965228
2.002002002002002,-0.5335966285958096,3.360739155909307,156.1329573994314,107.04293819431632,117.7316192211798,137.11268574434348,216.85059902343625,212.3515646271273
2.035368702035369,-0.5335966285958096,3.099052810686964,153.6594660049552,104.0158414250529,117.70693173384517,137.33603202056565,217.40972343113475,212.0540788384362
2.0687354020687354,-0.5335966285958096,3.099052810686964,153.28326327521762,99.71598938853175,117.74775823749243,137.53402340493278,217.9719025048577,211.7224672879589
2.1021021021021022,-0.5335966285958096,3.099052810686964,152.1483173748915,96.31372135397262,117.91384403853212,137.75921140046935,218.45967937077444,211.31131517841405
2.135468802135469,-0.5335966285958096,3.099052810686964,150.47782830837969,91.87764898719078,118.17987719806692,137.99254312255252,218.88176404258164,210.85524494054388
2.1688355021688355,-0.5335966285958096,3.099052810686964,148.3905324994199,86.73695722855734,118.4751095716833,138.24408788201413,219.270197781736,210.34141492130465
2.2022022022022023,-0.5335966285958096,3.099052810686964,145.8119321654456,78.66269993009819,118.8132337169798,138.47036395156945,219.62364006211425,209.778304645518
2.235568902235569,-0.5335966285958096,3.099052810686964,142.72620731643613,71.46953392698181,119.1546333511933,138.66440002063703,219.97306868774783,209.210196337996
2.2689356022689355,-0.5335966285958096,3.099052810686964,138.44072061777825,65.56997094783144,119.55536511613184,138.8387277852858,220.28659659562052,208.6370359489065
2.3023023023023024,-0.5335966285958096,3.099052810686964,133.89470702595003,60.695657735359305,119.8509276133564,139.00516736257174,220.64695645198864,208.08979806571205
2.335669002335669,-0.5335966285958096,3.099052810686964,129.95949283648304,57.13592342813571,120.1215350991492,139.16588471592777,220.9847073154872,207.55719591666949
2.369035702369036,-0.5335966285958096,3.099052810686964,127.20668683249578,54.28471925927578,120.37418384360126,139.3306084423954,221.3092335905216,207.0368744389777
2.4024024024024024,-0.5335966285958096,3.099052810686964,124.8499313457739,52.31170175733752,120.58166923887458,139.50321578659694,221.6168367372636,206.50654036905385
2.4357691024357693,-0.5335966285958096,3.099052810686964,123.33031565518483,51.23900167067623,120.6851819334007,139.6979922730225,221.9371878048678,205.9656787011976
2.469135802469136,-0.5335966285958096,3.099052810686964,122.80828879256498,51.00262784496979,120.67309830115067,139.908499851868,222.28528849887635,205.45052568670187
2.5025025025025025,-0.5335966285958096,3.099052810686964,122.96801319098468,51.29223305837965,120.54703147879394,140.1194108987933,222.6763744348065,204.96442741812444
2.5358692025358693,-0.5335966285958096,3.099052810686964,122.5346157251222,52.38740490821685,120.35939266170088,140.3077400863209,223.0464953789568,204.52183251300767
2.569235902569236,-0.5335966285958096,3.099052810686964,123.36728920530828,53.94858633541612,120.09668207170088,140.484217526183,223.45911536970104,204.11939527771844
2.6026026026026026,-0.5335966285958096,3.099052810686964,124.52798288811272,56.42570730009504,119.74233777078813,140.66768841864496,223.9038663508397,203.7495267712737
2.6359693026359694,-0.5335966285958096,3.099052810686964,126.00008631550612,57.50290697758223,119.380238973943,140.84103180023308,224.3884627126528,203.40941659040325
2.669336002669336,-6.686140838690193,3.099052810686964,127.4731772715528,58.546425234432974,118.97746907624736,140.98332229162756,224.9094389503676,203.12145355434308
2.702702702702702,-9.70311931669157,3.099052810686964,128.78547912041594,59.89513283053709,118.55890802251832,141.15578284329283,225.4456238276452,202.80759588237464
2.736069402736069,0.2461889270753703,3.099052810686964,130.42120426392574,61.54823025000896,118.09983172113272,141.3292875630284,225.99752915614383,202.47691285334287
2.7694361027694363,0.2461889270753703,3.099052810686964,130.36582799589794,63.32208637702499,117.57334259500468,141.5044069768072,226.5836964512117,202.15995662582367
2.802802802802803,0.2461889270753703,3.099052810686964,131.368265474643,65.30061688765713,116.99878706800358,141.705822179419,227.16782095629736,201.79765655641577
2.836169502836169,0.2461889270753703,3.099052810686964,132.91271279073442,67.34469793512484,116.41671391432514,141.9433019887555,227.72949995280936,201.40794874456589
2.8695362028695364,0.2461889270753703,3.099052810686964,134.54754538700072,69.46567900926784,115.81180446033925,142.30999607994343,228.27908438326227,200.89133238084017
2.902902902902903,0.2461889270753703,3.099052810686964,135.4134010784406,71.8663401196825,115.2611013845964,142.65700787430146,228.833369323572,200.44695504744303
2.9362696029362696,0.2461889270753703,3.099052810686964,135.7570978626472,74.36459916330004,114.72241265983943,143.04470516821698,229.39650443016416,199.93188757459504
2.9696363029696364,0.2461889270753703,3.099052810686964,137.31598544117665,76.40589109314048,114.25001769083416,143.35007291648637,229.99008989326487,199.5788061346928
3.003003003003004,0.2461889270753703,3.099052810686964,139.9391241112699,78.54636074552079,113.90536329652168,143.72021734698342,230.5880175643858,199.23429291249937
3.0363697030363697,9.864327468977228,3.099052810686964,143.44876550708236,82.65812397295184,113.67408168251774,143.9939982257248,231.155903946972,199.08838965308365
3.0697364030697365,18.96844034400798,3.099052810686964,146.68100804835726,89.09061152460204,113.43930877024364,144.18676533111784,231.8105932632565,199.13312981072576
3.103103103103104,27.663761526730724,3.099052810686964,149.8047620302951,92.75213981376724,113.1799608196264,144.2704965670427,232.46991534679432,199.3955530465473
3.1364698031364697,35.92684303626804,3.099052810686964,153.9496248123221,95.95121841654132,112.84019897498308,144.26588209875936,233.15706679304097,199.9067672807488
3.169836503169837,43.815222033695775,3.099052810686964,157.9334397887935,95.5518392957105,112.54532572741743,144.12529394366143,233.76981068519848,200.6043300502107
3.2032032032032034,41.84463736980988,3.099052810686964,161.05479989172616,92.99578671324406,112.24676217703671,143.85484031711778,234.48622822142448,201.40577230845315
3.2365699032365702,42.90627256279238,3.099052810686964,161.84885710679526,90.5255341937454,112.03030141476157,143.4635483766189,235.0613769027509,202.339203653214
3.2699366032699366,46.23544616611467,3.099052810686964,159.46406450636027,86.47622695645204,111.7369415661452,142.87863455663907,235.59631038665248,203.49582693778217
3.3033033033033035,50.61170538163155,3.099052810686964,157.19889635170298,82.55067808007213,111.5644313184717,142.15101615388411,235.9114854171516,204.77091160447367
3.3366700033366703,56.66494282052237,3.099052810686964,154.58488392190117,76.92417289588629,111.6236826195327,141.37565611270702,235.99020593245493,206.1812679422588
3.3700367033700367,64.36831699711713,3.602154579776938,151.6630368792912,74.75557665904097,111.88683413705176,140.57098571465022,235.7531318404714,207.65816252486383
3.4034034034034035,73.73777628239974,3.602154579776938,150.86577768538925,72.47827420893114,112.2362487354376,139.82645786239783,235.2563376098672,209.22755734159625
3.4367701034367704,84.27245433999954,3.602154579776938,151.2434832798421,70.51565478904398,112.71792683855288,139.06862874668207,234.44105606529627,210.7669927631413
3.4701368034701368,95.6835759405218,3.602154579776938,152.55653363655588,68.78258975452785,113.17894442044484,138.31594008222575,233.5720460840353,212.2509112881173
3.503503503503504,107.84004862092767,3.602154579776938,153.68914749160842,67.39335120616106,113.75142696530784,137.56093220409832,232.4301057744744,213.67968347246767
3.5368702035368704,120.47146202112846,3.602154579776938,154.78797503665513,66.2326031939152,114.3556434714185,136.72905363410644,230.96769223323216,215.13649767852348
3.5702369035702373,133.38955261085582,3.602154579776938,155.84964703190715,65.50014308236311,115.18374205910132,135.90582474467493,229.25125139443708,216.50836055348825
3.603603603603604,146.25911931339095,3.602154579776938,156.6753917766198,65.28834710379314,116.14944057104296,135.01443672852463,227.42734441707137,217.83458543238208
3.6369703036369705,159.0240520398164,3.602154579776938,157.36125487788257,65.87382912427326,117.39301646822732,134.18849775384427,225.3534287891626,218.98127280747065
3.670337003670337,171.7194721283849,3.602154579776938,158.29392293741435,66.06885656437994,119.03305856018684,133.49347184922794,222.90914613769388,219.89504793637343
3.703703703703704,184.1763612051025,3.602154579776938,159.51289066341096,67.56144114049381,120.76858053952564,132.93951584513022,220.34295573295427,220.5743258451908
3.737070403737071,196.1196125188625,3.602154579776938,161.45245361140772,69.87311768442815,122.5679426426788,132.48707640980982,217.41034534941,221.08569786377376
3.770437103770437,207.63750254591943,3.602154579776938,163.21147164436516,73.1209288496916,124.54474050655114,132.13945422112243,214.44306971367607,221.38033561469308
3.803803803803804,218.15114517047408,3.602154579776938,164.83812245997566,77.02459912339323,126.60896187024618,132.05861400124553,211.47191750321963,221.28163560098
3.8371705038371706,227.3648730123421,3.602154579776938,166.05057347938092,81.59763112993411,128.61416708072667,132.21950567580834,208.6443761405848,220.87925227507145
3.8705372038705375,235.15018146660893,3.602154579776938,166.05325844247002,86.57424237773941,130.5019519048908,132.21893918835815,205.65197397124004,220.72507695701844
3.903903903903904,242.465747574906,3.602154579776938,166.52307647052848,92.43983296996116,132.3229627353275,132.44579582112243,202.83805272641104,220.3472717887436
3.937270603937271,247.8959728189692,3.602154579776938,167.9343961568626,98.7372258520012,134.07244987018072,133.35611650505285,200.71633587342765,218.9751612595277
