Time,Left Shoulder Angle,Right Shoulder Angle,Left Elbow Angle,Right Elbow Angle,Left Hip Angle,Right Hip Angle,Left Knee Angle,Right Knee Angle
0.0,15.34987199462426,33.682293223873835,152.00888153812917,169.4809946461967,136.2191879383558,135.6338274177444,200.5317262677508,202.55411353586945
0.0333667000333667,15.212451424422564,33.02459340188557,151.50400471280702,168.33859527664376,135.33673527277497,135.76290853078055,201.48641766158752,202.73262697331648
0.0667334000667334,15.11802795692011,32.413802468190404,151.15920886103572,167.28270662398296,134.60062059626296,135.8745886791307,202.27239779204152,202.89305723927728
0.1001001001001001,15.063878455308602,31.846865591777288,150.96636661443338,166.31006531233498,134.00044513769328,135.97018199797083,202.90179099983672,203.03625467916223
0.1334668001334668,15.047279782779746,31.320727941635173,150.917350604618,165.41740796582042,133.5258101259395,136.0510026224768,203.3867216256972,203.16306963838167
0.1668335001668335,15.06550880252525,30.83233468675302,151.00403346320766,164.60147120855996,133.16631678987514,136.11836468782454,203.73931401034704,203.27435246234583
0.2002002002002002,15.115842377736811,30.37863099611977,151.2182878218204,163.85899166467422,132.9115663583738,136.17358232918994,203.9716924945102,203.3709534964652
0.2335669002335669,15.195557371606146,29.9565620387244,151.55198631207432,163.18670595828385,132.75116006030896,136.21796968174897,204.09598141891075,203.45372308614995
0.2669336002669336,15.301930647324951,29.56307298355584,151.99700156558742,162.58135071350952,132.67469912455425,136.25284088067747,204.12430512427272,203.52351157681048
0.3003003003003003,15.432239068084936,29.195108999603057,152.54520621397776,162.03966255447187,132.67178477998317,136.2795100611514,204.0687879513202,203.58116931385703
0.333667000333667,15.583759497077804,28.849615255855003,153.18847288886343,161.55837810529152,132.73201825546926,136.29929135834664,203.94155424077712,203.62754664270005
0.3670337003670337,15.753768797495264,28.52353692130063,153.91867422186246,161.13423399008917,132.8450007798861,136.3134989074391,203.7547283333676,203.66349390874976
0.4004004004004004,15.939543832529017,28.213819164928893,154.72768284459292,160.7639668329854,133.00033358210726,136.32344684360473,203.52043456981568,203.68986145741653
0.4337671004337671,16.13836146537077,27.917407155728743,155.60737138867287,160.4443132581009,133.18761789100623,136.33044930201942,203.25079729084536,203.70749963411072
0.4671338004671338,16.347498559212234,27.63124606268914,156.54961248572036,160.17200988955628,133.39645493545663,136.33582041785905,202.9579408371807,203.71725878424257
0.5005005005005005,16.564231977245107,27.352281054799032,157.5462787673534,159.94379335147224,133.61644594433196,136.34087432629957,202.6539895495457,203.7199892532224
0.5338672005338673,16.785838582661096,27.07745730104737,158.58924286519016,159.75640026796935,133.8371921465058,136.34692516251687,202.35106776866448,203.71654138646065
0.5672339005672339,17.00959523865204,26.80371997042338,159.67037741084982,159.60656726316964,134.04829477085275,136.35528706168796,202.06129983526253,203.7077655293692
0.6006006006006006,17.292058314502153,26.623654028240832,160.93901693091482,159.61181014481417,134.16802385725416,136.29023137794948,201.7850536002069,203.70178035700727
0.6339673006339673,17.530532720885752,26.46731525209786,162.15975115527038,159.68820129065654,134.20440936102426,136.2630902178146,201.73256833559387,203.6686317292392
0.6673340006673341,17.729845324427252,26.23445886604156,163.36284288446828,159.7491294585686,134.1811844974482,136.2938274514343,201.78641499053649,203.6267284864007
0.7007007007007008,17.922521200630346,25.97603777734873,164.5382340283997,159.7687030417921,134.08918617051128,136.34563907558874,201.90475576141395,203.5570223381543
0.7340674007340674,18.08982048956569,25.63218320700497,165.65347562644365,159.76607441610747,133.92515407001213,136.43043575826772,201.9792309315149,203.48972001796184
0.7674341007674341,18.226512528281454,25.17427079329832,166.71861210058168,159.68240044790133,133.74729945176253,136.5387351475455,202.2528055517984,203.40674931820087
0.8008008008008008,18.367713672545733,24.644863235828296,167.77141171598072,159.5463062380536,133.5103176150893,136.68730730652194,202.66927360857767,203.33178535164004
0.8341675008341676,18.50442642183681,24.1171911359178,168.7620074045126,159.43536183516903,133.2195299731222,136.81516907246302,203.1446560973802,203.32222995035625
0.8675342008675342,18.63327359794496,23.523914962581507,169.63786565524816,159.27531525200587,132.8341550905414,136.9372282272608,203.65403878176213,203.36915517458937
0.9009009009009008,18.81552960201447,22.91948699798123,170.41077953412395,158.98532989130922,132.42980733913987,136.96632650754734,204.0286156694321,203.5953956130596
0.9342676009342676,18.8147389093544,22.27909142062303,171.23825276254632,158.6998969987708,131.97866176725935,137.02986775152377,204.41752782363625,203.84990247429928
0.9676343009676344,18.80928659410221,21.698510917344777,171.85469030506576,158.44888534962448,131.37970245693336,137.11585289234162,204.8818058610185,204.0996654599544
1.001001001001001,18.961655849251407,21.03596723640908,172.70774406796568,158.1943970507596,130.8760614670429,137.26251051893462,205.2613356056013,204.3059456310735
1.0343677010343677,19.17910913050476,20.41276073718604,173.602245705452,158.04138631480464,130.44336031835644,137.4769553529888,205.6592899735868,204.4363713682445
1.0677344010677343,19.317388137097385,19.652380588830123,174.33418364810103,157.74221319095153,129.99568191436109,137.75420065851122,206.08278134739268,204.50119566664705
1.1011011011011012,19.423821895800955,18.864465676436087,174.8220923334857,157.51069210934068,129.52934798924943,138.00352010621623,206.5232500715049,204.58137417264425
1.1344678011344678,19.55997336618548,17.91022210804625,175.39659914180191,157.26555566460712,129.07801021744635,138.2976065431433,206.95229013359543,204.67583227011863
1.1678345011678346,19.700507626975163,16.77945890451453,175.90509055437448,157.04764448011272,128.59396204193348,138.62483528230214,207.40224970189803,204.8176665299236
1.2012012012012012,19.78324072981416,15.67346877434851,176.41361995337024,156.87085539261557,128.11852789183254,138.99859519605903,207.95375787159767,204.94006445078765
1.234567901234568,19.837982762874784,14.607380069721462,176.88825063981955,156.6715539795622,127.66124809360852,139.3671907848245,208.5281177704196,205.0824295500633
1.267934601267935,19.84543634262869,13.579447620061789,177.44214420047078,156.42060089852086,127.25949957728368,139.81010184258432,209.11210583117543,205.1496779221404
1.3013013013013013,19.854437619195483,12.594529894444443,177.93002004558417,155.99948898960145,126.87100649118528,140.31827641221705,209.70298967388536,205.1124354059872
1.334668001334668,19.689654080131987,11.63163287597292,178.46121936748054,155.44348702041324,126.50859241034348,140.87740135645387,210.2054104432233,204.94988263650595
1.3680347013680347,19.40563525256208,10.683922643701038,178.98167197208878,154.9297984809282,126.23376648182467,141.47355356239976,210.62944878304504,204.76172427437223
1.4014014014014016,18.905013139085227,9.74223256536246,179.37876196168568,154.34072847684035,126.03108273047214,142.1444661723038,210.9416062250185,204.48446734909768
1.4347681014347682,18.157897810767484,8.73885581624731,179.63896484057344,153.54471261889236,125.94099363992682,142.88962824771767,211.131293785482,204.0804177014496
1.4681348014681348,17.341687963949894,7.837330115927697,180.058034612939,152.85452762123916,125.91120909230648,143.66864605038242,211.24865933557948,203.5778484082602
1.5015015015015016,16.373188559912172,6.902701081669156,180.5242353229948,152.32581247880117,125.971467185617,144.4693468322568,211.2306756266751,202.97951173827383
1.5348682015348682,15.343815584116244,6.087191324914866,180.934165816061,151.96168158955825,126.04569862736892,145.32104019786647,211.1794406920505,202.3064075508033
1.5682349015682349,14.183289002432224,5.344889053402113,181.01262857858987,151.78005613561257,126.11735998977694,146.15456602281205,211.10029741165403,201.6186136711652
1.6016016016016017,13.029269998202809,4.7842221734151735,181.0644655963824,151.6196067057825,126.16344456879509,146.96385250052893,211.0536767555624,200.87212986395187
1.6349683016349683,11.65212249959617,4.345571935332756,182.0343789674081,151.41762967383178,126.17862218288924,147.7607555606185,211.031535469999,200.0499985463829
1.6683350016683351,10.365466662431738,4.193865926729118,183.0211524012714,151.24528076476926,126.17472278648442,148.5463266827689,211.0447816669397,199.1913559374955
1.7017017017017018,9.122882151166571,4.19139111787284,182.8053359992714,151.256726837481,126.20357903621472,149.31577915785692,211.01131462949587,198.2911873876716
1.7350684017350684,8.094665087964579,4.19139111787284,182.48091190299093,151.08711431217753,126.25510464357134,150.1499042442931,210.9788357868508,197.33820131739168
1.7684351017684352,6.800702619532793,4.19139111787284,181.5216714938968,154.086877368828,126.31429068342332,150.97119247650457,210.9293952063701,196.34630444267668
1.8018018018018016,5.819753644697997,4.19139111787284,182.2703334254656,156.0389879714715,126.3528388809206,151.77488220361468,210.84645806664943,195.3534429111013
1.8351685018351689,5.292325766471726,4.19139111787284,183.09190377778657,155.79986006895575,126.3509088938916,152.5351893034084,210.727654563286,194.35690826912645
1.8685352018685355,5.177542550342508,4.19139111787284,183.67215550679225,150.41606459639954,126.332030795281,153.26303538292314,210.6433791304489,193.4040501102126
1.901901901901902,5.177542550342508,4.19139111787284,183.7009692127897,152.02294383533626,126.33311965678168,153.91533861914766,210.7087876749896,192.4918043992493
1.9352686019352687,5.177542550342508,4.19139111787284,183.32043814687543,152.66222520817047,126.32244659617412,154.4903539230054,210.65607063297367,191.679071343746
1.968635301968636,5.177542550342508,4.19139111787284,182.7447999967316,152.6296963393613,126.31525180491394,154.96912866400885,210.487423241134,190.9563432947785
2.002002002002002,5.177542550342508,4.19139111787284,181.9790146994496,151.7786255601296,126.30484329344972,155.39863919230928,210.29516207362587,190.29268599238284
2.035368702035369,5.177542550342508,4.19139111787284,180.90043512417705,150.16298718261035,126.28234568760745,155.7550922117122,210.0472592548401,189.7408104308331
2.0687354020687354,5.177542550342508,4.19139111787284,179.55737481863625,148.04137431888745,126.2087386237976,156.15046229328428,209.9740949993356,189.13098086341347
2.1021021021021022,5.177542550342508,4.19139111787284,177.85745631254602,145.3114728915342,126.08126271730713,156.5273190719114,209.9943629791505,188.54554216646136
2.135468802135469,5.177542550342508,4.19139111787284,176.12239026453906,141.94237065471458,126.035992963807,156.87999255105294,210.06869089832608,188.00665273484776
2.1688355021688355,5.177542550342508,4.19139111787284,174.63367198279124,137.26432585661723,126.06377675477346,157.14119738180102,210.23600193685547,187.56135279347768
2.2022022022022023,5.177542550342508,4.19139111787284,173.09555055564664,132.013323416033,126.09671827346266,157.28965459101693,210.45610954805983,187.2552735241304
2.235568902235569,5.177542550342508,4.19139111787284,171.4580211901123,126.3361569344782,126.15242467749658,157.3324343508939,210.70576070289908,187.07930163218177
2.2689356022689355,5.177542550342508,4.19139111787284,169.82961032593892,120.35726815134682,126.23092179438376,157.37411129926716,211.00968461541285,186.9489418449077
2.3023023023023024,5.177542550342508,4.19139111787284,168.24421319439372,114.72920907730683,126.32199254485944,157.34708976052397,211.36252703479204,186.9138622463572
2.335669002335669,5.177542550342508,4.19139111787284,166.71191282748052,109.07644267430508,126.46692811913414,157.2712543298374,211.7257329888029,186.9026970156464
2.369035702369036,5.177542550342508,4.19139111787284,165.0519653103303,103.46449222679192,126.64494537411872,157.14417292530186,212.08459527466127,186.95113476601
2.4024024024024024,5.177542550342508,4.19139111787284,163.43091857649495,98.01511017219926,126.84884188250398,157.03657799152123,212.46595252960785,186.98248902600653
2.4357691024357693,5.177542550342508,4.19139111787284,162.02695485328778,92.73862592446706,127.09532478304943,156.88461984188928,212.8526626853624,187.05609111334965
2.469135802469136,5.177542550342508,4.19139111787284,160.78675076024814,87.79227958931209,127.40797489294756,156.71343395100706,213.2189349168352,187.2013814577798
2.5025025025025025,5.177542550342508,4.19139111787284,159.534548497393,83.14894669122563,127.75574420589484,156.50228415557987,213.58064642005664,187.4180843397786
2.5358692025358693,5.177542550342508,4.19139111787284,158.30765060754285,78.71556421638786,128.1003482430769,156.29105473095734,213.92738323074417,187.6113465958093
2.569235902569236,5.177542550342508,4.19139111787284,157.0089663158973,74.61143831722782,128.36277342606002,156.05035915570957,214.29431619371005,187.8283197387805
2.6026026026026026,5.177542550342508,4.19139111787284,155.85417428799582,71.06380798543984,128.56671511686434,155.81005738444728,214.6699353499088,188.0990188821893
2.6359693026359694,5.177542550342508,4.19139111787284,154.90342067308848,68.00926757543168,128.7817251506647,155.59479048064242,214.9771922916933,188.40127980632047
2.669336002669336,5.177542550342508,4.19139111787284,154.0874601020913,65.40328996443915,128.9536560246245,155.394772410229,215.3169256642452,188.73325395757715
2.702702702702702,5.177542550342508,4.19139111787284,153.3703720914503,63.27348782265626,129.07113294179862,155.18625066194195,215.68953744842383,189.1164823084072
2.736069402736069,5.177542550342508,4.19139111787284,153.11524014338335,61.6159028838919,129.1794925065611,155.03956223372188,216.06014897936427,189.4622350882828
2.7694361027694363,5.177542550342508,4.19139111787284,153.24955055644415,60.53582063323228,129.3046226126591,154.95474294327786,216.3890777876709,189.75239899186565
2.802802802802803,5.177542550342508,4.19139111787284,152.5500387382629,60.212173670281,129.44947746892876,154.93158174440998,216.64670533793523,189.9980062687298
2.836169502836169,5.177542550342508,4.19139111787284,151.54211016714862,60.68862906592272,129.59583879909508,154.9925777849608,216.83684909623005,190.1597938596377
2.8695362028695364,5.177542550342508,4.19139111787284,151.66779282908973,61.884404722373496,129.67227243586652,155.07450353970114,217.04125171896968,190.2937828559509
2.902902902902903,5.177542550342508,4.19139111787284,152.26324937708748,64.07237866181856,129.68037217316035,155.23744084102762,217.28245834108145,190.3433829115167
2.9362696029362696,5.177542550342508,4.19139111787284,154.09328111892717,63.00458452592383,129.64092335617133,155.45225518446287,217.5462155671732,190.34139320924152
2.9696363029696364,5.177542550342508,4.19139111787284,154.3465161173067,61.67195443553384,129.53992434133883,155.71303418717537,217.76613885673467,190.29372317070823
3.003003003003004,5.177542550342508,4.19139111787284,154.15863220384836,61.791994989774615,129.4160179658781,155.9635195835489,217.98851599323464,190.24937316845887
3.0363697030363697,5.177542550342508,4.19139111787284,153.62970164929055,68.28565378485436,129.31544056371402,156.27162929503382,218.16835657216768,190.0740159673348
3.0697364030697365,5.177542550342508,4.19139111787284,153.33256400251622,68.6488899607738,129.17840231872748,156.56423303316274,218.34369197003264,189.92209941547165
3.103103103103104,5.192199917109728,4.19139111787284,153.4700570792042,68.957008239665,129.07801150786625,156.90500735428523,218.4889707135792,189.702755723839
3.1364698031364697,5.5266309741456014,4.19139111787284,153.678675606198,69.0940023696484,128.92631952905944,157.20008141591623,218.675050953038,189.56496410711904
3.169836503169837,5.895437346091903,4.19139111787284,153.90034449367943,70.98751078382175,128.6399209393517,157.49402088058034,218.89073373722448,189.3424610021563
3.2032032032032034,6.703760888760297,4.19139111787284,154.25849777248007,71.81945148958101,128.30246748381808,157.6715740244238,219.13485296182543,189.26080791232496
3.2365699032365702,7.79884919021506,4.19139111787284,154.51341624301014,72.03661085672314,128.02446359387793,157.82101270305031,219.4057122973489,189.1974618015218
3.2699366032699366,9.218319591247509,4.19139111787284,155.08687245935056,71.56349199218502,127.7771459374262,157.8229905896049,219.70408214183223,189.33223843693983
3.3033033033033035,2.4848107995840807,4.19139111787284,153.69244666583123,68.29436619835802,127.53036138828266,157.76945615683996,220.00844520935703,189.5229795788983
3.3366700033366703,2.4848107995840807,4.19139111787284,152.8398178111908,66.44592778860176,127.25607102367172,157.56625991607942,220.30607279497585,189.9362674877911
3.3700367033700367,2.4848107995840807,4.19139111787284,152.52701759593128,62.39568955005424,126.92678320757902,157.24980902849316,220.78095335711888,190.48328959019148
3.4034034034034035,2.4848107995840807,4.19139111787284,152.54486552089236,59.419129369329,126.5554389702885,156.77003771631888,221.32152320343863,191.28492525582425
3.4367701034367704,2.4848107995840807,4.19139111787284,153.33297558277408,58.49660898657059,126.03259231640008,156.1052669080307,221.91426624562223,192.3751104328921
3.4701368034701368,2.4848107995840807,4.19139111787284,154.22387039702173,58.25655185721535,125.43943724186896,155.27116512241747,222.4646992010864,193.7201900860263
3.503503503503504,2.4848107995840807,4.19139111787284,155.64341952080105,58.91761977696094,124.64143965270677,154.30686258470178,223.0709916802072,195.21069557580728
3.5368702035368704,2.4848107995840807,4.19139111787284,157.24800809030955,60.29937812651812,123.82894300312677,153.1986667607071,223.54523831467165,196.90413587648104
3.5702369035702373,2.4848107995840807,4.19139111787284,158.99306948304135,62.68739209342242,122.94939845348954,151.98983085031253,223.8969991216878,198.85178146402572
3.603603603603604,2.4848107995840807,4.19139111787284,160.64865315163823,65.42815385047656,122.16141610036834,150.7253236354794,224.09428528834624,200.9377848017617
3.6369703036369705,2.4848107995840807,4.19139111787284,162.5094392667867,68.40933184422417,121.54361745366676,149.44367858961,223.9971952393679,203.1822524776769
3.670337003670337,2.4848107995840807,4.19139111787284,164.4440416257645,71.69959898555449,121.05107145981223,148.17338359390783,223.7616888664769,205.51835532204427
3.703703703703704,2.4848107995840807,4.19139111787284,166.33399229581184,74.79246967749944,120.48843896876528,146.9141132280567,223.5323023861196,207.92497987785416
3.737070403737071,2.4848107995840807,4.375435378371402,168.3787106000478,78.23116232738272,120.15019161368754,145.73820504244298,223.19386810388332,210.31826833387103
3.770437103770437,2.4848107995840807,5.076440899521628,170.15853123593885,81.98815622148878,119.84816322985358,144.54468632662102,222.7185941268162,212.75864400489127
3.803803803803804,2.4848107995840807,5.90907391814785,171.92917391256324,85.46790937951867,119.7646881344619,143.3528454371657,222.25696812415265,215.14711928522445
3.8371705038371706,2.4848107995840807,6.489062114697511,174.38645812731605,89.53378739682121,119.916984266311,141.8988753426524,221.6794216946571,218.01525301815903
3.8705372038705375,2.4848107995840807,7.1387195287365,176.9120976973156,93.59935683628154,120.34016249136776,140.60861242522716,220.99240413671424,220.54168475042337
3.903903903903904,2.4848107995840807,8.047708072154018,179.94763567905122,97.99942380749266,120.93639387881852,139.53941237664668,220.22160317403865,222.59864215161028
3.937270603937271,2.4848107995840807,9.258010145630344,182.53413603937807,102.82810127743927,121.74701085207444,138.712964067708,219.3777375938961,224.1707031940568
