Time,Left Shoulder Angle,Right Shoulder Angle,Left Elbow Angle,Right Elbow Angle,Left Hip Angle,Right Hip Angle,Left Knee Angle,Right Knee Angle
0.0,7.635721699422017,2.810089868560797,197.14602591237173,156.84255568281714,147.5104024627326,202.43831218617035,193.1843480189696,175.18055475110012
0.0333667000333667,7.39724726374161,2.861505884822645,191.3150010208016,159.4563133606723,150.53361239995306,201.41458078889292,191.08697798404603,175.43592660983794
0.0667334000667334,7.134278633426034,2.876049008432786,186.33770323531672,161.85185719427747,153.2391416481514,200.48856637141137,189.2330317353958,175.64214987398267
0.1001001001001001,6.856485913990759,2.8620788158463104,182.1637224548392,164.03874997217105,155.6419254700248,199.65707659759747,187.6096070051926,175.80272881726427
0.1334668001334668,6.573539210951252,2.8279548835183084,178.7426485782908,166.02655448289138,157.75689912827048,198.9169191313233,186.20380152561012,175.9211677134126
0.1668335001668335,6.295108629822981,2.782036787903871,176.02407150459365,167.8248335149769,159.5989978855856,198.264901636461,185.00271302882228,176.00097083615762
0.2002002002002002,6.030864276121415,2.7326841054580893,173.95758113266956,169.4431498569659,161.1831570046673,197.6978317768824,183.99343924700264,176.04564245922927
0.2335669002335669,5.79047625536202,2.688256412636053,172.49276736144049,170.89106629739686,162.5243117482128,197.21251721645964,183.16307791232504,176.05868685635744
0.2669336002669336,5.583614673060264,2.657113285892853,171.57922008982842,172.1781456248081,163.63739737891925,196.8057656190647,182.4987267569632,176.04360830127206
0.3003003003003003,5.419949634731617,2.6476143016835807,171.1665292167553,173.31395062773805,164.53734915948385,196.4743846485696,181.9874835130909,176.00391106770306
0.333667000333667,5.309151245891545,2.6476143016835807,171.204284641143,174.30804409472506,165.2391023526038,196.21518196884628,181.61644591288177,175.94309942938034
0.3670337003670337,5.260889612055517,2.6476143016835807,171.64207626191353,175.16998881430754,165.75759222097622,196.02496524376687,181.3727116885097,175.86467766003386
0.4004004004004004,5.260889612055517,2.6476143016835807,172.42949397798878,175.90934757502382,166.1077540272983,195.9005421372033,181.2433785721484,175.7721500333935
0.4337671004337671,5.260889612055517,2.6476143016835807,173.51612768829074,176.5356831654123,166.30452303426728,195.83872031302764,181.2155442959716,175.6690208231892
0.4671338004671338,5.260889612055517,2.6476143016835807,174.85156729174128,177.0585583740114,166.36283450458026,195.83630743511185,181.276306592153,175.55879430315093
0.5005005005005005,5.260889612055517,2.6476143016835807,176.38540268726243,177.4875359893595,166.29762370093448,195.890111167328,181.41276319286644,175.44497474700856
0.5338672005338673,5.260889612055517,2.6476143016835807,178.06722377377605,177.8321787999949,166.12382588602705,195.99693917354804,181.6120118302856,175.331066428492
0.5672339005672339,5.260889612055517,2.6476143016835807,179.84662045020576,178.10204959445753,165.85637632255657,196.1535991176456,181.86115023658573,175.22057362133265
0.6006006006006006,5.260889612055517,2.6476143016835807,181.4115896153833,178.0656914288812,165.1330784128514,195.9875954688824,182.43278167958857,175.2760119675399
0.6339673006339673,5.260889612055517,2.6476143016835807,182.8414066831264,178.32815819982326,164.51974555097115,195.9626409270952,182.91706203553568,175.38641811042092
0.6673340006673341,5.260889612055517,2.6476143016835807,184.50303124540915,178.27915461159336,164.04210266458233,196.10741585197545,183.34723146153948,175.50530669739862
0.7007007007007008,5.260889612055517,2.6476143016835807,186.2009388113186,178.0435828970434,163.71918065318255,196.41575430095853,183.70246051830284,175.65141407437272
0.7340674007340674,5.260889612055517,2.6476143016835807,187.74755547797392,177.5284693420797,163.29809328088265,196.7444733130763,184.13586690196453,175.8450015626802
0.7674341007674341,5.260889612055517,2.6476143016835807,187.0456318247344,177.88244846153344,163.22847619215207,197.13168070329004,183.7805252045165,175.52532697715074
0.8008008008008008,5.260889612055517,2.6476143016835807,187.19149707760167,177.85099714109072,163.34631019201106,197.87466662662905,183.1285196470328,175.42086160533606
0.8341675008341676,5.260889612055517,2.6476143016835807,187.68702758743183,177.8063118275547,163.4599367675706,198.67508704780093,182.3896769469945,175.5154444746026
0.8675342008675342,5.260889612055517,2.6476143016835807,187.17067287901835,178.4346497714716,163.3030035494098,199.0763201182168,182.1837065735153,175.3984175850743
0.9009009009009008,5.260889612055517,2.6476143016835807,186.74175480661768,178.90218125841147,163.17970016664523,199.570579564508,182.00416679341217,175.2494888702767
0.9342676009342676,5.260889612055517,2.6476143016835807,186.5365463252157,180.19829613543624,163.01880097663397,200.5802410827368,181.91422100590825,175.11835198793142
0.9676343009676344,5.260889612055517,2.6476143016835807,185.874535546078,181.42181769082097,162.6741993081982,201.40254328864577,181.96427107380327,175.06251114747255
1.001001001001001,5.260889612055517,2.6476143016835807,185.0488263576144,183.51514610385368,162.2710356736295,202.1838275300097,182.0731111463637,174.95032140742205
1.0343677010343677,5.260889612055517,2.6476143016835807,184.13674781135828,185.9616911992032,162.0038813735269,203.14072303359072,182.00228590837432,175.0638614648839
1.0677344010677343,5.260889612055517,2.6476143016835807,183.92775555752456,186.23866325047115,161.95465737036898,204.22803746017183,181.73888132414612,175.1282365812727
1.1011011011011012,5.260889612055517,2.6476143016835807,183.67366174403293,186.41116566986048,161.82922946936694,205.28919553141333,181.52603550156795,175.207535190425
1.1344678011344678,5.260889612055517,2.6476143016835807,182.24341277909835,192.62281265482383,163.35348267006407,204.0958542482516,181.464388844436,175.6501443291991
1.1678345011678346,5.260889612055517,2.6476143016835807,180.97153658685,193.0092778571902,165.32839741481413,202.32000328074508,181.3818968253461,176.17220069505564
1.2012012012012012,5.260889612055517,2.6476143016835807,179.35330840171352,198.80736647948308,167.02424072963345,200.6465511253012,179.84883727744037,176.75280768154053
1.234567901234568,5.260889612055517,2.6476143016835807,179.7178577842572,201.27005364248453,167.59728595592213,200.21769266692112,179.39168557640156,177.2031913095731
1.267934601267935,5.260889612055517,2.6476143016835807,180.25250428639384,202.7986839401564,167.98620992450878,199.78532867554824,179.25396793532795,177.39690062386325
1.3013013013013013,5.260889612055517,2.6476143016835807,180.9997032017484,201.95166900207724,168.25716121766595,199.23557759211607,179.30708004822526,177.63322798721703
1.334668001334668,5.260889612055517,2.6476143016835807,181.53359239748028,200.27168675566483,168.67086413770846,198.70524262549125,179.32013868115212,177.68706661096013
1.3680347013680347,5.260889612055517,2.6476143016835807,181.7803374161073,196.75358525482875,169.063251088572,198.21051727725,179.29164821115862,177.76868235155027
1.4014014014014016,5.260889612055517,2.6476143016835807,181.8773204196677,191.67633579088084,169.37216689335145,197.8143786358023,179.26087654973065,177.79615267994254
1.4347681014347682,5.260889612055517,2.6476143016835807,181.93883789719428,185.0737889261688,169.6597221224171,197.45182138164893,179.2409420401098,177.7292730663885
1.4681348014681348,5.260889612055517,2.6476143016835807,182.0049593766856,173.13529167288257,169.93565352550996,196.97572675358435,179.2286752756594,177.64089066987404
1.5015015015015016,5.260889612055517,2.6476143016835807,182.4737774417221,163.08746667281096,170.15213790714668,196.5557151003217,179.234996298657,177.52265400742596
1.5348682015348682,5.260889612055517,2.6476143016835807,182.45747426304703,153.27720374086206,170.18331146548368,196.03575294743828,179.2722230149582,177.42501491583275
1.5682349015682349,5.260889612055517,2.6476143016835807,182.4281347457708,141.83753443489366,170.16011050535965,195.4454934368816,179.33011326952993,177.25497059684426
1.6016016016016017,5.260889612055517,2.6476143016835807,181.8787956334588,139.42569025063986,170.01240334264122,194.9270416397192,179.48244314805467,177.11881303242166
1.6349683016349683,5.260889612055517,2.6476143016835807,180.93898248265447,132.8624890688448,169.7237842366669,194.49742132489465,179.7189149497609,177.02237986835473
1.6683350016683351,5.260889612055517,2.6476143016835807,179.77232622745998,127.0081622635196,169.42196087907058,194.19621685963048,179.94710362296223,176.93230456796869
1.7017017017017018,5.260889612055517,2.6476143016835807,177.76390392780067,120.12850143591952,169.1415661062722,193.99380099903527,180.17239761529908,176.84329183488026
1.7350684017350684,5.260889612055517,2.6476143016835807,174.22521981295026,113.36170023933354,168.89893919577273,193.89784982748452,180.31897511794512,176.7607579802335
1.7684351017684352,5.260889612055517,2.6476143016835807,170.9891525085528,105.32458599213074,168.65362609122988,193.966840131944,180.37604168727395,176.60781773593146
1.8018018018018016,5.260889612055517,2.6476143016835807,167.81409082197032,97.93457958529028,168.45530220948322,194.15703608763937,180.36119669931352,176.4110329120026
1.8351685018351689,5.260889612055517,2.6476143016835807,164.37917572808047,92.7624120020359,168.23265925198737,194.41396586066,180.28416321974183,176.2131755131396
1.8685352018685355,5.260889612055517,2.6476143016835807,161.24631242128524,92.7033155964198,168.08557799076218,194.7920783652556,180.11851986322228,176.0022838005923
1.901901901901902,5.260889612055517,2.6476143016835807,158.30153376389526,92.62111178554603,168.0867687196117,195.3005881183656,179.85857800585703,175.77243925378485
1.9352686019352687,5.260889612055517,2.6476143016835807,154.99297202348265,93.20811002922368,168.1442377312179,195.8674529541635,179.52814242986605,175.55470138241446
1.968635301968636,5.260889612055517,2.6476143016835807,151.81528656265658,94.67278065518184,168.27934312157367,196.53166838953177,179.12223304042402,175.3249473787355
2.002002002002002,5.260889612055517,2.6476143016835807,148.80859971841025,98.38848542732,168.5492731669257,197.2990325243109,178.61820778173524,175.07102106645397
2.035368702035369,5.260889612055517,2.6476143016835807,146.2075445095101,102.96213864314636,168.84065463591074,198.14650924316612,178.0557135777987,174.79471999623263
2.0687354020687354,5.260889612055517,2.6476143016835807,144.69675222394747,108.87423838713904,169.1086107723395,199.00807061106843,177.47336253562267,174.51740932354397
2.1021021021021022,5.260889612055517,2.6476143016835807,143.9489273898917,111.9906542922229,169.34873531046227,199.8608053005572,176.8542968348342,174.24748993292917
2.135468802135469,5.260889612055517,2.6476143016835807,144.0851562917338,121.1174344564979,169.6394187759883,200.65758361278768,176.20115136463664,174.02811931804635
2.1688355021688355,5.260889612055517,2.6476143016835807,143.91928352917023,129.83694312454796,169.9792401161071,201.37589885953628,175.4955908896113,173.85107287149629
2.2022022022022023,5.260889612055517,2.6476143016835807,144.5382678360961,138.3746194736414,170.33304203853524,202.08088580756748,174.74995678247836,173.67523596812978
2.235568902235569,5.260889612055517,2.6476143016835807,145.2622889859772,148.58436563537998,170.5731607736234,202.6478292922594,174.0503317231917,173.5679216661293
2.2689356022689355,5.260889612055517,2.6476143016835807,146.10024498549467,161.0671983764689,170.76616527494917,203.17324178736268,173.34386947007175,173.55044094821818
2.3023023023023024,5.260889612055517,2.6476143016835807,147.84692650634258,166.1867966095579,171.01877792336526,203.5807148690172,172.54793024078307,173.5563764886188
2.335669002335669,5.260889612055517,2.6476143016835807,150.16001273853118,175.77505964932584,171.37400436085966,204.0420894581488,171.67926564659413,173.50448078968407
2.369035702369036,5.260889612055517,2.6476143016835807,152.71309876256592,176.6363294237308,171.8964207830343,204.76430765911053,170.7149220756488,173.300994628071
2.4024024024024024,5.284834838739,2.6476143016835807,154.63049455348238,172.8101826824531,172.5227809605082,205.4440603611316,169.71767011307617,172.9942882251262
2.4357691024357693,5.390657031457463,2.6476143016835807,156.0413992269591,167.3450100608141,173.1728179513227,206.0920232417004,168.72246383668642,172.600793216255
2.469135802469136,5.588026295726374,2.6476143016835807,156.55447819648805,162.6206789311172,173.83615951969014,206.6314891781284,167.72815967183442,172.20067608974793
2.5025025025025025,5.886612737061199,2.6476143016835807,156.4023906533685,156.9220925205073,174.6112481411754,207.2538196443193,166.6581728653399,171.76044574551838
2.5358692025358693,6.296086460977407,2.6476143016835807,155.409682102869,156.16808215663892,175.38544218242282,207.893269401622,165.5904543065337,171.2127653814272
2.569235902569236,6.826117572990449,2.6476143016835807,154.78195016922476,150.74575634243823,176.29547505062106,208.4964492220265,164.58545462129462,170.54083498874826
2.6026026026026026,7.653277459160084,2.6476143016835807,152.65709972815506,142.41527582550526,177.29930323362052,208.9905635827731,163.60278011366717,169.78033949211817
2.6359693026359694,8.538716117051543,2.6476143016835807,148.82587946110158,142.69008500891536,178.27219399712922,209.652149171434,162.68005798849146,168.8633294071721
2.669336002669336,9.305545575788669,2.6681190364633256,146.1007746251762,136.14874894533395,179.16305654826778,210.3462332323928,161.91870798752967,167.932458012043
2.702702702702702,10.207699502789293,2.726987066687179,143.21644338233523,133.67208561798495,180.0865752675747,211.0049392813879,161.30754603913329,167.1450927180734
2.736069402736069,11.33363441438721,2.726987066687179,140.82507245666702,134.07489007177423,180.82387530833,211.83621158184275,160.95235396801073,166.54630283894213
2.7694361027694363,13.360239028982052,2.726987066687179,137.57343315390042,127.35973034918683,181.5813470272589,212.65880233977688,160.7545229233376,166.0685658098719
2.802802802802803,15.461779180193169,2.832577968810232,137.6428349375287,121.23560095153252,182.34601562211137,213.49631128459083,160.61863762885713,165.67214172676577
2.836169502836169,17.62253281322986,2.832577968810232,137.3091267429665,114.02096627209605,182.9030473442593,214.34288324527023,160.7787002601532,165.2458170600921
2.8695362028695364,20.12685632090041,2.832577968810232,136.7958466402832,108.32287122500732,183.33717179961755,214.95371341163747,161.2022807527227,165.04446862775166
2.902902902902903,22.75839143857499,2.832577968810232,137.62072415431993,103.57323103199532,183.4579614623117,215.3033723003867,161.9480515669114,165.06245038814023
2.9362696029362696,25.39598731217785,2.993251319287573,138.6454847599552,102.98965335319669,183.4946267195164,215.5407761790352,162.85816903409562,165.136240719921
2.9696363029696364,28.341738833299885,2.993251319287573,140.54278364129976,105.13545873689736,183.4866448596597,215.7026997514529,163.91123369348867,165.60671848964424
3.003003003003004,31.556976499679,2.993251319287573,143.3311124928366,108.70206892062843,183.36109415958933,215.96994643112504,165.1590088046212,166.08372330347368
3.0363697030363697,35.7061555556228,2.993251319287573,146.27478113615987,110.64972352153497,183.19455822754315,216.31664908683865,166.52893612614344,166.67540032802953
3.0697364030697365,39.12083881047309,2.993251319287573,148.88493244774122,112.52893986182085,182.35254801530732,218.05667869353985,167.43620535505656,167.48611448892393
3.103103103103104,42.65654464670597,2.993251319287573,153.63412915973086,116.40210330069742,183.34978747461048,218.8056830245425,168.2645183211081,167.44378186360564
3.1364698031364697,46.04126819030608,3.2173666945742947,159.4228681926764,121.37487121948703,183.7631619331724,218.62196293220384,169.3581297257357,168.5116817443787
3.169836503169837,49.3070535380184,3.2173666945742947,166.25930263030952,124.16060180121576,182.14857773143612,219.01787733482496,171.21099831416691,170.85714090354057
3.2032032032032034,52.7597154140331,3.2173666945742947,173.5971399746333,128.7206848245441,182.29187759724687,218.9020223735272,172.7544647153444,172.51898955519502
3.2365699032365702,55.93134863675707,3.2173666945742947,177.47237088856266,131.28774447536443,181.7686381223441,218.5160064099784,174.90355917096124,173.98882421871429
3.2699366032699366,58.88058421703912,3.2173666945742947,179.44255074805113,140.29053799971066,181.223632658528,217.30316778305271,176.6130001572453,176.0929368499083
3.3033033033033035,61.73627996578086,3.2173666945742947,182.1874770746955,144.6835518163346,181.0140632403231,216.4234998499698,178.08474247860056,178.0735048191427
3.3366700033366703,64.59681098518047,3.2173666945742947,185.73902368605232,148.6653437911516,180.81038544072177,215.57877461939083,179.4960222282723,180.05853506162154
3.3700367033700367,67.36225645064853,3.513283671125487,189.61510904725404,151.69673505238282,180.61369475839612,214.89998959084213,180.7089184840371,181.8744045008528
3.4034034034034035,69.86537814351752,3.513283671125487,194.68918066322613,152.9490668398956,180.49500310807332,214.37788180667744,181.74663837592448,183.50363815408903
3.4367701034367704,72.1691843256457,3.513283671125487,203.4004203368801,153.92639470958864,179.83766733225391,214.6220850881052,182.70113234737653,185.2506424728953
3.4701368034701368,74.63916480884426,3.513283671125487,212.42571306048703,156.13205123061314,178.80010244216933,215.4794914444277,183.59596347593856,186.63301326451187
3.503503503503504,77.08742947354911,3.513283671125487,220.2287967038553,156.1241118659979,178.30575547185953,216.1422561254932,184.02018042535173,187.5096766830136
3.5368702035368704,79.14404773769711,3.513283671125487,226.07922331789587,156.71347388250535,178.25120406690365,216.1576190411484,184.26363657079628,188.59942182943007
3.5702369035702373,81.29387813583146,3.513283671125487,230.2723503564473,163.05832593749318,178.61118788477515,215.90154840533413,184.24214117958363,189.3903987927416
3.603603603603604,83.24848450212887,3.513283671125487,232.2060216081506,167.5146334190399,180.4621822168017,214.4881536697745,184.53703397853732,188.7227488969168
3.6369703036369705,84.40472883773606,3.513283671125487,231.484136318346,171.5918658272762,182.2547649398884,213.23562923538103,184.7459290893258,187.99422864002497
3.670337003670337,85.24194444630655,3.513283671125487,229.5797021277706,175.46142706979512,183.949398725338,212.06687805206147,184.76513067721112,187.16300958565265
3.703703703703704,85.51990048644103,3.889361825396241,231.92736275439728,173.42279595688314,185.7017567636102,211.19070980441492,184.5074848451501,186.2223656516576
3.737070403737071,78.97198821862698,3.889361825396241,231.82486470047343,174.19003668813377,187.3715819077492,210.3904106409554,184.0372997371136,185.3394779059061
3.770437103770437,74.35666772168456,3.889361825396241,232.7932971139523,176.06588631455864,188.8307899760877,209.78206171742687,183.4158612456265,184.4860530217315
3.803803803803804,71.52295103467796,3.889361825396241,235.5821489428604,172.12411596459162,190.26864716065305,209.28498199943027,182.6465841158352,183.7103907184008
3.8371705038371706,70.75715672801458,3.889361825396241,235.3180998406699,174.10579651321515,191.6081353550552,208.97152643491856,181.70739007375107,182.97401307113947
3.8705372038705375,71.94895813143161,3.889361825396241,238.2471759585409,173.15330884411892,192.792609816482,208.9022131496211,180.8184888365639,182.05556806825604
3.903903903903904,74.56119187975943,3.889361825396241,236.8113138177669,172.21053701519034,194.0283002438345,208.6439291021562,179.92130405915643,181.3739915382021
3.937270603937271,78.6144106763925,3.889361825396241,236.11897746719373,169.15052763338986,195.01897582521008,208.1123080738556,179.1118776168138,181.07756801914456
