Time,Left Shoulder Angle,Right Shoulder Angle,Left Elbow Angle,Right Elbow Angle,Left Hip Angle,Right Hip Angle,Left Knee Angle,Right Knee Angle
0.0,36.18349820409547,34.29903427594425,143.21663750545156,164.295359301066,154.82602675046914,148.984632509499,189.64221703611983,191.05201903959207
0.0333667000333667,24.71051229314709,29.59175584332919,150.60359612996777,168.93196844369257,153.92171811576208,149.91885316885302,188.2666509611224,190.29601065862383
0.0667334000667334,14.849418382411455,25.43962376123581,157.0986586557228,172.06174218975588,153.07530543729885,150.82527499514643,187.2246940265788,189.59959347883327
0.1001001001001001,6.552534645089082,21.820701533858863,162.74787203055675,173.787408622062,152.28417011411673,151.70185083999445,186.4959796681152,188.9620943959291
0.1334668001334668,-0.2278207456195105,18.71305266539309,167.5972832023096,174.21169582341713,151.54569354525287,152.5465335550122,186.0601413213582,188.38284030562005
0.1668335001668335,-0.2278207456195105,16.094740660033228,171.6929391188214,173.4373318766273,150.85725712974454,153.35727599181482,185.896812421934,187.8611581036148
0.2002002002002002,-0.2278207456195105,13.943829021974032,175.0808867279322,171.56704486449863,150.21624226662888,154.13203100201756,185.985626405469,187.396374685622
0.2335669002335669,-0.2278207456195105,12.238381255410244,177.80717297748205,168.70356286983727,149.62003035494314,154.8687514372355,186.3062167075895,186.98781694735024
0.2669336002669336,-0.2278207456195105,10.956460864536606,179.91784481531087,164.9496139754493,149.06600279372452,155.56539014908384,186.83821676392185,186.6348117845084
0.3003003003003003,-5.539329616513797,10.07613135354786,181.4589491892588,160.40792626414083,148.55154098201024,156.21989998917775,187.5612600100924,186.33668609280508
0.333667000333667,-9.429673794393288,9.575456226638757,182.4765330471659,155.181227818718,148.0740263188375,156.83023380913238,188.4549798817275,186.092766767949
0.3670337003670337,-11.946535106057446,9.432498988004038,183.0166433368721,149.37224672198687,147.6308402032435,157.3943444605629,189.49900981445347,185.9023807056488
0.4004004004004004,-13.13759537830576,9.62532314183844,183.12532700621747,143.08371105675357,147.21936403426545,157.9101847950845,190.67298324389665,185.76485480161327
0.4337671004337671,-13.050536437937716,10.131992192336718,182.8486310030421,136.41834890582422,146.8369792109406,158.3757076643123,191.9565336056834,185.679515951551
0.4671338004671338,-11.733040111752786,10.930569643693616,182.232602275186,129.47888835200493,146.48106713230612,158.7888659198615,193.32929433544007,185.6456910511707
0.5005005005005005,-9.232788226550475,11.999119000103864,181.3232877704891,122.3680574781018,146.14900919739924,159.14761241334722,194.77089886879293,185.66270699618107
0.5338672005338673,-5.597462609130254,13.31570376576223,180.1667344367916,115.18858436692092,145.83818680525715,159.4498999963847,196.2609806413685,185.72989068229083
0.5672339005672339,-0.8747450862915827,14.858387444863547,178.80898922193484,108.04319710126966,145.54598135491827,159.6936815205903,197.77917308879444,185.8465690052101
0.6006006006006006,4.88768251516602,16.76125803690345,180.21603153298707,102.41906988772698,145.28816168030647,160.0785428901912,199.1422283168324,185.71181789119785
0.6339673006339673,11.64213836844308,19.569020573953967,178.3618972029753,94.51380283958773,144.9200920698402,160.43977036695233,200.56782318582407,185.6486057715148
0.6673340006673341,19.340940646740123,22.21783580792009,176.93624730114735,87.5764658042081,144.3309868472429,160.731369677364,202.3668603519781,185.5955675836701
0.7007007007007008,27.936407523257355,24.0582514384736,175.81598795947406,80.66263118224059,143.97160299663443,160.56227640048877,203.7774553249388,185.99306614160145
0.7340674007340674,46.00541341435505,25.80790313716561,175.2495854688388,74.92965465726819,143.63352655563045,160.00033269362066,205.38130919997732,186.91594289737995
0.7674341007674341,62.03503592139572,27.556692985692468,174.31571777449017,68.3438463314657,143.0361317690244,159.2380890080327,207.1165738390812,188.11075330332187
0.8008008008008008,76.21190508500177,29.68246607702812,174.24407632276865,71.8262981098993,142.50107902321125,158.4053728123861,208.3420183751865,189.5535950611612
0.8341675008341676,89.39117951196711,31.83668955324688,172.37654865420888,74.10786737515201,142.046970634261,157.53418182783838,209.3270193647864,190.86670722646363
0.8675342008675342,101.44374586238597,34.21040486415744,170.157395089562,75.21586861476979,141.80879922174725,156.80809003983714,209.84442158363868,191.95270579354187
0.9009009009009008,112.0056957539996,32.18494405228509,169.7275107479693,72.29801945548955,141.76031358099968,156.23227169081636,209.92606058663324,192.69785420915795
0.9342676009342676,121.28150171341356,28.45650980871697,166.36145760097264,69.35349136029545,141.77378239366905,155.65908861651593,209.54273541781444,193.2007235663476
0.9676343009676344,129.03913704200593,25.457247885482563,161.23131529208158,69.35065550894447,141.85231683090117,155.0584876620109,208.86693322048265,193.6830994830019
1.001001001001001,135.27629622946327,27.406686140605657,156.92320923334114,71.18236316681796,141.89265044996955,154.6484238603163,208.0749069239885,194.1286480209033
1.0343677010343677,139.24312218793068,30.101823668572496,154.01415548305658,75.94851319133672,142.0598698595268,154.2579967158085,207.03027923492948,194.6621285851174
1.0677344010677343,134.82058704500824,33.26727603265593,152.14890435147302,82.48205576863323,142.33873688377835,153.93119158119768,205.7972016870486,195.12280201828003
1.1011011011011012,131.18554577773395,32.32980236802916,149.75165726419215,90.5975699904613,142.6058002834818,153.55597141451702,204.80973069357185,194.896406734068
1.1344678011344678,128.1232225564489,36.535686966822,147.57448245054437,93.62670956674523,142.22343235395965,152.92578345867437,203.57227405054,195.39822743717792
1.1678345011678346,125.03211098637568,41.31545607378448,145.94738197650034,95.44340933178474,142.12538986125298,152.47306947855478,202.26059793280808,195.637876475758
1.2012012012012012,121.75818731435336,46.226587246961486,144.87903431195727,100.45162206405026,142.3761433120925,152.2325906238005,200.96118610919817,195.7582977380736
1.234567901234568,117.671151769036,51.67291605831683,144.9976840556048,108.14453135223278,143.02761906357827,152.14490850067435,199.550647449231,195.8413846682452
1.267934601267935,116.00720403584688,50.095568694783125,146.2642279849099,117.78633495340212,144.03228570934854,152.21551173239877,198.0073729117661,195.8732581402221
1.3013013013013013,114.55685062424033,49.823862426158485,147.7666237137382,126.40330620177886,145.32740194285313,152.37039201076237,196.50188388502863,195.78871292359176
1.334668001334668,112.70340576595795,59.06739230436486,149.6259823696662,131.77000570019482,146.85927344400793,152.59178163855367,194.9930376404531,195.6176734592488
1.3680347013680347,110.65673372809844,67.93475048326776,148.2825886349261,136.2630785598326,148.620844359891,152.9773332899536,193.53820686253724,195.25849317636647
1.4014014014014016,108.18176784102698,76.045632324585,146.41693812812494,140.66596933785905,150.5169899547905,153.4983880103954,192.1602744099184,194.74028361410623
1.4347681014347682,105.65346499191588,84.27553041619636,144.21421103234573,146.68421914358822,152.53898951818627,154.16533489462927,190.931914818422,194.0285513928437
1.4681348014681348,103.22196161403711,93.29179234750092,141.54820847306195,153.51503755651098,154.63423987659817,154.93165800650542,189.780911086284,193.15974031513176
1.5015015015015016,100.93501561419772,101.20614038573754,138.60772003438768,159.04627623039488,156.75595204112233,155.86496344480236,188.7498627639842,192.02720991006413
1.5348682015348682,99.05948346583142,108.50044754086876,135.21336087262188,163.73572524184874,158.8633315832081,156.88067596175676,187.8613638932713,190.736230876814
1.5682349015682349,97.09914351198452,115.21662631226178,131.43362235473248,167.77401208572633,160.98547431164164,158.0180777287187,187.0548850611913,189.2531625093959
1.6016016016016017,94.95244315323642,121.52815680440362,127.4704081330209,170.83283830122386,163.06486426855182,159.26035978044823,186.3638096157005,187.61601402773343
1.6349683016349683,103.3651116043647,127.42419516538573,123.37187140403778,173.340758128879,165.06313063390917,160.54216176741951,185.8087263728121,185.9588900423704
1.6683350016683351,114.06568777752202,132.69263208352135,118.92457285386364,174.90810290118102,166.9282862688749,161.74034368711543,185.40285714412,184.37725401968063
1.7017017017017018,127.04218154465838,137.2919614231003,114.14657038091522,175.4802916184149,168.5137764972745,162.8468756604992,185.1758814574518,183.02870444767788
1.7350684017350684,142.18651784335313,138.97351060449594,112.00558260851037,175.6979802304099,170.05007498573076,163.8245447149725,185.06719303530085,181.982196709086
1.7684351017684352,159.54517957985027,138.91467914099076,106.56383951181223,175.98033999822832,171.37436178837663,164.5332999715451,185.2881035772361,181.36523780687875
1.8018018018018016,179.6048561385905,138.0430629709452,100.96997768865526,176.00148735418742,172.56445161045943,165.1855585365459,185.5367575062407,180.8248127777697
1.8351685018351689,202.61554827096447,136.40445013453188,95.27812258510062,175.80048478834675,173.61145499391245,165.77973867138112,185.7913213902864,180.3561182669888
1.8685352018685355,215.394492759655,134.0446286719246,89.54239964721044,175.416394790767,174.50648248067048,166.3142586374585,186.02996179734603,179.95435091976762
1.901901901901902,225.62766231969027,131.00938662329688,83.81693432104696,174.8882798515089,175.2406446126682,166.78753669618547,186.23084529539287,179.61470738133795
1.9352686019352687,235.0278299096216,127.34451202882232,78.1558520526724,174.2552024606331,175.8050519318404,167.19799110896977,186.3721384524001,179.33238429693142
1.968635301968636,243.54456502848723,123.09579292867453,72.61327828814892,173.55622510820035,176.1908149801218,167.5440401372189,186.4320078363408,179.10257831177967
2.002002002002002,251.12743717532663,118.30901736302717,67.24333847353876,172.83041028427132,176.38904429944716,167.82410204234054,186.388620015188,178.9204860711144
2.035368702035369,257.7260158491789,113.02997337205372,62.10015805490414,172.11682047890673,176.39085043175118,168.03659508574225,186.2201415569148,178.7813042201672
2.0687354020687354,263.2898705490834,107.3044489959279,57.23786247830722,171.4545181821673,176.18734391896862,168.1799375288316,185.90473902949432,178.68022940416984
2.1021021021021022,267.76857077407925,101.17823227482327,52.71057718981029,170.88256588411366,175.76963530303425,168.25254763301626,185.4205790008997,178.6124582683539
2.135468802135469,271.1116860232058,94.69711124891342,48.57242763547549,170.4400260748066,175.12883512588274,168.25284365970376,184.7458280391041,178.57318745795104
2.1688355021688355,273.26878579550225,87.90687395837197,44.877539261365,170.16596124430686,174.25605392944888,168.17924387030172,183.8586527120806,178.55761361819296
2.2022022022022023,274.18943959000785,80.8533084433726,41.68003751354111,170.099433882675,173.1424022556674,168.03016652621778,182.73721958780223,178.5609333943113
2.235568902235569,273.82321690576185,73.58220274408875,39.03404783806593,170.27950647997176,171.77899064647306,167.80402988885947,181.35969523424225,178.57834343153775
2.2689356022689355,272.1196872418035,66.13934490069416,36.993695681001725,170.74524152625798,170.15692964380057,167.49925221963446,179.7042462193736,178.6050403751039
2.3023023023023024,269.02842009717205,58.5705229533623,35.613106488410736,171.5357015115942,168.26732978958466,167.11425177995028,177.74903911116948,178.63622087024152
