Time,Left Shoulder Angle,Right Shoulder Angle,Left Elbow Angle,Right Elbow Angle,Left Hip Angle,Right Hip Angle,Left Knee Angle,Right Knee Angle
0.0,12.979248200522608,35.77283214913623,171.9064952709583,160.0798482688666,143.67126300344526,150.13207970175307,200.0198908570552,196.0735005097064
0.0333667000333667,10.853006801305131,35.58913240496102,173.01103311652,159.19468637961182,144.51876469915027,149.96022875676965,198.73883182010715,195.6876716705224
0.0667334000667334,9.089645082672124,35.39882691292321,173.93398022545173,158.3604171315658,145.31554282537442,149.8128002416326,197.59053956921025,195.34266010337964
0.1001001001001001,7.6704233074593935,35.204061760609875,174.68736836155963,157.57904408973323,146.06140390710397,149.6887965320345,196.5694723146528,195.03709652021823
0.1334668001334668,6.576601738502754,35.006983035608066,175.28322928864986,156.85257081911865,146.75615446932517,149.58722000366794,195.6700882667232,194.76961163297835
0.1668335001668335,5.789440638638018,34.809736825504864,175.7335947705286,156.18300088472668,147.39960103702424,149.50707303222546,194.88684563570948,194.53883615360004
0.2002002002002002,5.290200270700998,34.61446921788733,176.050496571002,155.5723378515619,147.99155013518742,149.44735799339972,194.2142026319001,194.3434007940234
0.2335669002335669,5.060140897527508,34.42332630034253,176.24596645387626,155.022585284629,148.531808288801,149.4070772628833,193.6466174655835,194.1819362661886
0.2669336002669336,5.060140897527508,34.238454160457536,176.33203618295752,154.53574674893252,149.02018202285117,149.3852332163687,193.17854834704767,194.05307328203563
0.3003003003003003,5.060140897527508,34.061998885819406,176.32073752205196,154.11382580947708,149.4564778623242,149.3808282295486,192.8044534865812,193.95544255350472
0.333667000333667,5.060140897527508,33.89610656401521,176.2241022349657,153.7588260312673,149.8405023322063,149.39286467811556,192.51879109447228,193.887674792536
0.3670337003670337,5.060140897527508,33.74292328263202,176.05416208550494,153.47275097930773,150.17206195748378,149.42034493776217,192.3160193810092,193.84840071106936
0.4004004004004004,5.060140897527508,33.6045951292569,175.82294883747588,153.25760421860306,150.45096326314282,149.46227138418098,192.19059655648013,193.83625102104511
0.4337671004337671,5.060140897527508,33.48326819147691,175.5424942546846,153.11538931415785,150.6770127741697,149.51764639306464,192.1369808311736,193.8498564344033
0.4671338004671338,5.060140897527508,33.38108855687913,175.22483010093737,153.04810983097673,150.85001701555066,149.58547234010567,192.1496304153777,193.8878476630841
0.5005005005005005,5.060140897527508,33.30020231305061,174.88198814004028,153.0577693340643,150.9697825122719,149.6647516009967,192.2230035193809,193.94885541902752
0.5338672005338673,5.060140897527508,33.24275554757843,174.5260001357995,153.14637138842514,151.03611578931972,149.75448655143035,192.35155835347143,194.0315104141737
0.5672339005672339,5.060140897527508,33.21089434804991,174.16889785202255,153.31591955906518,151.04882337168166,149.85367956710024,192.5297531279392,194.13444336046427
0.6006006006006006,5.060140897527508,33.438738439529395,173.9975645939112,153.82627803322768,151.11830152617588,149.9455262921042,192.7235892677815,194.2575088924881
0.6339673006339673,5.060140897527508,33.700549569693244,174.2966017581726,154.45300654691113,151.09717759154697,150.0626316697222,192.9547670708083,194.41144179509547
0.6673340006673341,5.060140897527508,33.9692428506561,174.3514383008895,155.17260623317978,150.9551139302694,150.1948097341661,193.22281613497293,194.58785675282533
0.7007007007007008,5.060140897527508,34.18856550735326,173.71656575313628,155.90784022013102,150.7201749489561,150.32419140596963,193.51409990556692,194.78407730446332
0.7340674007340674,5.060140897527508,34.368730171416026,173.47086291125842,156.58280718969235,150.38385014572972,150.4146053203256,193.81063538920947,194.9848699713416
0.7674341007674341,5.060140897527508,34.52032790930724,173.3628929812969,157.26484412826812,149.95151561810067,150.50539262957147,194.1297893660744,195.19031767407563
0.8008008008008008,5.060140897527508,34.6802129227851,173.51396747757494,158.00202481298132,149.4104727472788,150.5673653385641,194.5499639289539,195.40418018916284
0.8341675008341676,5.060140897527508,34.813479892052584,173.7423451131433,158.7556614292871,148.79549254343172,150.64819422504215,194.9898056112517,195.6215771935879
0.8675342008675342,5.060140897527508,34.88106182313198,174.19840575328428,159.4062317820891,148.07708297518582,150.72681468563408,195.4580629200992,195.83640552844844
0.9009009009009008,5.060140897527508,34.9110487655012,174.55649918236458,160.0357823496022,147.33870556081047,150.8424188512105,195.88947041052103,196.02823362671745
0.9342676009342676,5.060140897527508,34.92603042805922,174.7484703491457,160.67699772722958,146.62537663472716,151.01538964652266,196.1978833864025,196.1762155958812
0.9676343009676344,5.060140897527508,34.91835444591055,174.97463580445657,161.35937108819823,145.9024087694957,151.23978555376084,196.46396108707185,196.3040219343394
1.001001001001001,5.060140897527508,34.898848320028435,175.28443970088148,162.06418926692294,145.03373271275962,151.50982547721298,196.9410233085626,196.4090567869892
1.0343677010343677,5.060140897527508,34.818609721723824,175.81911975864355,162.73014781581364,144.42241189760497,151.81162388662156,197.1029037385904,196.50269887812348
1.0677344010677343,5.060140897527508,34.742516208907986,176.25252415960463,163.40413033317463,143.84935826388104,152.10783657445808,197.1861402718997,196.61532590904892
1.1011011011011012,5.060140897527508,34.63194134402331,176.52884725534128,164.03002461840376,143.36447391146618,152.43078778716912,197.26150113248343,196.73373742648823
1.1344678011344678,5.060140897527508,34.49290686211957,176.70377990268491,164.65901573394302,142.8726976956267,152.78278794397607,197.44094124682525,196.8665909885959
1.1678345011678346,5.060140897527508,34.29903226122542,176.90956374012944,165.2315474144686,142.3964033998398,153.13338162455824,197.6990449082384,197.01183405022056
1.2012012012012012,5.060140897527508,34.09532556103141,177.50909609697308,165.78932152794152,141.82206239806564,153.4806132534185,198.1647577883428,197.1456891275793
1.234567901234568,5.060140897527508,33.78362156102825,177.87026377428447,166.21394504627767,141.22166021784253,153.8349959558948,198.67472164934367,197.273737129546
1.267934601267935,5.060140897527508,33.388876664126336,178.08764386570206,166.48813544810645,141.04822500495348,154.18789482037067,198.5674133059049,197.381347481214
1.3013013013013013,5.060140897527508,32.904877667794125,178.22718124760263,166.5850796909982,140.92769925455406,154.55844551427714,198.4589383615649,197.46837036285893
1.334668001334668,5.060140897527508,32.37799068633369,178.34561785853535,166.60185743587886,140.77245499415594,154.91767849553958,198.4436337461701,197.54210461699267
1.3680347013680347,5.060140897527508,31.79548771558621,178.69926937200697,166.57030757873906,140.6051392003986,155.2740915892488,198.53134595673777,197.6165548477367
1.4014014014014016,5.060140897527508,31.23565671048535,178.9651917243282,166.36443017798786,140.21710592118572,155.56627403962213,198.8963364944371,197.721312876155
1.4347681014347682,5.060140897527508,30.62375939472083,179.07463905432175,166.04740413576485,139.74042057811369,155.8143970620093,199.4703483862146,197.8487961302484
1.4681348014681348,5.060140897527508,29.998051850932868,179.05713310715072,165.6587595791437,139.26861362727882,156.04183120379898,200.17830267011504,197.96963015889148
1.5015015015015016,5.060140897527508,29.328121261027587,179.06884561233724,165.2335113237718,138.88235407060236,156.21986772821762,200.8793434714756,198.1062244921956
1.5348682015348682,5.060140897527508,28.683385840131663,179.09841269473168,164.85506423190574,138.4013362997233,156.35894592843638,201.7349703199316,198.2549997364036
1.5682349015682349,5.060140897527508,28.04682552961881,179.28183942027866,164.54785119887097,137.9061573400526,156.5255756522041,202.67199071484907,198.3962517574643
1.6016016016016017,5.060140897527508,27.41170316757302,179.4020454887402,164.2373469131942,137.39713286887368,156.6901282948932,203.65515663021807,198.5131239000912
1.6349683016349683,5.060140897527508,26.7517708642791,179.57715127779886,163.92165781175493,136.8929794101777,156.87206792757158,204.6566061452436,198.6160168183112
1.6683350016683351,5.060140897527508,26.180048380973687,179.789013170257,163.67335718615823,136.35911385906743,156.97515885155906,205.7266641561397,198.72049992097453
1.7017017017017018,5.060140897527508,25.549272435608493,180.21320787590813,163.30956999629564,135.7805755686243,157.0297368912829,206.83973990332288,198.8111179684088
1.7350684017350684,5.060140897527508,25.02378381895433,180.66105127660128,162.76503267702074,135.22863247533348,157.02893728685677,207.94534046617505,198.9102781393237
1.7684351017684352,5.060140897527508,24.31887158093004,181.2630164204521,162.0399261678417,134.60593263901646,157.03384810084677,209.02097735053124,199.0054338398246
1.8018018018018016,5.060140897527508,23.461476120568022,182.0463935839909,161.29212240849188,134.05366775841404,157.0143166995093,209.9312190368811,199.08498899185847
1.8351685018351689,5.060140897527508,22.41795246834481,183.07231677758432,160.36077939142987,133.55833335110265,156.97776696716076,210.76535113832688,199.13124640986024
1.8685352018685355,5.060140897527508,21.254679241955927,184.09392794655724,159.32892418209727,133.07024216865295,156.965137475807,211.5570702193808,199.1194968637354
1.901901901901902,5.060140897527508,20.02376103632197,185.25310723570905,158.2686394850263,132.58503005170232,157.0205785393073,212.36584339577743,199.06451476185984
1.9352686019352687,5.060140897527508,18.770613582075267,186.42129259282413,157.17279134959918,132.1099489542463,157.12710694938002,213.1718413476793,198.9747357718862
1.968635301968636,5.060140897527508,17.460295349653453,187.6705876797608,156.00551202765502,131.6851322343934,157.32992435356957,213.86376381229616,198.8451422147026
2.002002002002002,5.060140897527508,15.887309513553804,188.97582991870027,154.25889176714458,131.3205307199919,157.61564749435743,214.46008540192776,198.6785653928263
2.035368702035369,5.060140897527508,14.330058366158427,190.3054134944745,152.73741292788804,131.08151246514257,157.98165500520952,214.9136469794492,198.47760299301385
2.0687354020687354,5.060140897527508,12.982505675688598,191.63308111425093,151.67809263571905,130.9538256152727,158.406062404737,215.1765839369447,198.2389422905889
2.1021021021021022,5.060140897527508,11.746675758642445,192.92925297804496,150.91584030615022,130.86399349182872,158.83527752676775,215.40872511377188,198.00259108942748
2.135468802135469,5.060140897527508,10.667490278061155,193.82823963784904,150.33303244913824,130.80963701880844,159.24518744563392,215.56803379828528,197.77375158289453
2.1688355021688355,5.060140897527508,9.685192538740312,194.6907062560689,149.81366406679825,130.9728855806679,159.63429565437394,215.32698395483783,197.56971929015063
2.2022022022022023,5.060140897527508,8.73841492895812,198.30367052526373,151.9648016028078,131.03050178972163,159.97584196777578,215.2476160269433,197.39322270882712
2.235568902235569,5.060140897527508,7.792805503190785,201.1587721155044,153.57377268760803,131.06734428318643,160.32985250322938,215.219052600122,197.21491407571344
2.2689356022689355,5.060140897527508,6.886926595056893,203.0745153386043,154.68808068504865,131.06596944706973,160.6878844593538,215.1762426516905,197.03018518652576
2.3023023023023024,5.060140897527508,6.057125181962071,204.24662082060144,154.96415903833676,131.12696918515607,161.0389016478539,215.05835911277924,196.82370429318945
2.335669002335669,5.060140897527508,5.305849252110219,204.89853929978705,154.25966847938122,131.24060670087337,161.39763683052706,214.92406244691185,196.59587345029323
2.369035702369036,5.060140897527508,4.596153253014925,204.86569689775448,152.8357372576157,131.57778692011934,161.74415529223597,214.5595098256308,196.38253178212145
2.4024024024024024,5.060140897527508,3.709592235742481,204.170673964543,150.76292636848763,132.11099300710023,162.06261919344453,214.02202072742176,196.1913306193605
2.4357691024357693,5.060140897527508,2.942780553310964,202.98926759169527,148.32458239093728,132.3123545925106,162.3357042007179,214.1239292145769,196.05495744927865
2.469135802469136,5.060140897527508,2.942780553310964,200.983956837769,145.88338069706825,132.38775073509473,162.54922157669068,214.46698834882685,195.9871282511543
2.5025025025025025,5.060140897527508,2.942780553310964,198.47675139271612,143.26187624263812,132.388710329697,162.7087429004819,215.0123557365212,195.9884752906468
2.5358692025358693,5.060140897527508,2.942780553310964,195.2642975135437,139.70059347854144,132.28381996884465,162.80724714442823,215.7747122642849,196.0687742470412
2.569235902569236,5.060140897527508,2.942780553310964,191.6899538042863,135.66276795928147,132.24927736465236,162.88310003621422,216.53998611736256,196.18164216701
2.6026026026026026,5.060140897527508,2.942780553310964,187.73108653538,131.56429243162577,132.19760967537636,162.8716865298975,217.3174579176367,196.3582318065356
2.6359693026359694,5.060140897527508,2.942780553310964,183.69443847097435,126.81050903789888,132.14877647990204,162.79944030474547,218.1113735211646,196.56964991935305
2.669336002669336,5.060140897527508,2.942780553310964,179.58574269249584,121.40378278454662,132.00736132797698,162.69275870395674,219.0630946904824,196.79201536116605
2.702702702702702,5.060140897527508,2.942780553310964,175.4767705172081,115.9974984714248,131.96741833562095,162.56158814522672,219.99049113576564,197.00095550505003
2.736069402736069,5.060140897527508,2.942780553310964,171.04631316480555,110.61182431519345,131.97324987352133,162.41658103025807,220.91658050245653,197.1989645392003
2.7694361027694363,5.060140897527508,2.942780553310964,166.93215354710227,105.57232980518371,132.05962996189297,162.24993127509043,221.84344391066,197.4037535401508
2.802802802802803,5.060140897527508,2.942780553310964,163.30685051236324,100.86359956786173,132.19477673425402,162.05877645342585,222.7860082046063,197.6216085445569
2.836169502836169,5.060140897527508,2.942780553310964,159.93729526716024,96.64933752072372,132.44966456699478,161.88389713068634,223.6645886423433,197.84411329304697
2.8695362028695364,5.060140897527508,2.942780553310964,156.90432935195008,92.6065954612677,132.7943415327207,161.71633652793722,224.4687215501364,198.05837159585832
2.902902902902903,5.060140897527508,2.942780553310964,154.28819394471685,89.11091277915527,133.21504290086426,161.5842286154318,225.2058427298205,198.2315405438164
2.9362696029362696,5.060140897527508,2.942780553310964,152.01692786287614,86.02330848821872,133.6964384575735,161.47472993124913,225.85339937456905,198.36515911099067
2.9696363029696364,5.060140897527508,2.942780553310964,149.99078162709085,83.39108608708354,134.18195126992052,161.4229910821764,226.5206407554113,198.4546393746645
3.003003003003004,5.060140897527508,2.942780553310964,148.15234949841783,81.1326200283057,134.69160991113046,161.40880682485908,227.15685561010227,198.51627039609585
3.0363697030363697,5.060140897527508,2.942780553310964,146.7485274541265,79.50839140224768,135.26351611729103,161.4153464788557,227.7318152480426,198.5649360154119
3.0697364030697365,5.060140897527508,2.942780553310964,145.76054568447952,78.64350441057415,135.8898060504388,161.45538911924328,228.24150556126423,198.5984570789681
3.103103103103104,5.060140897527508,2.942780553310964,145.2940046466177,78.46102571469916,136.5595363800726,161.5211507658813,228.6928529972733,198.6014993223188
3.1364698031364697,5.060140897527508,2.942780553310964,145.28199928121677,79.23595570570527,137.25980997400129,161.61516871416055,229.08350862656016,198.5771480718045
3.169836503169837,5.060140897527508,2.942780553310964,145.73273661759606,81.53767846804969,137.97127014483243,161.7052804493484,229.3819958180665,198.51192896415344
3.2032032032032034,5.060140897527508,2.942780553310964,146.66080544035444,84.80241669872304,138.6761787270685,161.80431215361688,229.5788327192152,198.4041087670961
3.2365699032365702,5.060140897527508,2.942780553310964,148.03017271903758,88.72503472352793,139.3264044623071,161.89335360714628,229.7571262423432,198.26824025083155
3.2699366032699366,5.060140897527508,2.942780553310964,149.8495821935062,93.2967828303508,139.92514180986174,161.9784325893306,229.8845566222895,198.1031337711762
3.3033033033033035,5.060140897527508,2.942780553310964,152.62408618946412,98.50150658422308,140.47105347113288,162.0823577923844,229.97741819627603,197.90575270690312
3.3366700033366703,5.060140897527508,2.942780553310964,156.2053121151226,104.43662819618768,140.95008433311085,162.2267661444842,230.0623624006144,197.6342214051879
3.3700367033700367,5.060140897527508,2.942780553310964,156.90578312875758,107.69166167425423,141.3983782669671,162.4250811926172,230.14022134159944,197.32071210666007
3.4034034034034035,5.060140897527508,2.942780553310964,157.35758860465063,110.7976908050712,141.81381730010992,162.66530053985414,230.1766513303199,196.9520072911402
3.4367701034367704,5.060140897527508,2.942780553310964,157.8021476289712,113.47035990270822,142.21745728715916,162.9251610619778,230.2516435475003,196.57721533817485
3.4701368034701368,5.060140897527508,2.942780553310964,158.11378247271222,115.68679126763396,142.6050853507922,163.20493987636823,230.29366408185115,196.174896265542
3.503503503503504,5.060140897527508,2.942780553310964,158.0906576383639,117.7757442153918,142.96631414587213,163.45127031746983,230.31688777787244,195.82466688286857
3.5368702035368704,5.060140897527508,2.942780553310964,157.7996012938582,119.3318010065214,143.290139523466,163.69497711051156,230.3469857760208,195.48439292488592
3.5702369035702373,5.060140897527508,2.942780553310964,157.23084911099753,120.7099008262681,143.52647911805323,163.88732253562608,230.4051963384645,195.2420379006952
3.603603603603604,5.060140897527508,2.942780553310964,156.30829702646437,122.68479784346918,143.65675143851138,164.04535161136624,230.45048438720417,195.02546050889524
3.6369703036369705,5.060140897527508,2.942780553310964,155.53019617112778,123.9041389338252,143.70853422463293,164.12151991691564,230.5472893630012,194.9395413187136
3.670337003670337,5.060140897527508,2.942780553310964,154.7105553798435,123.62734578333227,143.70700797439432,164.1464907172318,230.67659127849143,194.923701154997
3.703703703703704,5.060140897527508,2.942780553310964,154.16066038867274,123.08763029569536,143.6559427317843,164.09411128350527,230.87745783380217,195.02661743900663
3.737070403737071,5.060140897527508,2.942780553310964,153.52780618560553,122.31254811058862,143.49690572857028,163.93684507366646,231.07856586210715,195.2451378118508
3.770437103770437,5.060140897527508,2.942780553310964,153.12540800980548,121.01163105244784,143.33541415390638,163.76894521326514,231.3497069663628,195.54321136898096
3.803803803803804,5.060140897527508,2.352129539180811,153.23072329749425,120.22295269383478,143.03124631666523,163.6190653864866,231.7953691489689,195.8353150968479
3.8371705038371706,5.060140897527508,1.909383703295818,153.33125556082916,119.6942748676315,142.68817620346823,163.45749452467186,232.3277966428045,196.2260836207636
3.8705372038705375,5.060140897527508,1.938158777315949,153.57241358287672,120.36079982530012,142.16071677320477,163.27022625167575,233.12188095307857,196.69049581892224
3.903903903903904,5.060140897527508,2.177401750452084,154.3000998143668,120.27677802740828,141.68962577841853,163.02568227606096,233.88770867663723,197.24752166850948
3.937270603937271,5.060140897527508,1.967701335340088,156.22718952130276,119.33304984919796,141.33990467326262,162.75808848059688,234.5027957422405,197.88897104744925
