Time,Left Shoulder Angle,Right Shoulder Angle,Left Elbow Angle,Right Elbow Angle,Left Hip Angle,Right Hip Angle,Left Knee Angle,Right Knee Angle
0.0,15.20906391091124,35.292577036907005,145.28477255398283,165.9510618960645,133.4903671937792,138.2573971241012,199.7897409675383,194.55915252157305
0.0333667000333667,15.563618233123725,34.38625058164984,147.39224584487437,164.53953456514932,133.8786404755894,138.86498886678555,199.8890897587674,194.47988498889035
0.0667334000667334,15.874806386910643,33.47519613230543,149.18156600618133,163.1649461912908,134.15505656415118,139.39113579446877,199.99518257025755,194.4233229019225
0.1001001001001001,16.14661876695748,32.56428563545422,150.67745548115303,161.83293260042376,134.3254755443508,139.84070138410542,200.10883056518617,194.38840517264788
0.1334668001334668,16.38304576794971,31.658391037676672,151.90463671303883,160.54912961848305,134.3957575010746,140.21854911265007,200.2308449067309,194.3740707130446
0.1668335001668335,16.58807778457281,30.76238428555325,152.88783214508825,159.31917307140353,134.3717625192088,140.52954245705732,200.36203675806925,194.37925843509103
0.2002002002002002,16.76570521151226,29.8811373256644,153.65176422055046,158.14869878512008,134.25935068363972,140.7785448942817,200.5032172823788,194.40290725076545
0.2335669002335669,16.919918443453533,29.01952210459059,154.221155382675,157.04334258556753,134.06438207925362,140.97041990127784,200.65519764283687,194.443956072046
0.2669336002669336,17.05470787508211,28.182410568912267,154.62072807471114,156.00874029868075,133.7927167909368,141.11003095500027,200.8187890026213,194.5013438109111
0.3003003003003003,17.174063901083464,27.374674665209906,154.87520473990833,155.05052775039456,133.4502149035755,141.2022415324036,200.99480252490943,194.5740093793389
0.333667000333667,17.281976916143076,26.60118634006394,155.0093078215159,154.1743407666439,133.04273650205602,141.25191511044235,201.1840493728789,194.6608916893078
0.3670337003670337,17.382437314946426,25.866817540054846,155.04775976278324,153.3858151733635,132.57614167126465,141.26391516607117,201.3873407097072,194.7609296527959
0.4004004004004004,17.479435492178986,25.176440211763072,155.01528300695975,152.69058679648833,132.05629049608766,141.2431051762446,201.6054876985717,194.8730621817816
0.4337671004337671,17.576961842526238,24.534926301769083,154.93659999729476,152.09429146195316,131.48904306141134,141.1943486179172,201.83930150265016,194.99622818824315
0.4671338004671338,17.67900676067365,23.94714775665333,154.8364331770377,151.60256499569292,130.88025945212195,141.12250896804355,202.0895932851201,195.1293665841588
0.5005005005005005,17.789560641306714,23.417976522996263,154.7395049894379,151.22104322364245,130.2357997531058,141.03244970357824,202.35717420915887,195.2714162815068
0.5338672005338673,17.912613879110893,22.95228454737836,154.67053787774475,150.95536197173652,129.56152404924913,140.92903430147584,202.6428554379442,195.42131619226527
0.5672339005672339,18.05215686877178,22.55494377638028,154.6542542852088,150.8111570659113,128.86329242543934,140.817126238692,202.9474481346552,195.5780052284144
0.6006006006006006,18.13237439490273,22.29419494644377,154.67440497811342,150.84952364231913,128.0512198465897,140.695102023815,203.4064217761394,195.7615038682406
0.6339673006339673,18.3110113418291,22.24131360114277,154.9279450229569,151.1918715984469,127.23192719848696,140.55054856671438,203.93182735758947,195.943520448564
0.6673340006673341,18.671966559887,22.31641211979528,155.58676364808898,151.67301140109583,126.43625793206228,140.42553373241978,204.4576347146892,196.1520666484291
0.7007007007007008,19.01678240231299,22.517055013166324,156.2295715469617,152.2910960335565,125.6660621195747,140.30173500310804,205.121408481912,196.34877960902625
0.7340674007340674,19.52034556095364,22.77088443258902,157.19562868943515,153.0474111017157,124.92895288848248,140.23003285891158,205.76324455570952,196.524133138618
0.7674341007674341,20.225414347051363,23.11292161243212,158.72364010688037,154.02781790888446,124.38944014743768,140.2177608129797,206.0746638775524,196.63730592092145
0.8008008008008008,20.91943117143297,23.4810030985073,160.58228719000252,155.16394782944107,123.9143027732143,140.26940678689311,206.29747754594672,196.7326773669552
0.8341675008341676,21.59813337591458,23.935852703929022,162.74467721177584,156.48737842820847,123.43913483641724,140.31468166425046,206.5372572518688,196.94211830930337
0.8675342008675342,22.23102163454537,24.425521311916228,165.10998505040502,157.94787300081487,122.98985992446418,140.419901712705,206.7675237468013,197.1553983670008
0.9009009009009008,22.820780832313424,25.02098012043889,167.4026763711627,159.60843595211048,122.4803249173007,140.60350444457814,207.07774149113243,197.34690873329947
0.9342676009342676,23.30204531124248,25.435676434842502,169.6068972256623,161.0550584568263,121.95712363671194,140.8881954493116,207.402755169546,197.4912775381451
0.9676343009676344,23.70777845206579,25.786527369874005,172.37229927438142,162.4307289585431,121.57818843995612,141.25612789852514,207.63514834701544,197.59042959989512
1.001001001001001,23.94761768946114,25.71330010605634,175.19267440621502,162.89876705734238,121.26455008469227,141.71090722971735,207.8225148980096,197.6485611507441
1.0343677010343677,24.079305037209664,25.71637102218752,178.34493877862204,163.66521620172267,120.83029728095376,142.10909014994814,208.08082649507773,197.81010555241767
1.0677344010677343,24.04555839257757,25.60062690750671,181.3245779998453,164.60134936478246,120.4209022241436,142.53743326629913,208.32678484421112,197.99868837113132
1.1011011011011012,23.83125540718753,25.29965029218957,183.817807008874,165.36218554288146,120.09236547058106,143.02572834665344,208.50743941793232,198.1505325752452
1.1344678011344678,23.410210781176385,24.8698955782016,185.80811821307847,166.09080821297604,119.84915837573536,143.59471231947663,208.64185480254432,198.22084472413144
1.1678345011678346,22.864242758510827,24.28312347777264,186.465772502328,166.81642212058603,119.7257358202465,144.24483748590018,208.7103054225071,198.216021936258
1.2012012012012012,22.21030959343708,23.454726773868355,186.3967310567549,167.3619416332237,119.68276132384744,144.94890153541164,208.7245934364851,198.1393185064425
1.234567901234568,21.587747348027644,22.25175147542508,186.3783169920514,167.95687342627377,119.71687551858824,145.70178106700837,208.714533838072,197.99059131878008
1.267934601267935,20.877987177983744,20.89092914010157,185.8511946136141,168.68525781696252,119.79379793932289,146.5000995174438,208.7065316832525,197.7620321465362
1.3013013013013013,19.942958296458634,19.513030417084188,184.35223834596388,169.87856315132873,119.92305184717888,147.32925342416243,208.66767460436657,197.45460080394287
1.334668001334668,18.82134941774651,18.101305232595085,182.47626233733672,170.88322789238745,120.06850276301414,148.16591069100173,208.62134897257704,197.0751787604032
1.3680347013680347,17.768487269865346,16.80443391984954,180.89709795796784,170.6410275278973,120.32630403502922,149.0101907486976,208.5129348201937,196.627988529535
1.4014014014014016,16.492337156284545,15.269905626234156,178.68764055288378,168.28314074935992,120.5648797609339,149.89738298280497,208.44259550928052,196.11736854050795
1.4347681014347682,15.29357058559014,13.921853681310226,176.15436937836483,170.25642989755448,120.77714927139908,150.68477528843312,208.40460452825693,195.6003733650738
1.4681348014681348,13.933177789609156,12.707520886408131,172.6233156114882,171.23586062649412,120.93540854477136,151.40765654581242,208.3963340245164,195.09357183685933
1.5015015015015016,12.6577275788229,11.32991078654174,167.66825157300966,171.07763093695274,121.0382023431613,152.0630376560729,208.41698105353885,194.5904420252417
1.5348682015348682,11.486845612086512,10.03690690899459,162.40988982871488,169.86040537753868,121.05753305055248,152.6015450330349,208.5020344926257,194.10941275627525
1.5682349015682349,9.958731956433416,8.705769048273572,156.4253926152978,168.10893850650257,121.00624803944582,153.033461558423,208.6459167599805,193.64766182377903
1.6016016016016017,8.510491052379956,7.550956463377651,150.4975276009476,165.6244980370224,120.90584735277608,153.3469136701271,208.8532968684276,193.2061336157565
1.6349683016349683,6.298386823566186,6.331840644046446,143.1099863842122,162.63266674060336,120.78446032047462,153.57377093640804,209.1096868342381,192.7849131159317
1.6683350016683351,4.554639036140371,5.498567541776673,136.29042935507667,158.96161454586655,120.6437757722629,153.76541243046344,209.463293838591,192.3890658479357
1.7017017017017018,3.4691354583788723,4.94214660037288,130.5370820151527,152.5771924448489,120.49590999356118,153.85000114707907,209.8951986724832,192.02576414326435
1.7350684017350684,2.89368426627237,4.738027368101393,125.42913131358996,146.1032252910929,120.43640489235496,153.89268241399355,210.3015545477257,191.6830579963776
1.7684351017684352,2.89368426627237,4.738027368101393,120.38107772201428,140.38677867231593,120.38040518063217,153.8563555169948,210.7355973873226,191.36695107213728
1.8018018018018016,2.89368426627237,4.738027368101393,116.06872418009392,134.488363456983,120.36675357258584,153.7905703760878,211.11870518698345,191.08554491199828
1.8351685018351689,2.89368426627237,4.738027368101393,111.49179374661055,128.36124366482198,120.39432606982244,153.66231769807715,211.49893253536573,190.82370322746428
1.8685352018685355,2.89368426627237,4.738027368101393,108.13888954831904,122.30081043474809,120.46577305973922,153.5013913904171,211.67908867264413,190.60933534835587
1.901901901901902,2.89368426627237,4.738027368101393,106.23145868595893,116.80558879576434,120.58025086687783,153.2956442122017,211.75319574717705,190.4535989248201
1.9352686019352687,2.89368426627237,4.738027368101393,105.24228137276326,111.53661582846844,120.53488501645376,153.03207209556174,212.080910990301,190.42059612714456
1.968635301968636,2.89368426627237,4.738027368101393,105.13013617159172,106.6936950058899,120.40090774931654,152.6946364719387,212.51506797245,190.50164777964164
2.002002002002002,2.89368426627237,4.738027368101393,105.8396600933767,102.02604775000246,120.24653617373748,152.3759187440673,212.96173931300743,190.5363246944076
2.035368702035369,2.89368426627237,4.738027368101393,107.4032192245175,97.55725589578128,120.06090600070652,152.03484494904467,213.4238026749308,190.5929703410652
2.0687354020687354,2.89368426627237,4.738027368101393,110.04953578114684,93.233818653511,119.97509020829708,151.66620350707612,213.7759867706789,190.678378374094
2.1021021021021022,2.89368426627237,4.738027368101393,113.6608750474172,88.978310518956,119.95443188416002,151.2839926296273,214.06591140016937,190.81541382724765
2.135468802135469,2.89368426627237,4.738027368101393,117.4248297860622,85.25960693589421,119.87488785911818,150.8827406620079,214.3832791843968,191.00771385466035
2.1688355021688355,2.89368426627237,4.738027368101393,121.58745417019836,82.2136280590975,119.80100983445296,150.44180295230797,214.6735614180737,191.2742157801988
2.2022022022022023,2.89368426627237,4.738027368101393,125.49204055318168,79.68094513343222,119.89505035407772,150.12025190725464,214.8509933491668,191.4398155883896
2.235568902235569,2.89368426627237,4.738027368101393,129.11670985785557,77.61842294546148,120.05687094757168,149.88148163069772,214.9745776206276,191.53650936732768
2.2689356022689355,2.89368426627237,4.738027368101393,132.73499189545728,76.24595674059084,120.23212264287712,149.70859621923609,215.0921396337993,191.5822834712244
2.3023023023023024,2.89368426627237,4.738027368101393,136.2442261304353,75.43237888253047,120.42923472948556,149.55657652344573,215.19883122938123,191.6221248982836
2.335669002335669,2.89368426627237,4.738027368101393,140.54111269322658,75.22552917468231,120.59476430734696,149.44136346990325,215.3379493170089,191.6375681073996
2.369035702369036,2.89368426627237,4.738027368101393,145.32196471921347,75.7065802667003,120.75497106919852,149.3884958892751,215.5224391485785,191.62609633495964
2.4024024024024024,2.89368426627237,4.738027368101393,149.58538345806045,76.60015607533715,120.86370599841952,149.36184998420993,215.72939468905795,191.60381913981945
2.4357691024357693,2.89368426627237,4.738027368101393,153.74572631520672,77.77456891478357,120.94390800325904,149.36326943939733,215.9165665674305,191.57219520420824
2.469135802469136,2.89368426627237,4.738027368101393,158.15290420728562,78.52857389119838,120.9804888007642,149.3887839704818,216.11355453662424,191.5439192734248
2.5025025025025025,2.89368426627237,4.738027368101393,162.29001791450284,79.27567768806652,121.00128967898767,149.4262316078889,216.34400597983424,191.52831432859824
2.5358692025358693,2.89368426627237,4.738027368101393,165.18054182070313,81.34963547033615,120.8752434025098,149.4617725567482,216.662268147846,191.5239277806008
2.569235902569236,2.89368426627237,4.738027368101393,167.37566876939428,86.18170348849006,120.76899186461948,149.62039099656823,216.9942087579967,191.3852849492116
2.6026026026026026,2.89368426627237,4.738027368101393,168.31410610158008,86.93639273701069,120.62966849986832,149.82564357198177,217.32682326060456,191.2411320003665
2.6359693026359694,2.89368426627237,4.738027368101393,168.69001026105622,87.44081998140632,120.48309966853095,150.07479767074972,217.63331619751133,191.08224499505585
2.669336002669336,2.89368426627237,4.738027368101393,169.43139449274165,87.59820353562765,120.29887866873688,150.30580338032627,217.94697264770505,190.9710843496538
2.702702702702702,2.89368426627237,4.738027368101393,169.37451254094756,87.70684906445976,120.0834646545744,150.5272209622721,218.2609475300428,190.86827842964263
2.736069402736069,2.89368426627237,4.738027368101393,169.84878175765743,86.84741410250699,119.82481707795864,150.66160819356574,218.57216473101784,190.8668342960096
2.7694361027694363,2.89368426627237,4.738027368101393,169.23916234590052,85.94258563067105,119.53119209495532,150.81635740398062,218.87064801223383,190.89523325322
2.802802802802803,2.89368426627237,4.738027368101393,169.70034386035877,83.52297872213286,119.16735730793164,150.8784285560275,219.1796648999099,191.0289919105523
2.836169502836169,2.89368426627237,4.738027368101393,171.05223051991953,80.115717733435,118.65805558597609,150.80244467113954,219.56165537035832,191.23840564111376
2.8695362028695364,2.89368426627237,4.738027368101393,171.273874709513,78.49686771761439,118.0693634003814,150.65838426692696,219.9679149536244,191.5593186998278
2.902902902902903,2.89368426627237,4.738027368101393,172.3808786727045,77.30566851761881,117.42266163181738,150.49112442148206,220.3989671856003,191.93824734989093
2.9362696029362696,2.89368426627237,4.738027368101393,172.2907152230531,75.52433973655631,116.7913756019244,150.22491835200543,220.79424753361243,192.4629322533212
2.9696363029696364,2.89368426627237,4.738027368101393,170.6443798210502,73.75575220764216,116.10251322556056,149.7684458958152,221.3232988952361,193.08364602353265
3.003003003003004,2.89368426627237,4.738027368101393,169.6134308810427,72.45537431624817,115.45832681208294,149.2577110314091,221.8088101795909,193.81075038960185
3.0363697030363697,2.89368426627237,4.738027368101393,170.76380760613677,71.61317821343995,114.71252785697376,148.72242482849614,222.47736527920333,194.624640778755
3.0697364030697365,2.89368426627237,4.738027368101393,169.8666399883344,70.63523783677782,114.07054426168554,148.15696561943722,223.00897863608725,195.5679460788841
3.103103103103104,2.89368426627237,4.738027368101393,163.21899933651707,67.82712837194511,113.37561783724692,147.6521470747813,223.54150234639908,196.4990300424441
3.1364698031364697,2.89368426627237,4.738027368101393,156.7203628084963,65.333818221471,112.8377809330895,147.16860248656116,223.89266452708293,197.4860244588848
3.169836503169837,2.89368426627237,4.738027368101393,150.41336990308852,62.91123439947543,112.38740507062488,146.7444076921642,224.24588010887,198.6985999259592
3.2032032032032034,2.89368426627237,4.738027368101393,144.62756397291068,61.04968952898469,112.21722547548728,146.38226757340934,224.31889908188344,199.98887672725184
3.2365699032365702,2.89368426627237,4.738027368101393,139.57135365314772,60.24994691413555,112.08713854878056,145.87687113430158,224.19140976887752,201.4113708718302
3.2699366032699366,2.89368426627237,4.738027368101393,135.1338820566236,60.373630914299554,112.27350937160352,145.2770818091033,223.7464373123968,202.86797123103932
3.3033033033033035,2.89368426627237,4.738027368101393,131.79341716096923,60.86377230772578,112.59360539214958,144.60954680463038,223.0939535679669,204.41753013268155
3.3366700033366703,2.89368426627237,4.738027368101393,128.58993739486743,61.64897700936308,113.1619801572098,143.94218670952898,222.1833262139002,205.92833238730304
3.3700367033700367,2.89368426627237,4.738027368101393,126.59600151994242,64.22306816350117,113.77391201199652,143.2888905512071,221.0284500800173,207.3874860969512
3.4034034034034035,2.89368426627237,4.738027368101393,125.20130448622945,67.43007677322062,114.63731340071269,142.61930658802666,219.63211666995045,208.7887836690228
3.4367701034367704,2.89368426627237,4.738027368101393,125.5143328384014,71.21775609533162,115.68137670242275,141.8653177337853,217.9689450573643,210.17072583716333
3.4701368034701368,2.89368426627237,4.738027368101393,125.18265735961988,74.73248251421434,116.94788102867834,141.23181242014564,216.1993885196431,211.4178542115504
3.503503503503504,2.89368426627237,4.738027368101393,123.57405547086547,77.7361129713768,118.47582293465108,140.6506292074502,214.4158400165,212.54721604839264
3.5368702035368704,2.89368426627237,4.738027368101393,122.71196101184287,80.85288110467299,120.3977186966814,140.27948757851811,212.42124467667267,213.55442819881603
3.5702369035702373,2.89368426627237,4.738027368101393,121.76165534187072,82.73536488120402,122.40288594081484,139.79367301314537,210.47261670791164,214.36301815950105
3.603603603603604,2.89368426627237,4.738027368101393,120.63609054877432,84.55255896271578,124.28910474276104,139.5841213874619,208.62922150397992,214.83022410853224
3.6369703036369705,2.89368426627237,4.738027368101393,121.06675641083557,87.82077667672262,126.4867242162484,139.63112861202347,206.4628415296269,215.0702875282976
3.670337003670337,2.89368426627237,4.738027368101393,121.74558640741265,92.63783951591422,128.6804253506553,139.9122175611639,204.37057511402207,214.9622028765595
3.703703703703704,2.89368426627237,4.738027368101393,122.45675105367168,96.161269056793,130.94455638982714,140.6783867254985,202.3565042116734,214.4503819628939
3.737070403737071,2.89368426627237,4.738027368101393,126.88100713779802,99.45336071298422,133.22495324279132,141.44570564988936,200.41810425219057,213.78399545788545
3.770437103770437,2.89368426627237,4.853527830487129,127.92067832926055,101.31611402368172,135.51124401563732,142.24449121807243,198.49461888521927,212.99299105764143
3.803803803803804,2.3718586688849426,5.222086951356971,130.07937123838622,102.01463645877286,137.73845159261663,142.9790682188896,196.67220808028964,212.06185508123733
3.8371705038371706,2.375356882521304,5.54466188579181,130.86017271921958,103.20953746721564,139.8807625794458,143.65805275056536,194.9740457083012,210.9477718487899
3.8705372038705375,-5.649713018598447,6.204283590942808,132.53609268203076,102.52860132336596,141.83044143010866,144.2299906406488,193.45271072057983,209.823311934328
3.903903903903904,-10.420148720229909,7.363933708862874,133.6557085002859,100.57597831846304,143.6281595699832,144.8474233125497,192.0576894777522,208.5717452104646
3.937270603937271,-12.308824951727622,8.895927163010901,134.36069254169053,96.04181883134773,145.28527619256147,145.41436780122584,190.87375585556669,207.21945634840336
