Time,Left Shoulder Angle,Right Shoulder Angle,Left Elbow Angle,Right Elbow Angle,Left Hip Angle,Right Hip Angle,Left Knee Angle,Right Knee Angle
0.0,4.891711044692631,4.563902710115031,180.4352717682032,169.50195255968944,156.1797233678811,200.19477472612772,184.36392257179915,183.87316426505137
0.0333667000333667,5.172078116710688,6.174912867864993,180.21046660997607,170.47488627815008,156.06849956011968,200.05893029643167,184.5407296657901,183.6831716382009
0.0667334000667334,5.37291990043086,7.566945381623561,180.00527482558036,171.3266200799657,155.94869720147946,199.91523583712527,184.6977220357813,183.55718741841173
0.1001001001001001,5.500424541800912,8.750839295694465,179.82037974874171,172.0657054681417,155.82324977347577,199.76686642571403,184.8357386510379,183.4888650370078
0.1334668001334668,5.560780186768606,9.737433654381435,179.6564647131862,172.7006939456835,155.69509075762386,199.6169971397032,184.9556184808249,183.47185792531303
0.1668335001668335,5.560174981281709,10.53756750198821,179.51421305263975,173.2401370155966,155.56715363543896,199.4688030565979,185.05820049440752,183.49981951465145
0.2002002002002002,5.504797071287984,11.162079882818515,179.3943081008283,173.6925861808864,155.44237188843638,199.3254592539037,185.1443236610509,183.56640323634693
0.2335669002335669,5.400834602735197,11.621809841176088,179.2974331914778,174.06659294455832,155.32367899813138,199.1901408091257,185.21482695002007,183.66526252172343
0.2669336002669336,5.254475721571112,11.927596421364658,179.2242716583142,174.3707088096178,155.21400844603923,199.0660227997693,185.27054933058025,183.790050802105
0.3003003003003003,5.071908573743492,12.090278667687958,179.1755068350634,174.61348527907032,155.11629371367516,198.9562803033399,185.3123297719966,183.93442150881552
0.333667000333667,4.859321305200102,12.120695624449722,179.15182205545142,174.80347385592125,155.0334682825545,198.86408839734267,185.34100724353416,184.09202807317897
0.3670337003670337,4.622902061888708,12.029686335953675,179.15390065320415,174.94922604317605,154.96846563419248,198.79262215928296,185.3574207144581,184.2565239265193
0.4004004004004004,4.368838989757074,11.828089846503564,179.18242596204752,175.05929334384015,154.9242192501044,198.74505666666604,185.3624091540336,184.4215625001604
0.4337671004337671,4.103320234752963,11.526745200403104,179.23808131570752,175.142227260919,154.90366261180546,198.72456699699728,185.3568115315257,184.58079722542632
0.4671338004671338,3.832533942824141,11.13649144195604,179.32155004791008,175.20657929741805,154.90972920081097,198.734328227782,185.3414668161996,184.72788153364093
0.5005005005005005,3.562668259918372,10.6681676154661,179.43351549238116,175.2609009563427,154.94535249863625,198.7775154365254,185.3172139773204,184.85646885612832
0.5338672005338673,3.29991133198342,10.132612765237011,179.57466098284667,175.31374374069838,155.01346598679646,198.85730370073287,185.2848919841532,184.96021262421232
0.5672339005672339,3.050451304967069,9.540665935572603,179.74566985303397,175.37365915349204,155.11700314680817,198.97686809791128,185.2453398059647,185.0327662692184
0.6006006006006006,2.7868706520819795,8.935340968043237,180.0392967229243,175.51233209346225,155.38631907352274,199.2315795941678,185.169314833315,185.01378049277537
0.6339673006339673,2.545153456545292,8.282352518545261,180.35769460775705,175.63242582865809,155.69775471100692,199.54951773843584,185.08491086895472,184.91172202817444
0.6673340006673341,2.390827539642296,7.623475098128289,180.59945834760663,175.84598991943815,156.04022922295167,199.87745038810223,184.99718382300267,184.8030432554745
0.7007007007007008,2.349889296513068,6.977295568264755,180.8354639161449,176.0065419459188,156.4359350101031,200.2415439590568,184.9131574543616,184.62158609715337
0.7340674007340674,2.3387626512997763,6.352434809325249,181.19768582973583,176.24932889139598,156.8491827942579,200.67542487876315,184.8443697880905,184.3299627399737
0.7674341007674341,2.3387626512997763,5.717238005162698,181.4128632878277,176.58476784582368,157.29342638701283,201.18202033111697,184.7835393393977,183.9307352908907
0.8008008008008008,2.3387626512997763,5.050403080026989,181.6932324743224,177.0366861965921,157.72735227994502,201.75816789127484,184.75023907706912,183.4419759228595
0.8341675008341676,2.3387626512997763,4.366960644035144,182.1033912016319,177.59143551119237,158.14735707128827,202.4063700752904,184.73453828577908,182.8432040209966
0.8675342008675342,2.3387626512997763,3.711191054901352,182.50073374653783,178.1939499910367,158.57342259065808,203.12706697983467,184.73896249556844,182.12758651840565
0.9009009009009008,2.3387626512997763,3.1075630120081787,183.0355925503464,178.96595349137257,159.00747936585736,203.8568602572741,184.7746536852444,181.37199217568264
0.9342676009342676,2.3387626512997763,2.515223686734036,183.63182635680656,179.91810935818748,159.47984627337945,204.60269113204143,184.8148098250553,180.6051352488195
0.9676343009676344,2.3387626512997763,2.0049666674701223,184.3468661120721,180.95078227404545,159.97369542424067,205.3583537777563,184.8655045003333,179.8198273446543
1.001001001001001,2.3387626512997763,1.608291289953763,184.9783290353771,181.8917859649436,160.47642490557058,206.1118580235428,184.94272722547709,179.04534201637816
1.0343677010343677,2.3387626512997763,1.3831290304924857,185.6676923223768,182.7998169451536,160.97098854635033,206.8621836548903,185.03721867963435,178.2882041641658
1.0677344010677343,2.3387626512997763,1.3316777599331475,186.48572608618488,183.6920886127781,161.38609539335465,207.597497689425,185.16421622638845,177.55586189713702
1.1011011011011012,2.3387626512997763,1.3316777599331475,187.0446507857067,184.6063447350261,161.77307520137458,208.32653025066315,185.3027923458706,176.85049524631674
1.1344678011344678,2.3387626512997763,1.3316777599331475,187.5924327499024,185.45344927943148,162.08580066948196,208.9971211578413,185.44327385052569,176.18721343255322
1.1678345011678346,2.3387626512997763,1.3316777599331475,188.0663388931647,186.26578659730643,162.40994830958985,209.6480940883988,185.5664945605516,175.54142515618673
1.2012012012012012,2.3387626512997763,1.3316777599331475,188.14307389787749,187.1230687353654,162.72111860496602,210.22229216820784,185.66786163641103,174.9494110903751
1.234567901234568,2.3387626512997763,1.3316777599331475,188.746966047108,188.11224705075483,162.90340389602724,210.6627519243881,185.80905848452872,174.46139764477857
1.267934601267935,2.3387626512997763,1.3316777599331475,189.625843278218,189.1515783194196,163.01126901551444,210.97718360630097,185.9439579660774,174.04851275177168
1.3013013013013013,2.3387626512997763,1.3316777599331475,190.4639218596629,190.1024284058663,163.06866521428626,211.1651193993069,186.0988519133432,173.7246607680268
1.334668001334668,2.3387626512997763,1.3316777599331475,191.04178045912013,190.9286709941191,163.0977224194776,211.2294679373041,186.2699592925553,173.50950020890238
1.3680347013680347,2.3387626512997763,1.3316777599331475,191.47686483618224,191.6220478352312,163.06799023872233,211.1446884068634,186.45897027657665,173.40612362419722
1.4014014014014016,2.3387626512997763,1.4463944945714546,191.8578510329781,192.03063247366887,163.02130131294442,210.92542024402132,186.64048430427425,173.41239475859155
1.4347681014347682,2.3387626512997763,1.4463944945714546,191.54285494344225,192.49045758785,163.01238099667182,210.5877766276516,186.80971702172872,173.51147967583407
1.4681348014681348,2.3387626512997763,1.4463944945714546,191.17938955863127,193.1174202570101,163.061336040948,210.1737394041088,186.95446673607657,173.78026414099702
1.5015015015015016,2.3387626512997763,1.4463944945714546,191.41635094544264,194.2074096385027,163.17464979335278,209.7283227253245,187.08070016926123,174.16803381167517
1.5348682015348682,2.3387626512997763,1.4463944945714546,192.3703574265442,195.3852101516344,163.29302254710768,209.2092285038291,187.21419573271405,174.6352984104282
1.5682349015682349,2.3387626512997763,1.4463944945714546,193.19993073538825,196.71036276182457,163.41129720478662,208.6063073496439,187.3443567812789,175.19353693587908
1.6016016016016017,2.3387626512997763,1.7544860101264614,196.2141950192525,198.36601508381835,163.4937321005321,207.9748868252836,187.47843134726503,175.82992352760155
1.6349683016349683,2.3387626512997763,1.7544860101264614,198.65416494042483,203.9396025522545,163.576239893118,207.27811109131315,187.60032335179417,176.50781192881195
1.6683350016683351,2.3387626512997763,1.7544860101264614,200.44631877379857,208.16048378526912,163.70634035029587,206.6148205309025,187.7162605918273,177.14907343309713
1.7017017017017018,2.3387626512997763,1.7544860101264614,201.6998422804745,208.8743267044898,163.85778008218435,205.90776861376983,187.80936712053605,177.74647863474715
1.7350684017350684,2.3387626512997763,1.7544860101264614,202.30042524827763,211.6577212861957,164.0048509729013,205.153258939612,187.9191543447137,178.34452638096113
1.7684351017684352,2.3387626512997763,1.7544860101264614,202.49420009184325,213.6726968572981,164.1555809263991,204.3549141061804,188.0412811997384,178.90845982693563
1.8018018018018016,2.3387626512997763,1.7544860101264614,202.4800601420317,214.6022623113562,164.30648678554306,203.5481854681484,188.171267225866,179.43210189361287
1.8351685018351689,2.3387626512997763,1.7544860101264614,202.33888810909005,219.85396799186256,164.47104534028531,202.76939686442708,188.32230370495265,179.83281277888824
1.8685352018685355,2.3387626512997763,1.7544860101264614,201.5883584032904,220.65713974978505,164.6312970313481,202.07996974602528,188.470466534922,180.11720934116187
1.901901901901902,2.3387626512997763,1.7544860101264614,199.8635418961784,222.8869110515122,164.78509320617945,201.397573547366,188.62209177664823,180.3143158334622
1.9352686019352687,2.3387626512997763,1.7544860101264614,198.5133588112346,220.10171678697503,164.94536193144813,200.7768935767284,188.78148811404475,180.42571792018572
1.968635301968636,2.3387626512997763,2.156464071514616,196.5273031781078,215.6207621009912,165.11082537201688,200.23025062834208,188.9346662337093,180.44448452571152
2.002002002002002,2.3387626512997763,2.156464071514616,194.25145442413503,210.61917145626344,165.29223357645722,199.74613905630767,189.07122701625624,180.4202553158034
2.035368702035369,2.3387626512997763,2.156464071514616,191.65265108479693,205.8439414092423,165.5187847102913,199.2867834960133,189.1746644204537,180.39086722241584
2.0687354020687354,2.3387626512997763,2.156464071514616,188.3599481277008,199.4862845112773,165.7905740538121,198.8936829922624,189.22689227277985,180.3050356073308
2.1021021021021022,2.3387626512997763,2.156464071514616,184.94476524180183,193.6587866356236,166.03070136979832,198.56621381833983,189.23396525584923,180.1511641842118
2.135468802135469,2.3387626512997763,2.156464071514616,181.74982915351933,186.9163706982013,166.22878626938382,198.3346952022529,189.2113101877508,179.95200197466815
2.1688355021688355,2.3387626512997763,2.156464071514616,178.12047907930022,179.25228755857455,166.4080016239025,198.18923834241644,189.1113428532648,179.6822126879692
2.2022022022022023,2.3387626512997763,2.156464071514616,174.2941357744746,171.25553930842537,166.5847658768796,198.1217355155881,188.9238792591733,179.34518874962563
2.235568902235569,2.3387626512997763,2.156464071514616,169.96232023526758,164.78985919209228,166.77811961814945,198.1082250679845,188.65445966699892,178.94948258786889
2.2689356022689355,2.3387626512997763,2.156464071514616,165.78649845536737,158.4504255383795,166.9259851081716,198.10107850084307,188.30285096252047,178.54209610284332
2.3023023023023024,2.3387626512997763,2.156464071514616,158.98131391778455,151.7722510644362,167.01714341128098,198.07046508803128,188.0110948810205,178.11757899569764
2.335669002335669,2.3387626512997763,2.156464071514616,153.6070110682296,145.68240819373216,167.11246208622208,198.0654808127602,187.63777108875152,177.69236960197225
2.369035702369036,2.3387626512997763,2.156464071514616,149.35331716875143,139.4422217305224,167.2131758554033,198.10096659622096,187.2092383064376,177.2824344934897
2.4024024024024024,2.416173340730517,2.156464071514616,145.36146775552672,133.19194788679386,167.3250673127892,198.17699036107493,186.71268303724543,176.87025341663423
2.4357691024357693,2.416173340730517,2.650298190763359,140.46033125521197,128.40936747285883,167.4578314373139,198.30089009217863,186.17133772301776,176.48838955656737
2.469135802469136,2.416173340730517,2.650298190763359,141.8147096011214,123.70990121730244,167.62271258358442,198.49085058263884,185.55652552232044,176.14863085377513
2.5025025025025025,2.581225527437183,2.650298190763359,141.3033357939724,121.4963645675968,167.67085350541353,198.91129679780235,184.9041154518752,175.78470285034194
2.5358692025358693,2.581225527437183,2.650298190763359,140.76354001357197,112.77418327146292,167.6076920122792,199.59045054122225,184.20544980715587,175.43577480681415
2.569235902569236,2.581225527437183,2.650298190763359,138.77407569417164,108.8343841637288,167.79599764344522,200.09848225086972,183.50338197946664,175.13401785256883
2.6026026026026026,2.581225527437183,2.650298190763359,140.59976960799997,107.26431600764252,168.10359844234227,200.2671768160844,182.7656086593173,174.82963686086768
2.6359693026359694,2.581225527437183,2.650298190763359,144.52581124607516,105.91062657485917,168.39180431401164,200.32051473724889,182.01846660858703,174.62271759089325
2.669336002669336,2.745526801670251,2.650298190763359,147.68374707979856,105.87592080887414,168.6186826040182,200.3112706023873,181.2599637437684,174.4884453786568
2.702702702702702,2.745526801670251,2.650298190763359,146.45146688910748,106.03958950223831,168.86332835478092,200.27455997564104,180.44297347790567,174.36491964304494
2.736069402736069,2.745526801670251,2.650298190763359,146.47772280571493,106.40907852359184,169.15673752234017,200.208344009822,179.57659410314116,174.2117789963655
2.7694361027694363,2.745526801670251,2.650298190763359,144.80395999671123,109.25922792072603,169.53336997863863,200.01648417623124,178.64435307967346,174.0573673375744
2.802802802802803,2.745526801670251,2.650298190763359,146.2947828593096,108.91471825754222,169.93863450540917,199.71889940904663,177.73907218838227,173.94818671976873
2.836169502836169,2.745526801670251,2.650298190763359,144.80688106104594,107.55570078101336,170.4353105715884,199.4214245836369,176.77143830892973,173.8599646846092
2.902902902902903,3.006199597687223,2.650298190763359,143.86674702591324,110.71994173383648,170.976431400354,199.178049838336,175.89951562545497,173.7419365503945
2.9362696029362696,3.006199597687223,3.173391362393878,145.69265197177657,113.3147350180692,171.51330048535058,199.0652550363548,175.11706853230197,173.5944462485295
2.9696363029696364,3.006199597687223,3.173391362393878,145.90042381702628,115.50896303429428,172.09511219255853,199.04317138827605,174.3881265104504,173.42146176099735
3.003003003003004,3.006199597687223,3.173391362393878,145.8795876977677,119.44622151039816,172.75882480306856,198.9923692973732,173.63373377156313,173.36983830474557
3.0363697030363697,3.006199597687223,3.173391362393878,145.5452821716769,116.8766616663469,173.4049800923216,198.94806215491897,173.0778894314545,173.4659184722576
3.0697364030697365,3.006199597687223,3.173391362393878,145.32792855144456,114.52047369098231,173.86875954424946,198.89674217241364,172.8146397967923,173.6214726511939
3.103103103103104,3.006199597687223,3.173391362393878,143.71350404973583,106.94340090515227,174.15478030425527,198.92513153792467,172.79213715610737,173.86527840363405
3.1364698031364697,3.006199597687223,3.173391362393878,142.36282841457782,101.19949874599769,174.33056853252765,199.12060111574016,172.98469425091983,174.1816613234552
3.169836503169837,3.2741808569485498,3.173391362393878,141.49232635237234,95.86767747876434,174.40068434364755,199.3322394738896,173.35551948568846,174.51303478915705
3.2032032032032034,3.2741808569485498,3.173391362393878,140.95707185172614,92.56088035780226,174.36891213515057,199.3107226971488,173.8900736632162,175.0464177267476
3.2365699032365702,3.2741808569485498,3.173391362393878,140.49989136660648,88.40220995691888,174.22373327838957,199.17401894289307,174.6417839581922,175.7748560221685
3.2699366032699366,3.2741808569485498,3.173391362393878,141.1158867813639,80.03204229901226,173.9630014631581,199.04275241037257,175.6229190491844,176.53194068197553
3.3033033033033035,3.2741808569485498,3.173391362393878,141.83786898349848,72.40007077290036,173.5733408231282,198.8992967427682,176.79432991238602,177.3530620640259
3.3366700033366703,3.2741808569485498,3.173391362393878,142.34974584424688,66.31952672564563,173.13225096656416,198.3536399391633,177.99490492878348,178.64266300744043
3.3700367033700367,3.2741808569485498,3.173391362393878,143.19959819197817,63.30120371248132,172.68687828316473,198.170407828974,179.32559967454995,179.8077584315645
3.4034034034034035,3.2741808569485498,3.173391362393878,145.09081349530223,62.167470678992565,170.89650856157496,199.36493805112084,180.45510767017612,181.35892655394704
3.4367701034367704,3.2741808569485498,3.173391362393878,147.1440076510348,61.43414202187925,169.5794279442546,199.5886359207382,183.51558403845817,182.379624099464
3.4701368034701368,3.607656710230275,3.173391362393878,149.29164437287187,61.70189345628661,168.38471049603328,200.4930266610726,184.36192728513555,184.0597594028429
3.503503503503504,3.607656710230275,3.173391362393878,154.6212660922623,64.15074235975412,168.68482868507465,201.2309724310619,185.91820318937627,183.91242699601275
3.5368702035368704,3.607656710230275,3.87870726250909,159.32297146767252,68.0794830444348,169.9401686892744,200.83075350028133,186.72716499983744,184.9690961638184
3.5702369035702373,3.607656710230275,3.87870726250909,164.42672726143968,73.25292344486058,171.1055831922116,200.34877143053225,187.47160367159785,186.4123109477215
3.603603603603604,3.607656710230275,3.87870726250909,169.60633755953165,79.71516853388778,172.3272848132647,200.51752110271943,187.8643915456183,188.2118687318778
3.6369703036369705,3.607656710230275,3.87870726250909,178.0405725895766,84.78817460219483,173.48507838343843,200.55155279367588,188.264519126462,189.6978982645191
3.670337003670337,3.607656710230275,3.87870726250909,180.0765687350176,89.93917099057973,174.5844375941038,200.8708983095688,188.6589101054041,190.86479709266385
3.703703703703704,3.607656710230275,3.87870726250909,183.65950779163816,91.9792301906868,175.91924297092936,201.270015365356,188.84456628647084,191.90918281676
3.737070403737071,3.607656710230275,3.87870726250909,186.94877969620464,101.43201770471887,177.59906426260474,201.48626757972363,188.89136155604552,192.7576469020942
3.770437103770437,3.607656710230275,3.87870726250909,191.9075182895522,108.2310344029661,179.10954096173344,201.7452370622686,188.796919170532,193.43718443585576
3.803803803803804,3.9527464642752608,3.87870726250909,193.56793579917849,113.33833289233203,180.620233276252,202.2981396822597,188.50134905488656,194.0031092534664
3.8371705038371706,3.9527464642752608,3.87870726250909,192.1702510103777,118.76882338542336,182.1663060436513,203.0318002160331,188.03857420952733,194.3305893273564
3.8705372038705375,3.9527464642752608,3.87870726250909,189.6662123456266,123.97451596876108,183.7899534087353,203.95508986336097,187.3556558008103,194.4189139205432
3.903903903903904,3.9527464642752608,3.87870726250909,190.835262965586,130.6730646892468,185.50178443570613,205.09893064954989,186.53183944369508,194.260264018884
3.937270603937271,3.9527464642752608,3.87870726250909,191.6801247784008,138.71634393184772,187.2062796781397,206.35919670885025,185.6471486758593,193.98701171180463
3.9706373039706375,3.9527464642752608,3.87870726250909,192.35694474540568,145.59603334176245,188.9268021735149,207.8818875284739,184.71150616432712,193.5875559625956
