Time,Left Shoulder Angle,Right Shoulder Angle,Left Elbow Angle,Right Elbow Angle,Left Hip Angle,Right Hip Angle,Left Knee Angle,Right Knee Angle
0.0667334000667334,-39.79036394621736,-29.732807334266955,190.27013969635888,160.43582682447777,161.9991537330907,198.6865857004391,171.7338804990022,167.17122727351403
0.1001001001001001,-20.29229927155158,-15.93741102721864,185.50881354764985,159.12478768762207,163.32517059786684,196.15201166572643,173.61451318844723,168.74426364508415
0.1334668001334668,-2.657848703137738,-2.7715473327106643,181.4370062832112,158.1150434969817,164.42165976029173,193.93115279352355,175.3929808906968,170.08580674333845
0.1668335001668335,13.198153826905212,9.750981445427296,178.01232081404316,157.38538332526545,165.3039329812332,192.0048949594138,177.06287265621532,171.20748391860934
0.2002002002002002,27.360874386458327,21.61637300336557,175.1923600511458,156.91459624518208,165.98730202155906,190.3541240389806,178.61777753546713,172.12092252122918
0.2335669002335669,39.91547904340266,32.810825037274455,172.9347269055193,156.68147132944037,166.4870786421371,188.95972590780744,180.05128457891658,172.83774990153032
0.2669336002669336,50.94713386561924,43.3205352433243,171.1970242881638,156.6647976507491,166.81857460383523,187.8025864414776,181.3569828370281,173.36959340984515
0.3003003003003003,60.54100492098913,53.1317013176854,169.93685511007945,156.84336428181703,166.99710166752118,186.86359151557463,182.52846136026605,173.72808039650607
0.333667000333667,68.7822582773934,62.230520956528096,169.11182228226642,157.19596029535296,167.0379715940628,186.12362700568184,183.5593091990948,173.9248382118454
0.3670337003670337,75.75606000271304,70.60319185602269,168.6795287157248,157.70137476406563,166.9564961443279,185.56357878738265,184.44311540397868,173.97149420619556
0.4004004004004004,81.54757616482917,78.23591171233952,168.59757732145482,158.33839676066387,166.76798707918425,185.1643327362605,185.17346902538213,173.8796757298889
0.4337671004337671,86.24197283162277,85.11487822164887,168.8235710104566,159.08581535785638,166.48775615949975,184.9067747278988,185.7439591137695,173.66101013325778
0.4671338004671338,89.92441607097496,91.2262890801211,169.31511269373024,159.92241962835195,166.13111514614218,184.7717906378809,186.1481747196052,173.3271247666346
0.5005005005005005,92.68007195076672,96.55634198392652,170.02980528227596,160.82699864485946,165.7133757999793,184.74026634179032,186.3797048933536,172.88964698035173
0.5338672005338673,94.59410653887916,101.09123462923544,170.92525168709386,161.77834148008756,165.24984988187902,184.7930877152104,186.4321386854789,172.36020412474153
0.5672339005672339,95.7516859031933,104.8171647122182,171.9590548191841,162.75523720674505,164.75584915270912,184.9111406337245,186.2990651464457,171.7504235501364
0.6006006006006006,96.2379761115902,107.72032992904508,173.08881758954686,163.73647489754077,164.2466853733374,185.0753109729161,185.9740733267183,171.07193260686867
0.6339673006339673,96.13814323195118,109.78692797588714,174.27214290918369,164.70084362518477,163.73767030463293,185.26648460837012,185.4507522767627,170.33635864527213
0.6673340006673341,91.17492934105589,102.32726924876955,175.29663338598445,165.5262273618502,163.20391710854014,185.1043724352974,184.6814075915464,169.577191190651
0.7007007007007008,87.65118880824801,96.5776434594723,176.57014734722188,166.76532857621476,162.88202229992143,184.85853203715223,183.819659649966,168.92614958180647
0.7340674007340674,85.34047372907841,99.2898918099398,177.93600750314965,171.08251861565392,162.82467387381473,184.7549375796543,182.60234734331564,168.10594239875286
0.7674341007674341,84.25828206976458,94.1170990727218,179.7539341658226,171.76495301988544,162.7473343143121,184.6259837241995,180.99893396253708,167.33765267514983
0.8008008008008008,85.35558796132777,89.25389705883158,180.8219518996345,172.9044052294187,162.61932310754577,184.4244705719784,178.93606632346504,166.8372355632339
0.8341675008341676,87.3291145487259,86.8129883209525,181.5689760879984,172.02410005759654,162.61505726768172,184.05164935983663,176.5396637670132,166.3021613842647
0.8675342008675342,90.35993538879822,85.47684046334794,181.52360704909245,170.32008680560318,162.65695792632624,183.449604337362,173.85884937021677,165.79215065395314
0.9009009009009008,93.92137809643924,85.46960316096991,181.20067555290427,169.95889964562107,162.84755217763563,182.93284829941857,170.9651985949338,165.1545630987107
0.9342676009342676,98.9735324793709,88.00367762285605,179.8905291975542,166.50801828581433,163.11511857327244,182.25351087420967,167.91042080107695,164.7351867572048
0.9676343009676344,104.20402419757352,89.88788731586968,178.59134811321178,165.5952264547963,163.55668551248056,181.68335913890647,164.8057191445423,164.2380743395679
1.001001001001001,109.51088052128058,92.938386265726,177.08121246464958,163.80271363434107,164.07551825934317,181.17268011203052,161.76761784396194,163.7208928114073
1.0343677010343677,114.83982185034333,103.35332574500708,175.15404638499083,159.73179421956618,164.68392112802837,180.6935934372416,158.74791752849453,163.236761581408
1.0677344010677343,120.92588897517838,110.85965113521584,171.79670809575092,156.27253906548873,165.34085498317057,180.2203973004169,155.78232548935696,162.83143450257575
1.1011011011011012,128.00042800154586,117.46910903460436,168.12129561346154,152.98228160582906,166.16457777365792,179.7607142694613,152.91245548627927,162.50140235651224
1.1344678011344678,135.44407975528085,123.23345929119134,163.40456771654846,148.97384621420812,167.09879736280035,179.26801636254652,150.18410182569812,162.22963366338297
1.1678345011678346,148.4182072974282,134.90508304691923,161.5620110427669,146.04580118501775,168.27959110526223,178.18217743521916,147.48427982253764,162.84696948175
1.2012012012012012,161.56565391326507,146.43073906009056,159.57148569440557,143.26901274998065,169.49337057369155,177.13158841586815,144.95262109442572,163.49527550677016
1.234567901234568,174.63575139476205,157.49845583755422,157.39490684560118,140.68957754058297,170.72278059451097,176.14337329811633,142.6205741190524,164.14371203689882
1.267934601267935,187.377831533892,167.7962618861598,154.99418967049223,138.353592188312,171.95046599414445,175.24465607558804,140.51958737410922,164.761439370593
1.3013013013013013,199.54122612262725,177.0121857127571,152.3312493432171,136.30715332465522,173.15907159901602,174.46256074190757,138.6811093372877,165.31761780630964
1.334668001334668,210.8752669529404,184.8342558241956,149.3680010379142,134.5963575811,174.33124223554967,173.8242112906993,137.13658848627924,165.78140764250563
1.3680347013680347,221.1292858168044,190.95050072732533,146.06635992872205,133.26730158913378,175.4496227301694,173.3567317155876,135.91747329877543,166.121969177638
1.4014014014014016,230.052614506191,195.048948928996,142.38824118977897,132.36608198024393,176.49685790929922,173.0872460101968,135.05521225246775,166.30846271016358
1.4347681014347682,237.39458481307352,196.8176289360572,138.29555999522344,131.93879538591784,177.45559259936311,173.0428781681512,134.5812538250477,166.3100485385394
1.4681348014681348,242.9045285294244,195.94456925535872,133.7502315191939,132.03153843764292,178.3084716267851,173.2507521830752,134.5270464942068,166.0958869612224
1.5015015015015016,246.33177744721576,192.1177983937505,128.71417093582872,132.69040776690662,179.03813981798913,173.73799204859318,134.9240387376365,165.63513827666952
1.5348682015348682,247.4256633584204,185.02534485808224,123.14929341926636,133.96150000519629,179.62724199939925,174.5317217583294,135.80367903302832,164.89696278333767
1.5682349015682349,245.9355180550108,174.35523715520338,117.01751414364529,135.89091178399934,180.05842299743944,175.65906530590826,137.19741585807378,163.8505207796838
1.6016016016016017,241.61067332895985,159.7955037919639,110.28074828310386,138.52473973480315,180.31432763853368,177.1471466849541,139.13669769046436,162.46497256416484
1.6349683016349683,234.2004609722397,141.03417327521356,102.90091101178056,141.90908048909515,180.377600749106,179.0230898890913,141.6529730078916,160.70947843523783
1.6683350016683351,223.4542127768232,117.75927411180209,94.83991750381377,146.0900306783628,180.2308871555804,181.3140189119441,144.77769028804698,158.55319869135965
1.7017017017017018,209.1212605346828,89.65883480857899,86.05968293334196,151.11368693409344,179.85683168438086,184.047057747137,148.5422980086219,155.9652936309872
