Time,Left Shoulder Angle,Right Shoulder Angle,Left Elbow Angle,Right Elbow Angle,Left Hip Angle,Right Hip Angle,Left Knee Angle,Right Knee Angle
0.0,11.687179274352314,12.632651636202253,177.089336358136,172.89476790200277,145.79504199450616,175.09832700178777,186.0785068032689,183.8304485599304
0.0333667000333667,11.714515939187542,13.047361611474113,175.88067518500742,172.5781221040769,145.09859005813914,174.5381501444441,186.5932104566752,183.88925248573705
0.0667334000667334,11.780036621341305,13.434572632938378,174.90895354119604,172.31432222303386,144.4843379253726,174.05693578378077,187.0568972588187,183.95795515869725
0.1001001001001001,11.882141529341002,13.797139031610726,174.15780936327687,172.09979700432604,143.94805925882855,173.64964005496506,187.4727630249668,184.0366896441533
0.1334668001334668,12.019230871714036,14.137915138506829,173.6108805878249,171.93097519340597,143.48552772112882,173.3112190931643,187.84400357038675,184.12558900744764
0.1668335001668335,12.189704856987811,14.459755284642362,173.25180515141523,171.80428553572608,143.09251697489532,173.03662903354586,188.17381471034585,184.2247863139225
0.2002002002002002,12.39196369368973,14.765513801033004,173.0642209906229,171.71615677673884,142.76480068274998,172.82082601127698,188.4653922601113,184.33441462892043
0.2335669002335669,12.624407590347191,15.058045018694424,173.03176604202287,171.6630176618967,142.49815250731467,172.65876616152502,188.72193203495056,184.4546070177836
0.2669336002669336,12.885436755487603,15.340203268642302,173.13807824219023,171.6412969366522,142.2883461112113,172.5454056194573,188.9466298501308,184.58549654585445
0.3003003003003003,13.173451397638363,15.614842881892312,173.36679552769996,171.64742334645769,142.1311551570618,172.4757005202412,189.1426815209193,184.7272162784753
0.333667000333667,13.486851725326876,15.884818189460129,173.70155583512715,171.67782563676573,142.02235330748806,172.4446069990439,189.3132828625834,184.87989928098847
0.3670337003670337,13.824037947080544,16.152983522361428,174.12599710104678,171.72893255302873,141.957714225112,172.44708119103288,189.4616296903904,185.0436786187365
0.4004004004004004,14.18341027142677,16.422193211611884,174.6237572620339,171.79717284069918,141.93301157255547,172.47807923137535,189.5909178196076,185.2186873570616
0.4337671004337671,14.563368906892954,16.695301588227167,175.17847425466357,171.87897524522955,141.94401901244044,172.5325572552387,189.7043430655021,185.40505856130608
0.4671338004671338,14.9623140620065,16.975162983222965,175.77378601551078,171.97076851207228,141.98651020738876,172.60547139779018,189.80510124334145,185.6029252968124
0.5005005005005005,15.37864594529481,17.26463172761494,176.3933304811506,172.06898138667984,142.05625882002238,172.69177779419718,189.8963881683928,185.8124206289228
0.5338672005338673,15.810764765285288,17.566562152418776,177.020745588158,172.17004261450472,142.14903851296316,172.786432579627,189.9813996559235,186.03367762297967
0.5672339005672339,16.257070730505436,17.88380858865026,177.63966927310958,172.2703809410007,142.26062294883414,172.88439188924846,190.06333152120223,186.2668293443269
0.6006006006006006,16.718580456619303,18.21852493788592,178.23146982835954,172.2491440383664,142.3232947810672,172.9137433784779,190.2100526800849,186.5311749267601
0.6339673006339673,17.18024702988738,18.56318334442886,178.6608693124354,172.31850086065646,142.38752940858683,172.93043375412245,190.33638963926137,186.78624411386687
0.6673340006673341,17.70819993991371,18.924916960419925,179.04256558602714,172.31498867200304,142.4908983986953,172.93837210043307,190.45584615195185,187.05930466747603
0.7007007007007008,18.22058927965509,19.318145237043417,179.27172758343073,172.27663518970775,142.6099218720539,172.97374917945044,190.57257566649392,187.288021518301
0.7340674007340674,18.741566654169013,19.753015602856728,179.3711649746996,172.16795447181434,142.71818830396984,172.9996777856151,190.7011951797824,187.53482823354284
0.7674341007674341,19.181528967958343,20.07068206338655,179.34526474883563,171.9213460412008,142.80849232110944,173.10289645695715,190.82837085863625,187.81184911366373
0.8008008008008008,19.64435044802688,20.54544061410889,179.13530534708482,171.75449266936803,142.88335637384233,173.15865114461445,191.00388051853923,188.14662356592595
0.8341675008341676,20.11237944543259,21.360027156020973,178.93926320301975,172.72734856822035,142.95030432524288,173.15274706540026,191.236042672878,188.5051376247516
0.8675342008675342,20.578329375913707,22.513576095720943,178.7491377092482,174.05232821345007,143.04847888879317,173.06351623073763,191.47173797940903,188.89407315990732
0.9009009009009008,20.790991661298328,23.68844895947626,178.14845336618006,174.87242327252875,143.2324451702447,172.93315471037346,191.65736137899805,189.29814656964533
0.9342676009342676,21.048152005334657,24.72209830810126,177.4430546608399,175.19420615734845,143.44777884084812,172.75628768274916,191.81127542003816,189.70385937226123
0.9676343009676344,21.163530675745218,25.59338520633518,176.71567962729722,175.80815674482292,143.66637544063093,172.54453357540544,191.95980337793964,190.0771750622792
1.001001001001001,21.32179968633729,26.369538965934147,175.8126307507811,176.03158670174983,143.8844065187276,172.26980101991543,192.1130798445812,190.46482076516097
1.0343677010343677,21.5502408987295,27.063375444133857,174.89099966619904,175.714952043978,144.0778286262877,171.9207687541472,192.2683272059884,190.8843566019524
1.0677344010677343,21.905766983152247,27.496183417772805,173.84763574119197,174.69093383605144,144.2164923446542,171.49355246949767,192.4319181635199,191.3329697974184
1.1011011011011012,22.461022131078376,27.690474743791,173.12169813188223,173.32265129309118,144.26402191462518,171.03560101509072,192.59739708006416,191.783656653874
1.1344678011344678,23.212802925546264,27.92127509823504,172.3518841484559,171.55960437022782,144.2384924673696,170.48364366159757,192.76467117999303,192.2972206558589
1.1678345011678346,24.222311482922564,28.11527824325696,171.5586702172072,169.56842077142693,144.19883004601053,169.90811793707164,192.8860606268748,192.7744629110871
1.2012012012012012,25.278702701940457,28.399801627012184,170.6905064650614,167.27671254604945,144.2111587736702,169.2882803457451,192.97621846266367,193.2931594355299
1.234567901234568,26.09230428530226,28.39271268122137,169.43607667930544,164.39957463614357,144.2515590663579,168.66200022046178,193.02651849883665,193.84940985720525
1.267934601267935,26.971615171465608,28.07267078433848,168.17244349917385,160.40780753289744,144.34948645675195,168.01025005077165,193.0418663755296,194.43352997579152
1.3013013013013013,27.704080717738844,27.93278517428005,166.58662933057678,156.66396227896183,144.53137963394772,167.37597044209704,193.02652123497376,194.93593719765948
1.334668001334668,28.5198205638127,28.08723090732088,165.03870535970216,153.18548463906598,144.73929215510046,166.7198968349885,193.00101862012616,195.4373764150076
1.3680347013680347,29.335741907567485,28.22545047601625,163.68938931582989,149.6410651278045,144.9405332572658,166.0463650765067,192.9697001351886,195.94806724798207
1.4014014014014016,30.3079768411833,28.772335583625427,162.3582097000199,146.39142855616277,145.0915258222428,165.3008096359213,192.9671992066644,196.51940502614428
1.4347681014347682,31.374011790371505,29.46544266917594,161.72609985193628,143.40075374286698,145.22569653852338,164.4764451342916,192.9756476970616,197.1091736863121
1.4681348014681348,32.512029515893325,30.500212521770496,160.70891627583862,140.73131894172778,145.31151275499732,163.59097999559515,193.06148330761468,197.78929227332208
1.5015015015015016,33.55393332397811,31.73181420131853,159.476445998763,138.44204337430853,145.347148310549,162.62750895894698,193.2040228545956,198.58972816716212
1.5348682015348682,34.77359993916253,33.25702921666872,158.1727710857362,136.37916782010197,145.37662928612167,161.6294086956546,193.3325850518457,199.4670101516383
1.5682349015682349,35.92442110527248,34.882695871946815,157.24282276804908,134.59950361031017,145.41474473772084,160.6599608731851,193.47322582511845,200.3138154725369
1.6016016016016017,37.15703745842284,36.78618727174012,156.60504242259307,133.1741616538759,145.4260406560993,159.7124658797428,193.64542195985925,201.19775981633893
1.6349683016349683,38.5039759669836,38.9248773256809,156.0152358185352,132.51690983771925,145.3804990402564,158.75976806659006,193.8501274557014,202.14538884362423
1.6683350016683351,40.15523361019713,41.32173211817965,154.95001791859005,132.04561245150654,145.31494464689567,157.84495377925592,194.0648591965195,203.1336303283147
1.7017017017017018,42.22608121011013,43.798452303501655,153.64796812263245,134.00075715464166,145.18780058991956,156.99004217036145,194.29576815019016,204.12656162222035
1.7350684017350684,44.14559701435992,46.46298165554319,151.6033225769538,136.06071543428848,145.0415971402951,156.19448772068503,194.5245107397276,205.1280911737121
1.7684351017684352,45.35905028933968,49.418958858923645,150.89371324021425,136.08265169490292,144.91833620295392,155.46258188797967,194.7647147661961,206.0860767537137
1.8018018018018016,46.72565562480611,52.62719715475475,146.95808593927842,135.86383557446285,144.83630932029752,154.81741177075463,195.03446188235392,207.03746352136835
1.8351685018351689,48.97818824722256,55.80121395513852,147.65485387543413,137.51879789692822,144.8083928487551,154.25131738599586,195.31507641387685,207.9750104592438
1.8685352018685355,51.70488578590364,59.13560542448823,147.46106850862284,139.51287035713102,144.81940128083855,153.74710452275662,195.59432672923108,208.9769285027184
1.901901901901902,54.98600664885594,62.67201790951096,147.64987140830294,140.5274122245454,144.9214711306453,153.3669040083676,195.8742910526726,209.97787958378257
1.9352686019352687,59.16120522279561,66.58793312568135,146.21991290614636,141.71914198113657,145.09938833965256,152.97615662506868,196.1556372545588,210.98014793201207
1.968635301968636,61.71400456276253,70.67785592652749,149.94088452133838,143.73050777274838,145.31889475424575,152.69065246040074,196.4520100318388,211.84050302657576
2.002002002002002,63.266868217068506,74.49853472464703,150.6585077746156,144.82011566190351,145.5714095109431,152.49636233923513,196.73934661692,212.6532606825804
2.035368702035369,63.54761389145519,77.69161193426521,149.51888947554878,145.3428722560092,145.8147668888481,152.40976108192504,196.9999962048981,213.4107218687545
2.0687354020687354,64.01356414103894,80.45202291396751,148.07626310789774,145.72920249825322,145.97873765777493,152.37119271456257,197.2948543425701,214.1497959535026
2.1021021021021022,64.32367771473284,82.74618585507885,146.58701823047406,146.0620522727177,146.15753957432148,152.41528609179687,197.61641268000616,214.8272404685065
2.135468802135469,64.76455104002677,84.74552847157446,142.4225278472608,145.33556630363947,146.29539956533415,152.4823040061714,197.9369958476589,215.5244666618988
2.1688355021688355,65.25519156910451,86.31075732612133,139.20942492186586,143.9850782979384,146.38299898793238,152.6016913599406,198.2285897089234,216.199058147626
2.2022022022022023,65.99345360597135,87.54697804924858,137.13573795364547,142.27854813505664,146.43114880230243,152.75468469140708,198.5077920693641,216.883813726339
2.235568902235569,67.42673366339243,88.64193576894044,135.7062571543373,140.57991573767208,146.45318029263927,152.96813708115522,198.76255329748983,217.49188553252225
2.2689356022689355,69.20357122540918,89.6373773205092,134.77669940187687,138.40455836463534,146.49889011868032,153.1677889652917,198.9761815935993,218.07171808490293
2.3023023023023024,73.2560050847177,90.77494736417415,135.46841884617683,135.69830662264764,146.5549985961309,153.37885904557524,199.1652276419388,218.57968268748763
2.335669002335669,78.38595190749874,91.81740187357556,137.25466592742583,132.83418490399328,146.5878552653935,153.52612749439618,199.3402710868958,219.14172077545533
2.369035702369036,81.97090394750279,92.52509835328604,139.14121175561326,129.7603941633464,146.5819339997039,153.65506426887933,199.4627772437569,219.70289451601064
2.4024024024024024,84.68353929807529,93.26639269504854,141.4155561698159,126.75376997000843,146.571421535037,153.72034455788662,199.5730445623184,220.256368646106
2.4357691024357693,86.46916863376816,94.24651531435808,143.58734538983015,124.8506811162642,146.5709460615724,153.75302751137113,199.6634440893188,220.7547696687715
2.469135802469136,87.43509692511455,94.82360625291516,146.06590869348585,122.57663647609078,146.53790903596808,153.7028918425322,199.7475042679416,221.31489447147047
2.5025025025025025,87.54167903392674,94.9669805317465,152.6508512558436,119.87760970131292,146.45366279366368,153.49351164566184,199.73896961646528,221.95684944698584
2.5358692025358693,86.99045958000882,95.05489960886418,157.2034618622658,117.44526055170012,146.43353993683917,153.2063813469346,199.7166439968956,222.6313172918955
2.569235902569236,85.30794399754198,94.87077832798644,158.7705983676801,115.0685670544224,146.39500047385025,152.89055434852705,199.70805539760963,223.3001251164104
2.6026026026026026,83.0001845433566,94.50413440361044,159.55216436771107,112.83273101454893,146.33842817234864,152.5982883623884,199.7157405264312,223.9859612921836
2.6359693026359694,80.26254464676406,94.36230679690271,160.41181651635728,111.18023590544534,146.25255263406518,152.2950149697021,199.7459643571558,224.66621991267857
2.669336002669336,76.39014150173838,93.82559907216152,162.95587252838283,109.2520951910442,146.09633252407016,152.04784702228437,199.84876638031,225.27413891660345
2.702702702702702,70.63540775926946,92.7283420221562,165.00226823806955,107.65469340900796,145.89800380561434,151.82076118404893,200.0074972293366,225.8116825442886
2.736069402736069,66.41335303428015,91.40781198436969,164.59374032132982,106.4389165363766,145.66823604408853,151.59151654388415,200.21214040371208,226.3698209992984
2.7694361027694363,63.62751343189773,89.86490652864325,163.6345000511281,105.5189669163301,145.41582944264638,151.36546668339054,200.4606832569493,226.95111681383423
2.802802802802803,60.43187080069772,88.11094970599459,162.8173805123314,104.51147213592417,145.16469533769254,151.17754295215943,200.7422818224319,227.4832829580748
2.836169502836169,56.92659002503705,85.99384231053965,161.76605592546017,103.76883246317468,144.94840430540637,150.9943887447502,201.04803530905264,227.98498331855944
2.8695362028695364,52.91143225398144,83.7812687368788,161.58393896889322,100.61457546110194,144.79453867950923,150.79260915560005,201.34677320048283,228.47425629905817
2.902902902902903,48.91575521453099,81.60771104093676,162.81423489450987,96.6581015149263,144.72248098449,150.62498454343046,201.63098444412708,228.88198938862143
2.9362696029362696,45.768670210359645,79.29610411102583,163.04707892492397,94.65378633666424,144.69638330439886,150.49427000393064,201.89104951697144,229.2377061785669
2.9696363029696364,42.5110129638979,76.44257678695814,167.72007156936456,93.44807780758468,144.70316084920307,150.40833580790783,202.10726076601867,229.55075527022387
3.003003003003004,37.7879782180943,73.66247848690965,168.69360482824877,90.75003769179524,144.72472562810682,150.38902498215535,202.3150862225506,229.7986047749565
3.0363697030363697,34.38378005056591,71.1440351222182,169.57305969373698,87.69140647007202,144.78442995299574,150.2800649371781,202.5008048422963,230.1874313437628
3.0697364030697365,30.158319563112407,68.63556581891496,169.6898001231058,85.7313609435229,144.80847156118537,150.15795445515658,202.7062704077221,230.50383011201043
3.103103103103104,23.892197300108272,65.7645554474126,172.31574178229832,84.15459033548225,144.7789637358776,150.0757127447609,202.86371810793665,230.7079866523137
3.1364698031364697,18.48072691081366,62.82185821547268,168.74933362238386,82.15660937193691,144.76072419826832,149.9993989145048,203.031145708856,230.88987424882723
3.169836503169837,13.497012166765684,60.14924716062061,166.0107383888393,80.32922889123029,144.74596292761217,149.88825799568994,203.20380517189489,231.15882696221183
3.2032032032032034,9.807190048471904,58.073513809798655,163.79232874137256,78.92305108722275,144.7548725523206,149.81837815623336,203.3943975669143,231.3175528078453
3.2365699032365702,6.894026225754457,56.26888504957434,163.4708513969801,77.9807900287904,144.81777906274615,149.7696862412053,203.5698932852572,231.4269688552028
3.2699366032699366,4.926742507678839,55.64128458989079,161.1706130736085,78.13193857110946,144.80375834726664,149.73795834796172,203.7397049400867,231.41773108622309
3.3033033033033035,4.926742507678839,56.10743801954483,163.23983525515106,78.90332980780015,144.76058771686388,149.76534331550894,203.93730263281472,231.2906938803145
3.3366700033366703,4.926742507678839,56.95731208143094,164.49603677264113,79.8863807551017,144.6905328970641,149.8099521702145,204.1558866377438,231.0367585318525
3.3700367033700367,4.926742507678839,57.86392356228327,164.39926524452193,80.55136583125423,144.4634956988166,149.70840379223463,204.45176467592776,230.8634533658164
3.4034034034034035,4.926742507678839,59.450822936444666,165.45393527233696,81.26146849298716,144.17083507766887,149.60583594120192,204.741422854604,230.54176074835863
3.4367701034367704,4.926742507678839,62.94557111618656,167.09356727332585,79.97136888699792,143.77493455141638,149.34807374315372,205.08051333159463,230.1387193906012
3.4701368034701368,4.926742507678839,65.45755120789383,168.27213914820854,79.49866993740923,143.38793318141455,149.18705001943567,205.3185629055047,229.47313012215548
3.503503503503504,4.926742507678839,67.65632499149596,168.75240925135034,81.75345905963128,143.0220552391197,149.02268516354658,205.5302819814792,228.8599309585319
3.5368702035368704,4.926742507678839,68.94850171957262,168.90001085565697,83.71447584505265,142.73394433137997,148.98932533776002,205.672268347998,228.03779948565665
3.5702369035702373,4.926742507678839,69.61901240917204,168.9731292793079,85.42557506972177,142.55014435369273,149.05165343547634,205.7150391457237,227.0174790165866
3.603603603603604,4.926742507678839,69.85472031334047,169.0760706757043,87.05631531194264,142.4457401507545,149.32092050067888,205.66830895584184,225.6606378456329
3.6369703036369705,4.926742507678839,69.54616774978878,168.48961822671205,87.88295413784351,142.51185237169653,149.68507212433647,205.43807297343352,224.2151225379856
3.670337003670337,4.926742507678839,68.95693203130821,163.44794116691045,88.86463295249543,142.70014351788882,150.3180917982163,205.1751797306148,222.43322927631465
3.703703703703704,4.926742507678839,68.16222017545736,161.06434183210237,89.05477517022246,142.97683672253572,151.07237355521198,204.7764289448235,220.54020138104937
3.737070403737071,4.926742507678839,66.8767456276082,161.45084718664313,89.69690422931227,143.26649526515305,151.97870061361624,204.33834284570088,218.3986667830437
3.770437103770437,4.926742507678839,65.45904379618545,161.73268180898452,90.76451680605985,143.6745017130546,153.02279763828545,203.8665771208516,216.0891981638312
3.803803803803804,4.926742507678839,63.13640181106863,161.65301400429416,91.67238767098496,143.98130301954512,154.186839787858,203.4377841823604,213.603956852435
3.8371705038371706,4.926742507678839,60.72633800756976,159.855186667096,93.26202644779453,144.12445704955624,155.3076558364764,203.0415674859156,211.13415093124783
3.8705372038705375,4.926742507678839,58.1856800563544,157.81243676862763,95.33700678201193,144.16597942527338,156.48426765202186,202.6512922077927,208.6441793544694
3.903903903903904,4.926742507678839,55.597174779894026,157.84541942247762,97.46778163635972,144.1253019891143,157.74507282654125,202.28709030600328,206.1852219467791
3.937270603937271,4.926742507678839,52.63799979486717,158.6707857314467,100.05586368833158,144.02458803148104,159.03261558898404,201.8640615311228,203.7417752013204
