Time,Left Shoulder Angle,Right Shoulder Angle,Left Elbow Angle,Right Elbow Angle,Left Hip Angle,Right Hip Angle,Left Knee Angle,Right Knee Angle
0.4004004004004004,12.078072626474928,0.8579692368446912,185.75362468756964,154.44840199976946,154.13274398937276,189.3816806570628,193.1370667328456,180.4680421137089
0.4337671004337671,10.789716367740416,0.8579692368446912,185.3850365040144,155.45693487538935,153.39730356830228,188.79118386678329,192.8324215988013,183.03433475869485
0.4671338004671338,9.598202198946309,0.8579692368446912,185.1294090698157,156.49101153954004,152.76445216005962,188.35616296238612,192.5644509608663,185.2049259490666
0.5005005005005005,8.503669912351835,0.8579692368446912,184.98015088623853,157.54658836393082,152.22823232286558,188.06585659745363,192.3322336345648,187.00237353845856
0.5338672005338673,7.506259300216236,0.8579692368446912,184.9306704545476,158.6196217202709,151.78268661494113,187.90950342556792,192.1348484354208,188.44923538050503
0.5672339005672339,6.606110154798742,0.8579692368446912,184.97437627600772,159.70606798026952,151.4218575945071,187.8763421003113,191.9713741789587,189.56806932884027
0.6006006006006006,5.803362268358589,0.8579692368446912,185.10467685188388,160.80188351563592,151.13978781978437,187.955611275266,191.84088968070253,190.3814332370985
0.6339673006339673,5.098155433155013,0.8579692368446912,185.31498068344075,161.90302469807932,150.9305198489938,188.13654960401425,191.7424737561765,190.9118849589142
0.6673340006673341,4.490629441447249,0.8579692368446912,185.59869627194325,163.00544789930893,150.7880962403563,188.4083957401383,191.6752052209048,191.18198234792143
0.7007007007007008,3.9809240854945287,0.8579692368446912,185.9492321186562,164.10510949103406,150.70655955209278,188.76038833722043,191.6381628904115,191.21428325775463
0.7340674007340674,3.569179157556091,0.8579692368446912,186.35999672484445,165.19796584496385,150.67995234242406,189.1817660488429,191.63042558022087,191.0313455420481
0.7674341007674341,3.2555344498911687,0.8579692368446912,186.8243985917728,166.2799733328076,150.70231716957105,189.66176752858783,191.65107210585705,190.655727054436
0.8008008008008008,3.040129754758997,0.8579692368446912,187.3358462207061,167.34708832627453,150.7676965917546,190.1896314300376,191.69918128284425,190.10998564855265
0.8341675008341676,2.9231048644188107,0.8579692368446912,187.8877481129092,168.39526719707385,150.87013316719563,190.75459640677445,191.7738319267065,189.41667917803235
0.8675342008675342,2.904599571129845,0.8579692368446912,188.47351276964696,169.42046631691483,151.003669454115,191.3459011123805,191.8741028529681,188.59836549650944
0.9009009009009008,2.904599571129845,0.8579692368446912,189.08654869218407,170.41864205750667,151.16234801073358,191.9527842004382,191.9990728771532,187.6776024576181
0.9342676009342676,2.904599571129845,0.8579692368446912,189.72026438178565,171.38575079055863,151.34021139527226,192.5644843245296,192.147820814786,186.6769479149928
0.9676343009676344,2.904599571129845,0.8579692368446912,190.36806833971772,172.31774888778125,151.53130216595312,193.1702401382385,192.31942548139216,185.6189597222692
1.001001001001001,2.904599571129845,0.8579692368446912,191.07158196673544,173.38282351410697,151.58975861255925,193.6698230691471,192.4520805756509,184.83022701317503
1.0343677010343677,2.904599571129845,0.8579692368446912,191.75453305467428,174.3218806362332,151.67278937205464,194.0838761098828,192.62590764264445,184.02990194269515
1.0677344010677343,2.904599571129845,0.8579692368446912,192.45226908600253,175.07415949499585,151.77835654627268,194.4363723078356,192.86902392280064,183.2110797744669
1.1011011011011012,2.904599571129845,0.8579692368446912,193.11411584944804,175.46907979128815,151.8742624955286,194.70555526127387,193.22687829000355,182.41279459262185
1.1344678011344678,2.904599571129845,0.8579692368446912,193.85578426624687,175.87046798434028,151.97221701725684,194.95354272014148,193.589620524202,181.6069049701552
1.1678345011678346,2.904599571129845,1.4374366417592015,194.47306053965565,175.9718662982328,152.0568118787309,195.20206027082648,193.96013531714337,180.7879965340803
1.2012012012012012,2.904599571129845,1.4374366417592015,194.7108718124934,176.11764103745713,152.1896872785775,195.4686098993149,194.34002455996884,179.95599607144223
1.234567901234568,2.904599571129845,1.4374366417592015,195.22065757392744,176.15862013334157,152.32175825377922,195.6720845469681,194.67789401780595,179.1844510458931
1.267934601267935,2.904599571129845,1.4374366417592015,195.1554742138104,176.48472553646218,152.3995488317123,195.81963455905023,194.99958519557973,178.49202150612228
1.3013013013013013,2.904599571129845,1.4374366417592015,195.2324112256318,177.19340089591935,152.44042703255093,195.89354363068688,195.2914577392829,177.85850847858978
1.334668001334668,2.904599571129845,1.4374366417592015,195.53360121359503,178.14941304498137,152.45967299740602,195.79054006091172,195.5901432434188,177.48401961838644
1.3680347013680347,2.904599571129845,1.4374366417592015,194.68776121443835,179.15207558182112,152.48102990389577,195.59813398476567,195.8843092120926,177.26747639726136
1.4014014014014016,2.904599571129845,1.4374366417592015,193.8125548911964,180.3981443967976,152.51775392475636,195.3533624240943,196.1654786029446,177.1879074682341
1.4347681014347682,2.904599571129845,1.4374366417592015,192.9961349873732,181.34842694022143,152.56687162369923,195.05209909577704,196.43141548956348,177.2390056954778
1.4681348014681348,2.904599571129845,1.4374366417592015,192.59981061176683,182.4820482123961,152.61061901329003,194.2737928743612,196.64518439590915,177.93177532532152
1.5015015015015016,2.904599571129845,1.4374366417592015,191.9944389662362,183.28113578668945,152.60800309149172,193.57822621448165,196.90115742798224,178.58991132900138
1.5348682015348682,2.904599571129845,1.4374366417592015,192.12067077778147,184.20002841500045,152.64527693090142,193.02136625277527,197.10997342484825,179.0602700285367
1.5682349015682349,2.904599571129845,1.4374366417592015,193.3474927023973,185.3477478073648,152.66601803830173,192.5133287451569,197.31205596560235,179.49345355972787
1.6016016016016017,2.904599571129845,1.4374366417592015,195.339984133204,186.7592273581694,152.70209717852862,192.0965024171179,197.48908405443711,179.81748448107857
1.6349683016349683,2.904599571129845,1.4374366417592015,198.21276614824345,188.2354571605108,152.73472124070565,191.72838717950347,197.64175265966293,180.11528621073958
1.6683350016683351,2.904599571129845,1.4374366417592015,200.78166905877808,189.6521821251244,152.77159554056115,191.414408902395,197.7612183363158,180.3460956540712
1.7017017017017018,2.904599571129845,1.4374366417592015,203.95770889152425,193.51381352995315,152.84753681095586,191.1669514999435,197.8471961933438,180.54509904668623
1.7350684017350684,2.904599571129845,1.988652677120493,205.7568875023994,196.5234637110469,152.8894804687148,190.8746459357668,197.9221586506117,180.73728612890272
1.7684351017684352,2.904599571129845,1.988652677120493,206.6030353846011,199.4360174172812,152.95327366389725,190.58078351678108,197.98321820265755,180.9002102457656
1.8018018018018016,2.904599571129845,1.988652677120493,208.56217747383124,201.8215910476795,153.15081699137266,190.30365870532123,197.9833902593737,181.0605963442624
1.8351685018351689,2.904599571129845,1.988652677120493,209.51461138214208,203.4263134145395,153.2738791721207,190.03844555278675,197.9209561005276,181.20590982718247
1.8685352018685355,2.904599571129845,1.988652677120493,210.47813883624883,204.01285902370327,153.42112507290216,189.80426224577533,197.8134852465716,181.3337700055115
1.901901901901902,2.904599571129845,1.988652677120493,211.51777447395253,204.10564835132791,153.594882724464,189.60396071074385,197.6549702218137,181.438106517401
1.9352686019352687,2.904599571129845,1.988652677120493,212.48895591205672,203.64669515577452,153.80049862146743,189.4379657767644,197.48075985276407,181.51139672834933
1.968635301968636,2.904599571129845,1.988652677120493,213.4576263439056,202.6696329075638,154.04874686720552,189.30608888822425,197.2767942535271,181.5622742162745
2.002002002002002,2.904599571129845,1.988652677120493,214.428127066538,200.9689355555582,154.3029631177797,189.1687874666241,197.0623056655489,181.59017521813345
2.035368702035369,2.904599571129845,1.988652677120493,214.9458384559653,198.36942517275767,154.5695443069329,189.0414272158625,196.8330388132306,181.591336805481
2.0687354020687354,2.904599571129845,1.988652677120493,215.2865329241922,195.26391201478543,154.84392549530762,188.8898097504241,196.60078870633475,181.6091678642714
2.1021021021021022,2.904599571129845,1.988652677120493,215.0364040783297,191.6751465499713,155.17454082078487,188.70468032079103,196.3560764008792,181.65859174561348
2.135468802135469,2.904599571129845,1.988652677120493,214.7725613357214,187.6523849976717,155.4953878949507,188.5184540341087,196.10403092712,181.70605118535696
2.1688355021688355,2.904599571129845,1.988652677120493,214.2329950821517,183.585587563669,155.76875970168362,188.338428824164,195.8379559954661,181.75850070066025
2.2022022022022023,2.904599571129845,1.988652677120493,214.8144873059012,179.23920556211212,156.05187611575363,188.1738476326104,195.5597017215181,181.8097430270641
2.235568902235569,2.904599571129845,1.988652677120493,215.26814102235005,174.508495214355,156.3031047772286,187.98125232743843,195.2681683666992,181.8798797365017
2.2689356022689355,2.904599571129845,2.515481191056268,215.60282219151492,169.642738340498,156.49984700107294,187.7848813724857,194.9704599813529,181.94582958911693
2.3023023023023024,2.904599571129845,2.515481191056268,214.4086698557551,164.4131076691546,156.65531233946277,187.57402611829943,194.6745820815325,182.0025966813461
2.335669002335669,2.904599571129845,2.515481191056268,213.5985412503714,159.4994460180557,156.82006668102403,187.3552710913569,194.3792630945384,182.0456002988544
2.369035702369036,2.904599571129845,2.515481191056268,212.8786841383101,155.38411749875317,156.87831309964986,187.12074957150853,194.0959057445801,182.0874659128224
2.4024024024024024,2.904599571129845,2.515481191056268,211.35086446939445,151.73104411280903,156.92830285623194,186.91341439478063,193.83234618117348,182.1077382575812
2.4357691024357693,2.904599571129845,2.515481191056268,211.1636286457131,147.74103134246477,156.99906937485244,186.70931606757853,193.605398232034,182.10953317718528
2.469135802469136,2.904599571129845,2.515481191056268,211.37700512949067,143.39653343510935,157.08064998972674,186.5392235628589,193.3937960389818,182.1113884284228
2.5025025025025025,2.904599571129845,2.515481191056268,210.77808521873845,138.80075470982194,157.1733042848056,186.36985970655985,193.21056915089204,182.10876841728785
2.5358692025358693,2.904599571129845,2.515481191056268,211.1827800037338,134.25052844433552,157.27681715109807,186.23140317955708,193.0448866234783,182.0947982799948
2.569235902569236,2.904599571129845,2.515481191056268,211.86672753000343,129.8159842229401,157.3724701812535,186.14738377671904,192.9026194699044,182.0614020796748
2.6026026026026026,2.904599571129845,2.515481191056268,212.9447935529797,126.23651564768352,157.43060739769552,186.09655700415803,192.78157920060025,182.00829432357745
2.6359693026359694,2.904599571129845,2.515481191056268,214.370677606144,123.2249809847788,157.46236604050225,186.05450651465017,192.69593817692405,181.947720717574
2.669336002669336,2.904599571129845,2.515481191056268,216.43127237571824,121.36858618638394,157.4989457191532,186.04468744663365,192.6207771035241,181.8741303396796
2.702702702702702,2.904599571129845,2.515481191056268,218.334604490834,120.81841819230831,157.5348372716109,186.11790649645465,192.5527592149109,181.78835439239208
2.736069402736069,2.904599571129845,2.515481191056268,219.83501214208468,120.82348097373264,157.58149552436646,186.25994657330727,192.49556954055387,181.68121331600787
2.7694361027694363,2.904599571129845,3.021786031694228,221.31717438012487,121.2884266823073,157.62045255025234,186.4349544104388,192.4543353964044,181.55739656027532
2.802802802802803,2.904599571129845,3.021786031694228,221.10891601422657,122.54840388763806,157.6884611492157,186.63309169547452,192.42041504838284,181.4028274492299
2.836169502836169,2.904599571129845,3.021786031694228,221.14762800230667,124.4076774402256,157.85409362695802,186.8745490213499,192.38436817637475,181.23346144004609
2.8695362028695364,2.904599571129845,3.021786031694228,219.44678616078824,124.299835561269,158.0354529640913,187.1207126304189,192.3081979724693,181.0446121185539
2.902902902902903,2.904599571129845,3.021786031694228,218.525745014856,124.65965259469064,158.21165206554167,187.38021550667708,192.21790519292048,180.83272807215823
2.9362696029362696,2.904599571129845,3.021786031694228,218.4034577979749,124.53573829825358,158.36761516963702,187.6314143032664,192.10040388480093,180.6097163978309
2.9696363029696364,2.984753667151331,3.021786031694228,216.1475646056824,124.99127731578945,158.3377996621297,187.87274446488752,191.9697683550034,180.3118864413325
3.003003003003004,2.984753667151331,3.021786031694228,214.099757341786,125.44160155556696,158.41606491358917,188.0924558371493,191.8173088110533,180.02756166470093
3.0363697030363697,2.984753667151331,3.021786031694228,211.57827334382344,126.69356109234684,158.4574311828451,188.2332772966233,191.6091815699836,179.71009735699414
3.0697364030697365,2.984753667151331,3.021786031694228,209.23415189905936,127.4654704630292,158.50023344993485,188.3207548464671,191.4245707269872,179.36560104807108
3.103103103103104,3.1637069447425112,3.021786031694228,207.2905715017737,128.17311403394007,158.5754399440336,188.4832245585299,191.3319980082721,179.03315653399662
3.1364698031364697,3.1637069447425112,3.021786031694228,205.6199650791424,128.11789634248348,158.7837531367797,188.70713217137904,191.2346595218719,178.7567300430551
3.169836503169837,3.1637069447425112,3.021786031694228,204.26145272626047,126.4228963139452,159.19867516718867,188.99592759058083,191.1768499624621,178.5006783901957
3.2032032032032034,3.1637069447425112,3.021786031694228,203.71748895863664,124.34010100684873,159.69734799708573,189.3779150360492,191.1480974944526,178.3150891632339
3.2365699032365702,3.1637069447425112,3.021786031694228,203.73102785399016,122.21456262587743,160.2744363383885,189.70792500135835,191.0286057679102,178.2193303077538
3.2699366032699366,3.1637069447425112,3.5114310471620724,202.356997596927,120.22531049267748,160.76094061149274,190.1178260245455,190.939899942578,178.1905741382106
3.3033033033033035,3.4415991961626258,3.5114310471620724,200.54915218476933,113.70960027594236,161.3171971969901,190.54933407837987,190.8696825543977,178.20905272474906
3.3366700033366703,3.4415991961626258,3.5114310471620724,203.2052840801821,108.36915755066973,161.89070871165717,191.01761618922032,190.8683185109002,178.30120793350306
3.3700367033700367,3.4415991961626258,3.5114310471620724,209.2537646439812,105.34613084580027,162.471130560654,191.5291747769789,190.8990906310348,178.29593274569066
3.4034034034034035,3.4415991961626258,3.5114310471620724,208.0094569997528,103.53762965266274,163.0286454284881,192.03424079513235,190.94451172306444,178.3774230014872
3.4367701034367704,3.4415991961626258,3.5114310471620724,207.32519497765816,103.376489296806,163.59654671834568,192.3248248751341,191.0412486267817,178.6849623620173
3.4701368034701368,3.4415991961626258,3.5114310471620724,209.23489502366928,104.17181155255784,164.0667923047407,192.61760830292425,191.18399912240267,179.08716783003402
3.503503503503504,3.4415991961626258,3.5114310471620724,209.9721082239166,105.40615499414974,163.07618014704462,194.54838503973752,191.6002933961545,179.41936014179532
3.5368702035368704,3.4415991961626258,3.5114310471620724,210.29154980706315,107.3958873424618,163.183281931626,195.4801005180253,192.2466515243795,179.20012150551815
3.5702369035702373,3.4415991961626258,3.5114310471620724,210.9447852567049,109.5109941861836,163.3928870326217,195.2772915642252,193.16064342676447,179.5584396678388
3.603603603603604,3.4415991961626258,3.5114310471620724,211.84861509144457,112.6517512908737,163.57065326745155,195.48388960535183,193.7163002795908,180.10779443513803
3.6369703036369705,3.4415991961626258,3.5114310471620724,211.35843754972944,115.9219700833832,164.18995773403805,194.9265390828838,194.1577985471293,180.78579804349127
3.670337003670337,3.8904720015698766,3.5114310471620724,210.767624853864,119.78215918714903,164.85912611536963,194.280213776117,194.3695621752371,181.71287583511528
3.703703703703704,3.8904720015698766,3.5114310471620724,210.08153938895467,124.08880263987744,165.41325284243936,193.76793824251897,194.30349227464924,182.79328895674905
3.737070403737071,3.8904720015698766,3.5114310471620724,209.2327189558465,128.66660171086303,165.85514350807898,193.35424416898647,194.2209555601577,183.96221103222547
3.770437103770437,3.8904720015698766,3.9882800855875047,208.06488615573508,133.52446297039876,166.14314993790106,193.14070907897568,194.10646160334915,185.173350057776
3.803803803803804,3.8904720015698766,3.9882800855875047,206.33491742723848,138.3603498733053,166.4473939201182,193.0971276614613,193.8916475818948,186.4353919104825
3.8371705038371706,3.8904720015698766,3.9882800855875047,205.0340370983713,143.3429819941484,166.7950638316169,193.158585363622,193.59782411445264,187.7655798398004
3.8705372038705375,3.8904720015698766,3.9882800855875047,203.8738827458119,147.38146795054445,167.1758115695606,193.2458073208771,193.248084494462,189.12969009352528
3.903903903903904,3.8904720015698766,3.9882800855875047,202.5517235271968,150.795100820692,167.4810671982929,193.36057530429588,192.92511933405825,190.5366416469244
3.937270603937271,3.8904720015698766,3.9882800855875047,200.552630283276,154.35784019896903,167.78941875151494,193.53207944166348,192.52646194939564,191.9571426716825
3.9706373039706375,3.8904720015698766,3.9882800855875047,198.91106151727573,156.78715162549727,168.04793906453023,193.6575507451424,192.17466922059955,193.2883878207812
4.004004004004004,3.8904720015698766,3.9882800855875047,196.4076747670772,159.80861268326464,168.11343873354235,193.77921798285908,191.735091306831,194.555674745382
4.037370704037371,3.8904720015698766,3.9882800855875047,193.41260375493405,163.01564022532762,168.27444416636334,193.86514317731525,191.1930373511033,195.7206279553385
4.070737404070738,3.8904720015698766,3.9882800855875047,189.95659429553896,166.327097007537,168.507141919237,193.94415188161025,190.57504720081232,196.7880772419672
4.104104104104104,3.8904720015698766,3.9882800855875047,186.5828737955252,169.62385570020126,168.69727951671447,194.11359962235144,189.8691693955155,197.7296254150808
4.137470804137471,4.369139839607126,3.9882800855875047,183.9641829678708,171.8238111161422,169.0423121445418,194.3191302836056,189.08248351856565,198.53493076677915
4.170837504170838,4.369139839607126,3.9882800855875047,182.4026484615058,173.72898171413223,169.40371520589056,194.43668470469007,188.25761495767176,199.30111082945567
4.2042042042042045,4.369139839607126,3.9882800855875047,181.8616692154565,174.0825232843082,169.92457445734627,194.5878176229377,187.4691696013817,200.0823179314873
4.237570904237571,4.369139839607126,4.456196995098226,178.37773588815875,172.58755141746084,170.6336601239244,194.89447053880167,186.69636595764297,200.9019048511276
4.270937604270938,4.369139839607126,4.456196995098226,175.19908272956525,169.58584080883992,171.5874355983528,195.16340281127472,185.8563232439727,201.7440998693411
4.3043043043043046,4.369139839607126,4.456196995098226,177.9934432830982,164.0266542392127,172.51332488549787,195.52014809463583,185.0211075011312,202.5489336786848
4.337671004337671,4.369139839607126,4.456196995098226,179.95896101168282,159.12762792969818,173.3999785046662,195.83529972311777,184.1698935085525,203.36930882902485
