Time,Left Shoulder Angle,Right Shoulder Angle,Left Elbow Angle,Right Elbow Angle,Left Hip Angle,Right Hip Angle,Left Knee Angle,Right Knee Angle
0.0,7.334974229827765,9.032449221049816,181.5530268380901,130.2230545697443,146.99825816400335,145.80531684089564,193.6901241031196,203.8615918367001
0.0333667000333667,18.32081266208217,17.880013781955256,174.30863887594498,137.26171357517563,148.66001194194374,146.97345619735628,189.86816204500204,200.82706176833327
0.0667334000667334,27.09430699567438,24.7512453020695,168.8058749879423,143.23951147328523,149.6078478038669,147.87948504350885,186.98318811486348,198.2395324275962
0.1001001001001001,33.829091133310186,29.808796532678123,164.90528018141288,148.2142804627081,149.90155707195868,148.54031386854138,184.96680188901365,196.0726459221781
0.1334668001334668,38.69879897769541,33.21532022506671,162.4673994636875,152.24385274207927,149.6009310684049,148.97285316164206,183.7506029437622,194.30004435976852
0.1668335001668335,41.87706443153581,35.13346913052083,161.35277784209708,155.3860605100337,148.7657611153914,149.19401341199892,183.26619085541896,192.8953698480571
0.2002002002002002,43.53752139753722,35.725896000326074,161.42196032397237,157.69873596520637,147.455838535104,149.22070510880013,183.44516520029364,191.83226449473315
0.2335669002335669,43.85380377840541,35.155253585768,162.53549191664422,159.2397113062323,145.73095464972852,149.06983874123378,184.219125554696,191.0843704074862
0.2669336002669336,42.99954547684619,33.5841946381322,164.5539176274435,160.06681873174645,143.65090078145082,148.75832479848796,185.51967149493572,190.62532969400576
0.3003003003003003,41.14838039556535,31.17537190870425,167.33778246370096,160.2378904403838,141.2754682524567,148.3030737697508,187.2784025973227,190.42878446198137
0.333667000333667,38.47394243726868,28.09143814876973,170.74763143274748,159.8107586307794,138.664448384932,147.7209961442104,189.42691843816647,190.4683768191024
0.3670337003670337,35.14986550466199,24.49504610961421,174.64400954191387,158.84325550156814,135.87763250106255,147.02900241105485,191.89681859377697,190.7177488730584
0.4004004004004004,31.349783500451075,20.548848542523288,178.887461798531,157.39321325138508,132.97481192303417,146.24400305947228,194.61970264046383,191.15054273153888
0.4337671004337671,27.247330327341704,16.4154981987825,183.33853320992964,155.51846407886518,130.0157779730327,145.38290857865078,197.5271701545369,191.74040050223329
0.4671338004671338,23.016139888039696,12.25764782967748,187.85776878344063,153.27684018264347,127.06032197324396,144.4626294577785,200.5508207123057,192.4609642928312
0.5005005005005005,18.8298460852509,8.237950186493757,192.30571352639484,150.72617376135486,124.16823524585377,143.5000761860435,203.62225389008023,193.2858762110219
0.5338672005338673,14.862082821680984,4.519058020516935,196.542912446123,147.92429701363437,121.399309113048,142.51215925263392,206.67306926417007,194.18877836449505
0.5672339005672339,11.286484000035676,1.2636240830323011,200.42991054995773,144.9290421381183,118.81333489701343,141.515789146739,209.63486641088684,195.14331286094173
0.6006006006006006,8.925568327214483,-0.6266320237023768,200.52339420837532,139.5964512591242,117.0483935040634,140.4352990595687,211.57528642431808,196.0519120219417
0.6339673006339673,9.326568684975395,-0.9721947225570152,198.6257170783477,135.5163465245479,115.8268272763332,139.46962285763593,212.883265092032,196.8301675600246
0.6673340006673341,11.470227264647086,0.4715997737920432,196.19128157716503,132.10522234232593,115.0397211146055,138.22667698829912,214.0600084016804,197.4352539155703
0.7007007007007008,14.977925724734284,0.4715997737920432,193.633870861034,129.7993368614503,114.70343648198784,137.2264703806179,215.17779283259583,197.93896664147368
0.7340674007340674,19.61509769303802,0.4715997737920432,191.1073181977776,128.2257870663705,114.82715206490248,136.41638191834875,215.95336427174504,198.35554328957133
0.7674341007674341,25.39805454934011,0.4715997737920432,188.39283703274185,127.26308253988724,115.39521574966504,135.85191851654437,216.19869514644347,198.67834790096808
0.8008008008008008,32.23631334877955,0.4715997737920432,185.59736647985096,126.96350998365465,116.43364737847855,135.58127468715205,216.1532834135838,198.88955850742212
0.8341675008341676,40.0698891108176,0.4715997737920432,182.7639899028564,127.35503853618948,117.9128523451429,135.51219483436742,215.72378754954545,198.9892456437205
0.8675342008675342,48.854939506145165,0.4715997737920432,179.80809522532127,127.4937022294366,119.88935398637838,135.5980474025892,214.73228371528853,199.0887377979498
0.9009009009009008,58.412348262788,0.4715997737920432,176.6289674972993,127.82249029059466,122.2668995078032,135.97463399116054,213.2948076573979,199.0767690613501
0.9342676009342676,67.95469959791143,0.4715997737920432,171.85249172125907,131.6273015160341,125.09054687135276,136.78802047115383,211.3227110038088,199.07065310725423
0.9676343009676344,78.59669273762758,0.4715997737920432,167.11305515417732,134.9705615115632,128.15377848325303,137.83970553061192,209.19000789611243,198.85594666134887
1.001001001001001,90.113690876839,0.4715997737920432,162.55940026419,137.38134338115898,131.4973954407497,139.13990558023133,206.79851296309496,198.41512379529505
1.0343677010343677,102.39161667092074,0.4715997737920432,157.725868734883,140.13711711913328,134.9184599190978,140.58574232548452,204.6274096223016,197.8514959453896
1.0677344010677343,114.93956891816802,0.4715997737920432,154.7394539822712,141.72343434684595,138.30459862309303,141.9365706647183,202.4241280427524,196.9957289192536
1.1011011011011012,127.66443732262913,3.888342418702588,151.98316301229815,142.76806744809798,142.06648358827792,143.81604546882463,199.689393301088,195.44472351608192
1.1344678011344678,140.4831436206574,9.127664158606954,147.60586977337442,144.79347524335236,145.7609567217204,145.77214419577692,197.0529132507449,193.8294117089384
1.1678345011678346,153.04377916781874,16.0004253063733,143.38592419176487,147.5290169688502,149.111202467105,147.75253568539048,194.40461061652084,192.2479496258141
1.2012012012012012,165.30199453495547,24.22597803314451,141.41555945558488,146.7405188028653,151.63922173033328,149.98334603251635,192.3892694443123,190.6533476105982
1.267934601267935,176.97507170642305,33.66805517273777,139.1919114167908,146.60487832379297,154.37561250322204,152.324634799684,190.144102955373,188.74897333802505
1.3013013013013013,188.32125865854505,43.89452727716608,136.41968811843918,146.8244295339332,156.62614243243394,154.93738453410148,188.03001595247463,186.4902036498769
1.334668001334668,198.53348040521848,55.212572054146726,134.2402230804694,148.22792294163236,158.80040967884,157.57319580427406,185.7509801007893,184.3398809166248
1.3680347013680347,207.5895089574568,66.5135207951055,131.40500654701256,152.15161205509412,160.9299720423044,160.14438971595996,183.45244568992132,182.44417997615213
1.4014014014014016,216.015449056446,78.5010896410225,129.95342165319315,158.13601058109847,162.60323510762854,162.7517448396826,181.5103735866273,180.5883224717768
1.4347681014347682,223.6801410379095,91.30699335525294,127.77498945117397,160.01149070106743,164.32063866537553,165.08305707602506,179.90368764822853,178.5131231272622
1.4681348014681348,229.9056898902295,104.10402298268738,125.50395488180732,159.40036080570977,165.68445028434385,167.2445220366518,178.5004889755171,176.5385047303222
1.5015015015015016,234.33010216526247,117.21918048056754,124.37492714934176,159.27222244683267,166.54721094549782,168.679091279426,177.37990693016036,175.21571491844423
1.6016016016016017,237.0949696388448,130.2320833703253,124.22515587982056,156.1528537299574,167.43206412226917,169.9176055922596,176.45002570719157,174.71156492013472
1.6349683016349683,239.37216616208983,143.05974255551163,124.10020420432818,152.72856303122808,168.1857686902172,171.00642862758502,175.64037154435047,174.30902174117034
1.6683350016683351,241.25951098692724,155.70242585132246,123.94471206046744,149.09080188568595,168.817004345479,171.9476721622727,174.946721305875,173.9856688266362
1.7017017017017018,242.8548233652874,167.5225572456242,123.70331938584248,145.33102182837325,169.3344507841929,172.74344797319446,174.36485185600475,173.71908962161865
1.7350684017350684,244.25592254910097,178.8753479889318,123.32066611805728,141.54067439433214,169.7467877024971,173.39586783722203,173.8905400589793,173.48686757120424
1.7684351017684352,245.56062779029853,189.8113628073791,122.7413921947159,137.8112111186049,170.06269479652994,173.90704353122717,173.51956277903827,173.2665861204794
1.8018018018018016,246.86675834081063,200.1981505217153,121.91013755342232,134.23408353623373,170.29085176242967,174.27908683208165,173.24769688042122,173.0358287145306
1.8351685018351689,248.27213345256783,210.27927388503463,120.77154213178063,130.90074318226092,170.43993829633456,174.5141095166572,173.07071922736776,172.77217879844426
1.8685352018685355,249.8745723775008,218.64570339508816,119.27024586739482,127.90264159172855,170.5186340943829,174.61422336182562,172.98440668411752,172.45321981730694
1.901901901901902,251.77189436754,225.48046652525304,117.35088869786898,125.33123029967902,170.53561885271296,174.58154014445864,172.98453611491004,172.05653521620502
1.9352686019352687,254.0619186746158,230.616962031767,114.95811056080709,123.27796084115448,170.49957226746304,174.41817164142805,173.06688438398498,171.559708440225
1.968635301968636,256.84246455065914,234.3420786638668,112.0365513938132,121.83428475119702,170.4191740347714,174.12622962960558,173.22722835558187,170.9403229344533
2.002002002002002,260.2113512476005,234.54103305865752,108.53085113449134,121.091653564849,170.3031038507763,173.70782588586297,173.46134489394035,170.17596214397642
2.035368702035369,264.2663980173704,234.1253321594945,104.38564972044558,121.14151881715271,170.16004141161605,173.16507218707204,173.7650108633,169.24420951388078
2.0687354020687354,269.10542411189925,233.24681835350145,99.5455870892799,122.07533204315028,169.9986664134289,172.50008031010452,174.13400312790043,168.1226484892529
2.1021021021021022,274.82624878311776,232.0573340278036,93.95530317859836,123.98454477788393,169.82765855235314,171.71496203183213,174.5640985519812,166.78886251517918
2.135468802135469,281.5266912829567,230.7087215695265,87.55943792600502,126.960608556396,169.65569752452706,170.81182912912666,175.05107399978192,165.22043503674615
