Time,Left Shoulder Angle,Right Shoulder Angle,Left Elbow Angle,Right Elbow Angle,Left Hip Angle,Right Hip Angle,Left Knee Angle,Right Knee Angle
0.0,24.08175482320324,22.94590766009362,144.31552277288287,143.61715786602753,131.5523304420864,133.70041903292633,200.70473525284564,203.52353522537447
0.0333667000333667,24.646294983481503,23.63818819351677,144.81943483947185,145.57201124087592,131.6659888712522,134.43036629499775,199.8852304662761,203.19618327663105
0.0667334000667334,25.11482741681412,24.26003701671815,145.24100257511898,147.29058667902177,131.7632378659781,135.05815890473144,199.1730090180456,202.8968627924486
0.1001001001001001,25.494207289154865,24.813804296994768,145.5865826372584,148.78380392792957,131.84447185520054,135.58944435036406,198.5637358937156,202.6251481981797
0.1334668001334668,25.79128976645753,25.30184020164364,145.8625316833243,150.06258273506384,131.91008526785592,136.02987012013236,198.0530760788477,202.38061391917705
0.1668335001668335,26.01293001467592,25.72649489796179,146.07520637075098,151.13784284788906,131.96047253288063,136.38508370227305,197.63669455900347,202.1628343807932
0.2002002002002002,26.16598319976378,26.090118553246235,146.23096335697247,152.02050401386975,131.99602807921107,136.66073258502286,197.3102563197444,201.9713840083808
0.2335669002335669,26.25730448767492,26.39506133479399,146.33615929942306,152.72148598047045,132.01714633578368,136.86246425661847,197.06942634663207,201.80583722729244
0.2669336002669336,26.29374904436312,26.64367340990208,146.3971508555369,153.2517084951556,132.02422173153485,136.99592620529663,196.90986962522803,201.66576846288075
0.3003003003003003,26.282172035782168,26.838304945867524,146.4202946827482,153.6220913053898,132.017648695401,137.06676591929406,196.82725114109385,201.5507521404984
0.333667000333667,26.229428627885845,26.981306109987337,146.41194743849113,153.8435541586375,131.9978216563185,137.08063088684742,196.81723587979104,201.4603626854978
0.3670337003670337,26.14237398662793,27.075027069558537,146.3784657801999,153.9270168023632,131.96513504322377,137.04316859619348,196.8754888268812,201.39417452323184
0.4004004004004004,26.027863277962226,27.121817991878142,146.32620636530868,153.88339898403146,131.91998328505326,136.96002653556897,196.9976749679258,201.351762079053
0.4337671004337671,25.8927516678425,27.12402904424318,146.26152585125166,153.72362045110674,131.8627608107433,136.83685219321055,197.17945928848647,201.33269977831392
0.4671338004671338,25.74389432222254,27.08401039395066,146.19078089546304,153.45860095105357,131.79386204923037,136.67929305735498,197.4165067741248,201.3365620463672
0.5005005005005005,25.588146407056136,27.00411220829761,146.12032815537702,153.09926023133647,131.71368142945084,136.49299661623894,197.7044824104021,201.36292330856548
0.5338672005338673,25.43236308829708,26.886684654581032,146.05652428842777,152.65651803941992,131.62261338034114,136.2836103580992,198.0390511828802,201.41135799026137
0.5672339005672339,25.283399531899324,26.73407790009818,146.0057259520507,152.14129412276975,131.52105233083878,136.05678177117346,198.41587807712213,201.48144051680896
0.6006006006006006,25.40147764828804,26.320059993447785,146.476397155352,151.35585615364877,131.49881530695714,135.88552255971442,198.69250806224304,201.53873855914551
0.6339673006339673,25.4039488844205,26.2214788787377,146.56434012005252,150.98901465519546,131.3897000444085,135.69260114793323,199.08219158896688,201.6500355427856
0.6673340006673341,25.55193620318594,26.262721994853194,146.9034298664564,150.84815977168793,131.22763201305966,135.4821848383448,199.53732858864407,201.8179580900413
0.7007007007007008,25.6475282054682,26.3200422796356,147.15859538051328,150.65880555673996,131.11534131733103,135.25867838036928,199.929432140217,202.0048852362032
0.7340674007340674,25.80636101655362,26.13278956834312,147.56121072582636,150.22288029043702,131.01857038630283,135.07102693403905,200.40049251808367,202.1865245109619
0.7674341007674341,25.9640475550812,26.15957366925193,147.90179042155054,149.97139285956897,130.96631383098415,134.85703167513904,200.8937311580294,202.38259734179127
0.8008008008008008,26.09753295070412,26.029831271464666,148.09711311716467,149.48590314104945,130.89848193312082,134.66269155628416,201.42859380714208,202.60027197472365
0.8341675008341676,26.269943203963383,25.929813126474432,148.35183313877454,148.9240895026448,130.7888226992175,134.54844946854803,201.96226470740345,202.8073598587133
0.8675342008675342,26.4850683425004,25.73762704952582,148.43738667676342,148.3836477085144,130.6090654293387,134.47882421534726,202.54782964972893,203.01796412783816
0.9009009009009008,26.581511723619546,25.433124002809528,148.28638640146264,147.7179655530439,130.34681823298712,134.41165801638329,203.2031573184738,203.2750736162255
0.9342676009342676,26.70186633255769,24.870050203245203,148.1607446606213,146.77743375592715,130.04990660950523,134.34980960170628,203.8549085796425,203.5587782061236
0.9676343009676344,27.152503388302243,24.040446723891232,148.5468946689831,145.85848421124538,129.68795857165253,134.18322950110905,204.4929079766244,204.0780597115806
1.001001001001001,27.546503843761464,23.045104280227715,148.84146716157983,144.73611282589275,129.2676205913336,134.112205536548,205.1368518524325,204.53829559584412
1.0343677010343677,27.772297832088068,21.99627561577331,148.999218999135,143.39007245322196,128.82106316056218,133.9909074342765,205.8605445116626,205.07906870426896
1.0677344010677343,27.85268224720348,20.88180433626555,149.04677993916246,141.89164397700878,128.359199231841,133.88953561572828,206.60908849634563,205.60356076174227
1.1011011011011012,27.83826105426584,19.620753326714585,149.0423046588378,140.54875090847185,127.86013072655594,133.88879710568946,207.46765317223665,206.002216288592
1.1344678011344678,27.67315147860881,18.30486772673213,148.88188269825488,139.1387358922902,127.35676625168256,133.95690183310953,208.3107544249092,206.334903813708
1.1678345011678346,27.506500327797664,17.10492340357287,147.8129566859508,137.44125090394004,126.8873273071394,134.05268333638875,208.979955930518,206.69336503049303
1.2012012012012012,27.36606199295999,15.987535539795068,146.70166861378476,135.8294060757167,126.44931629927468,134.21099461996118,209.6219060688369,207.0205378900792
1.234567901234568,27.07782604721474,14.6532152070519,146.14620946327193,134.1655388703358,126.01915716225808,134.37071774937934,210.29727210029017,207.29647067682612
1.267934601267935,26.747398763787995,13.317061162184851,146.0384389899111,132.50943073803631,125.64498922293984,134.54382086562342,210.9968130140084,207.5063007757759
1.3013013013013013,26.44378502487401,12.079979638939015,145.84669099375824,131.3600993798147,125.31533491198743,134.7281192268951,211.61676005349733,207.6501595590757
1.334668001334668,25.988826148686705,10.9263759630057,145.71327483418068,130.3179426732341,124.98031507655772,134.94307519417728,212.20062889048543,207.74575214270573
1.3680347013680347,25.29245905412836,9.797246602358442,145.15132292211123,129.68352617354645,124.70111377255826,135.21053093676332,212.7581535685353,207.81426420935327
1.4014014014014016,24.52261268492256,8.736218774802914,144.84925293210966,128.838961180075,124.43596187248966,135.50803792272342,213.28609426100067,207.86657416056104
1.4347681014347682,23.692018214433286,7.895613059593155,144.0470267180931,128.33641283379723,124.23689278101402,135.81745585709322,213.81964340138327,207.85411344873577
1.4681348014681348,22.77867644390735,7.110823548792999,143.7368403219443,127.27138552842364,124.02411774263514,136.15021638610918,214.3633326279312,207.72443121098823
1.5015015015015016,21.78285749375058,6.16635355454319,143.5960436972078,125.33594538086342,123.87074866891447,136.4990253267977,214.77354827598,207.482668174634
1.5348682015348682,21.22995599210669,5.41118920182856,148.50999546407823,123.36869285046214,123.78771707755932,136.88304290099424,215.1158192588213,207.17410115224743
1.5682349015682349,20.447890696900902,4.540448025618867,153.95193420655696,121.59729983409132,123.74982053617268,137.27502404607822,215.41292202766988,206.8119246789174
1.6016016016016017,19.533811049346525,3.384136675894302,158.6811950463644,119.33155736196584,123.73188696017029,137.71326367324434,215.644003289546,206.42242384253905
1.6349683016349683,18.530082456976764,2.373653568644119,162.23271384763504,116.5269483749587,123.8374555406558,138.1750398972614,215.7148870190723,206.0318488485787
1.6683350016683351,17.136111397597283,2.373653568644119,165.32985561558155,113.58463901665446,123.89616241544958,138.6288105604625,215.74369925991223,205.6619456675376
1.7017017017017018,14.51621934863416,2.373653568644119,168.84891430094308,110.99651699840403,123.7896466171662,139.0335723183674,215.7831313276866,205.34643596405127
1.7350684017350684,12.340303374934589,2.373653568644119,171.99945931694566,108.76587216140516,123.62998926694482,139.40047548745474,215.7874094169358,205.0318874866797
1.7684351017684352,11.05821454932792,2.373653568644119,173.98731554281954,108.65296523286996,123.51946841600406,139.76984625511284,215.7337032616497,204.66771881653085
1.8018018018018016,10.54302022771178,2.373653568644119,174.69907367615133,107.98273744407254,123.39927289477323,140.14403273569798,215.6880626634652,204.2765018961278
1.8351685018351689,10.59648875592489,2.373653568644119,174.08704088641392,105.09485451076472,123.20235372966918,140.5298675576952,215.5954372098024,203.832218005708
1.8685352018685355,11.220024720182453,2.373653568644119,171.24098994261703,101.03776995338164,122.8909169401304,140.9636040191445,215.56623944897183,203.3571075601597
1.901901901901902,12.462925172015378,2.373653568644119,169.4717712174408,98.57973928928536,122.77606909126328,141.35196789289253,215.47837518237904,202.8832583297416
1.9352686019352687,13.96055224889462,2.373653568644119,166.2034694241291,96.88549957283514,122.65489166170644,141.8057869966572,215.4573899218368,202.40133185628065
1.968635301968636,16.128818019449565,2.373653568644119,161.45748686293004,95.17811535932486,122.32497413248994,142.5873472607532,215.3258614944137,201.9945041182933
2.002002002002002,18.296578865927824,2.373653568644119,155.49986451721924,93.20831249870588,122.04353379547209,143.25687021930958,215.2877961534492,201.65219038021075
2.035368702035369,20.550099816819674,2.373653568644119,148.96977717118168,90.63110065179832,122.0772168898312,143.5202978741211,215.46285454972312,201.2997107829416
2.0687354020687354,22.841487853584496,2.373653568644119,143.02246719574254,88.00366421958523,122.1428192433007,143.70560450003126,215.71059447495668,200.94988630769737
2.1021021021021022,25.14066454525636,2.373653568644119,134.5728011971569,85.0936927676598,122.21733319075278,143.864812086156,216.0475112896066,200.679226107663
2.135468802135469,27.52049152495908,2.373653568644119,126.14669215456588,82.05627540270521,122.21348468795485,144.1391842250137,216.5096287591429,200.23048346140428
2.1688355021688355,29.69952418087584,2.373653568644119,119.0647070159649,77.02877472903948,122.0708987535484,144.36002823009963,217.0744975915705,199.8470877786144
2.2022022022022023,31.891989983192268,2.373653568644119,111.8950639169144,71.79584164251686,121.88205422617412,144.69072296596502,217.6394469896918,199.36126360501888
2.235568902235569,34.10581113895139,2.373653568644119,104.7445877010532,69.15702435314765,121.64075290019028,145.04882062107075,218.24206166381376,198.8619417550107
2.2689356022689355,36.37936630910775,2.373653568644119,97.18237544254217,67.12469059366687,121.43809188972902,145.37153134959166,218.7204784625134,198.4258441358808
2.3023023023023024,38.79549657798851,2.373653568644119,89.27919553431161,65.52142561166396,121.30320250317914,145.61699438819818,219.1067232060576,198.0654141479756
2.335669002335669,41.09381288507712,2.373653568644119,82.1001933513228,64.68293475148148,121.21863642153512,145.87942434106546,219.5521719031136,197.6233046727624
2.369035702369036,34.07920525874955,2.373653568644119,71.21618447511027,64.41668809432663,121.19495384783691,146.07319293593827,219.9481417181341,197.22065583120457
2.4024024024024024,30.50370668911164,2.373653568644119,60.64977586717119,64.77281187323163,121.21200154158171,146.2995632583007,220.30419835062312,196.8075152433356
2.4357691024357693,28.93468777218833,2.373653568644119,52.68026135255252,65.56615231868503,121.2175357924789,146.5910946690216,220.66159486096,196.37496192466827
2.469135802469136,29.25074657645153,2.373653568644119,46.45781007248653,66.34397793765763,121.2495939780074,146.97938246468803,221.07877509221225,195.88151936419703
2.5025025025025025,31.8738962270424,2.373653568644119,40.63577150473864,67.36205605541618,121.33848859337584,147.45016022992664,221.50271844822703,195.30017329255256
2.5358692025358693,36.23411468073496,2.373653568644119,37.53234612732357,68.07522454488307,121.45078394378795,147.9682593875411,221.90046172564232,194.6218307895001
2.569235902569236,42.97651103967604,2.373653568644119,36.12826292658369,68.98060598298565,121.62957697629918,148.5234001946798,222.2744467044052,193.86690586121296
2.6026026026026026,50.67153286234052,2.373653568644119,38.39777308335094,69.41297995968694,121.83009549092982,149.12374381060383,222.5590839466969,193.08230045399685
2.6359693026359694,68.99901726169631,2.373653568644119,41.81060204997113,69.89132936324941,122.0093910546086,149.7311243262751,222.78529764928007,192.29485557983045
2.669336002669336,85.7252922927159,2.373653568644119,48.98082043848751,70.97333109091183,122.2492682227568,150.33757062061014,223.0455621702184,191.53027879317293
2.702702702702702,90.04557289513959,2.373653568644119,55.39354760420518,72.42698378832632,122.51396346957746,150.93139689898825,223.2875011687734,190.76885746817348
2.736069402736069,95.43404821728734,2.373653568644119,61.718284773538045,73.67102676435425,122.73169525022708,151.54153345530148,223.4793384032411,190.0165257991025
2.7694361027694363,110.38511046637645,2.373653568644119,72.34196597975291,74.7345383540341,123.1357449979553,152.1175288183572,223.5765259980236,189.2571690682334
2.802802802802803,123.32170154403543,2.373653568644119,82.64788570237042,76.023992909572,123.48184947437828,152.72562008595304,223.67838422898663,188.4740178350229
2.836169502836169,135.3911995802185,2.373653568644119,92.32411952606503,79.15529037163648,123.88526882535372,153.3654543575983,223.75798519010573,187.5970410182508
2.8695362028695364,147.53294488131317,1.2830416022680322,99.78814932059424,81.53822832825803,124.37077073620183,154.08756581685736,223.78587553303203,186.6524112835613
2.902902902902903,158.5450617688158,1.0202573752655222,103.169278208836,81.51567161079942,124.61455690112123,154.98977277027527,223.80336064147244,185.69158064073568
2.9362696029362696,167.29403314768882,1.1471170629477887,106.35341772506123,79.39858895721,124.74086155096104,155.92522009555017,223.80765186643387,184.81050265564207
2.9696363029696364,175.1581127450418,0.5997327067971528,106.72547105834468,78.15742331488461,124.8828638882628,156.88237736982285,223.9730287893395,183.80605203961625
3.003003003003004,179.79044737088827,0.179157531733195,105.26438517251542,79.54206489604645,125.26149638434664,157.79945234705835,224.13311907701177,182.91169559036967
3.0363697030363697,184.08701446089412,1.9824842468098247,108.54905226064102,80.80348047030975,125.69876000115092,158.7149461215705,224.3072546140276,182.0314269742703
3.0697364030697365,186.33638534216283,2.438302918196263,110.93279493094194,81.41817986517174,125.95139366035428,159.5989329117281,224.44313419551128,181.37878671138
3.103103103103104,186.2392115771125,2.438302918196263,112.20023712972797,81.31866369571718,126.29513464080269,160.46129852370618,224.51663397432253,180.73413773834216
3.1364698031364697,183.67615006039733,2.438302918196263,113.88021456588204,80.76584072075707,126.9676769439028,160.82704999024227,224.6654359879489,180.2790952264149
3.169836503169837,180.05919942561013,2.438302918196263,118.1409456268245,77.72478572475725,127.46314112503484,161.08253393873048,224.7912613456332,180.08529490560318
3.2032032032032034,174.1799746954078,2.438302918196263,122.78609160263734,75.49621129964098,127.78263461969073,161.6220269303929,224.65694901889324,180.25707081731912
3.2365699032365702,166.32759083323575,2.438302918196263,126.27954768815682,73.5799879430265,128.1480495426784,161.941551317955,224.4695587668863,180.74928904136692
3.2699366032699366,156.78461892792808,2.438302918196263,131.69788205757146,72.06767155613929,128.47277400856737,161.94036742254195,224.23700964512685,181.55772607714803
3.3033033033033035,145.19881951431344,2.438302918196263,136.68425675913875,70.50942075936739,128.8925645434217,161.74582045440454,223.93261481711608,182.6696128697548
3.3366700033366703,132.18554869373486,2.438302918196263,139.74444388491486,71.66465237342452,129.49600425594093,161.37946158664974,223.5067231308685,184.0457207523184
3.3700367033700367,117.77649088776968,2.438302918196263,141.56821378902302,74.75170131966239,130.09576547911806,160.78897603382975,223.0451187835702,185.7214071063861
3.4034034034034035,102.0266097136579,2.438302918196263,142.00375954267395,76.92741139180735,130.79317211498426,160.04988533667935,222.46314048983612,187.5881115804874
3.4367701034367704,84.77990739802824,2.438302918196263,141.5700207451892,79.95065306099036,131.57765039368286,159.05675305077403,221.80263993299823,189.6484132335224
3.4701368034701368,65.58230800186529,4.470909016038132,139.63198111803482,83.1875080619231,132.4314430183372,157.98172828610817,221.04821304349747,191.79842384185915
3.503503503503504,45.39055565813505,4.470909016038132,136.00741443244027,86.5773402655066,133.34863863079798,156.76658564676228,220.1751296629644,194.2236612086209
3.5368702035368704,35.727745401228255,6.0536675359191605,136.52380338401142,89.92860777967857,134.32049473884257,155.65335772403432,219.2439795863104,196.6133190970797
3.5702369035702373,26.666933063768063,7.550870583740542,138.1938548454842,93.0215005356084,135.29286464469203,154.6354070241288,218.20685051703185,198.99777417968733
3.603603603603604,19.44512337121262,8.808623788119595,138.91871650250422,96.23923055249176,136.3213589113767,153.72679402208107,217.0929504245665,201.2100548432688
3.6369703036369705,14.107348492401522,8.789564596867766,140.03412846962848,99.63456031899078,137.42718686269936,152.89869120551288,215.950797008506,203.34284017457463
3.670337003670337,10.419083298326887,9.112858658579544,142.21730933480828,102.98339775787096,138.606461591036,152.1634293959717,214.8016638809291,205.23312630976443
3.703703703703704,9.497123712414364,10.163125860064754,144.31553029698716,106.47602088963464,140.1647507900399,151.55714726522464,213.3810434637676,207.02969825754084
3.737070403737071,10.10181385032605,11.65510988963608,147.12889007193925,109.88075892315382,141.72062103928042,151.08464088473352,212.0033922812553,208.48959387057863
3.770437103770437,13.381005362928365,4.669044188107342,150.0894988698901,113.40729245513424,143.19291472618693,150.62329800130857,210.6769375151823,209.78338343254504
3.803803803803804,6.737275530450728,0.8312864445817523,155.24994755296254,116.5680628105341,144.79287818924516,150.2424074442678,209.32202263738725,210.72326131873987
3.8371705038371706,-0.8962868156270168,0.8312864445817523,160.21569683650225,119.23944325532916,146.17056448903372,150.0574259526994,208.10216556252672,211.3251709382488
3.8705372038705375,4.017850978243369,0.8312864445817523,163.6903932306328,121.50950085517836,147.42924241395312,150.03006412666784,206.90428455743057,211.4979507426641
3.903903903903904,4.017850978243369,0.8312864445817523,166.86882867522414,123.27306428698216,148.73677314657337,150.0222272226594,205.79272285153496,211.36002010246625
3.937270603937271,4.017850978243369,0.8312864445817523,164.83926300428337,124.7180336532092,149.80086850384345,150.2024195634046,204.769008161612,210.76316916181008
