Time,Left Shoulder Angle,Right Shoulder Angle,Left Elbow Angle,Right Elbow Angle,Left Hip Angle,Right Hip Angle,Left Knee Angle,Right Knee Angle
0.0,15.197517478944718,38.02098916697309,152.5124412822554,178.15296400219714,156.5970827083681,154.9997577536732,188.73646903659304,190.57572905344324
0.0333667000333667,15.859065513173489,37.37557891565918,153.6858254711353,176.214661497416,156.71310861453847,154.65719511534567,188.95622943740256,190.8995052597768
0.0667334000667334,16.526597080690475,36.72122294132352,154.83562208526928,174.43311146332792,156.76573660028117,154.3858158048437,189.16173598375923,191.18214852407385
0.1001001001001001,17.197814505912184,36.05831253506124,155.96165253405275,172.79700088488948,156.7588712620216,154.18208494314118,189.3546693132137,191.42554639120303
0.1334668001334668,17.870420113255108,35.38723898796749,157.06373822688124,171.29501674705725,156.69641719618517,154.04246765121198,189.53671006331672,191.63158640603305
0.1668335001668335,18.542116227135743,34.70839359113744,158.1417005731502,169.91584603478776,156.58227899919717,153.96342905003002,189.7095388716189,191.80215611343232
0.2002002002002002,19.210605171970588,34.0221676356662,159.19536098225504,168.6481757330376,156.420361267483,153.94143426056914,189.87483637567087,191.9391430582696
0.2335669002335669,19.87358927217614,33.32895241264895,160.2245408635913,167.4806928267633,156.21456859746803,153.97294840380326,190.0342832130233,192.04443478541333
0.2669336002669336,20.528770852168897,32.62913921318082,161.22906162655443,166.40208430092142,155.96880558557757,154.05443660070625,190.18956002122687,192.1199188397322
0.3003003003003003,21.17385223636535,31.92311932835697,162.2087446805399,165.40103714046853,155.68697682823702,154.18236397225198,190.3423474378324,192.1674827660948
0.333667000333667,21.806535749182004,31.211284049272543,163.1634114349432,164.46623833036116,155.3729869218717,154.35319563941437,190.49432610039025,192.1890141093697
0.3670337003670337,22.424523715035352,30.49402466702269,164.09288329915972,163.58637485555593,155.03074046290703,154.56339672316724,190.64717664645124,192.1864004144255
0.4004004004004004,23.02551845834189,29.771732472702546,164.99698168258502,162.75013370100936,154.6641420477683,154.80943234448455,190.80257971356605,192.1615292261308
0.4337671004337671,23.60722230351812,29.04479875740727,165.87552799461452,161.946201851678,154.27709627288095,155.08776762434013,190.96221593928527,192.11628808935413
0.4671338004671338,24.167337574980536,28.31361481223201,166.7283436446437,161.1632662925184,153.87350773467026,155.3948676837079,191.12776596115964,192.05256454896417
0.5005005005005005,24.70356659714564,27.57857192827192,167.55525004206805,160.3900140084872,153.45728102956164,155.72719764356168,191.30091041673973,191.97224614982943
0.5338672005338673,25.213611694429915,26.840061396622136,168.356068596283,159.61513198454082,153.03232075398043,156.08122262487544,191.4833299435763,191.87722043681865
0.5672339005672339,25.69517519125004,26.09847450837808,169.13062071668534,158.82730720563734,152.60253150435324,156.45340774862422,191.6767051792216,191.76937495480183
0.6006006006006006,26.202797629653745,25.386828020097465,169.88467147503675,157.8421360301875,152.1523059312565,156.81835511618343,191.8923285442509,191.6659836811509
0.6339673006339673,26.65312470248058,24.65990841882721,170.43708985257814,156.7379427761325,151.69606890290854,157.17732968767402,192.1299203787412,191.56370748135984
0.6673340006673341,27.11784555050901,24.024346790228822,170.94415531009972,155.67044027562673,151.26306445817755,157.63800041731992,192.4401383880499,191.2213154199671
0.7007007007007008,27.52111358832047,23.34364257726175,171.53757319556502,154.51583826662284,150.86830328230604,158.11082754405797,192.77459661254284,190.85244652974103
0.7340674007340674,27.935822512521987,22.65600995692781,172.32580588627258,153.36099761797357,150.37678178647442,158.40183941153202,193.21221370962184,190.8010295240813
0.7674341007674341,28.28159893074488,21.949910132440653,173.2799768181371,152.18286742073536,149.9142350513322,158.658966326509,193.66272026960712,190.82706158853628
0.8008008008008008,28.475471180879342,21.26088688534035,173.63980667704195,151.04297861501075,149.57375818705867,158.96525966112998,194.06779989852976,190.84459239680527
0.8341675008341676,28.51551477521862,20.425339368350805,174.02461077347482,149.6927131724269,149.34766302718933,159.30104161342766,194.44924799984005,190.85891690850607
0.8675342008675342,28.472069685113343,19.51959800394484,173.94938120449308,148.45464821034426,149.24414997627878,159.65676243527545,194.76365374880092,190.86253193002776
0.9009009009009008,28.35144733531196,18.54765157809828,173.89914673390015,147.07885647364066,149.20895500540058,160.01857931520183,195.0446702179688,190.85346508762788
0.9342676009342676,28.142699626146538,17.56735576026917,173.14665373733695,145.28569072983146,149.22506624590383,160.3905917134001,195.2879421495251,190.83904560727007
0.9676343009676344,27.890306363851646,16.45399865440216,172.97151395814174,143.22849964230292,149.2753569906419,160.76802744087814,195.5057250395855,190.82283543970703
1.001001001001001,27.89263359460249,14.63144711723318,173.28411676878326,142.65463501112052,149.35723903547935,161.15638006432903,195.7199939258402,190.82681567695363
1.0343677010343677,27.876431643509672,12.859555421383428,174.19154526059395,141.45428762549147,149.4370182277321,161.5271557684356,195.927702704907,190.8110451124394
1.0677344010677343,27.8057289086952,11.461894483907308,175.67870812869984,139.7910368821461,149.52169572377352,161.90173793414655,196.1255155136841,190.78949706653088
1.1011011011011012,27.50709772489197,10.35495052430418,177.54676947562243,137.80537619446488,149.64046741585193,162.27166471647388,196.292024896177,190.72555294008063
1.1344678011344678,27.03067270728383,9.100898434274502,179.5336779475206,135.33570679206576,149.76718258772112,162.62033960381112,196.43329177072675,190.6110846372651
1.1678345011678346,26.320112121185755,7.923757505768388,181.7881890372977,132.66908117346213,149.8881107971841,162.93965011550878,196.54974188566624,190.46505036052704
1.2012012012012012,25.147404052986325,7.0336552309774,184.6497512335237,129.42813209982754,150.0080319709318,163.22098173007063,196.6592365449256,190.29997421026545
1.234567901234568,23.750789057480144,7.234105284177983,187.95362825093736,126.79797137852152,150.17597405626287,163.4621704992514,196.7589743450226,190.1374275395107
1.267934601267935,22.365039148041905,7.443617323901148,195.0665574421811,124.63742790006629,150.34342724380343,163.68651282112333,196.8531817729296,189.95775700982207
1.3013013013013013,21.07226152872182,7.505166328285631,201.1802954470324,122.45880929325511,150.46115279773082,163.8832794811025,197.0140094079419,189.76510230550667
1.334668001334668,19.845341426737363,7.062573854743206,206.3943571933244,121.75625116016224,150.6188339404632,164.05340832356617,197.169505249499,189.5808424019124
1.3680347013680347,18.6121000548339,6.829465923692608,210.34604339963283,121.37839642352712,150.6843721981651,164.21396554881056,197.3920672631905,189.39210958581145
1.4014014014014016,16.36220385728132,6.754940380021388,212.4774699689319,119.69049631309342,150.71700845158617,164.36714248728683,197.617353558695,189.1931972967459
1.4347681014347682,14.534270847083585,6.9916840990404765,214.02311716334123,116.35363519056742,150.67769120283145,164.5025847393093,197.7969601001944,188.9548307364514
1.4681348014681348,12.777858157623731,7.384650537959597,214.38829771572563,113.55165979851458,150.63925511422002,164.62838032251034,197.9188823813045,188.66528985044388
1.5015015015015016,11.338033620295414,7.797737172354023,213.9781697829837,110.7207158439596,150.63963456937793,164.7409673904005,197.96169558562195,188.33854082829188
1.5348682015348682,9.80619266303498,8.762070267273906,212.7595393004061,104.41809989060982,150.737875579184,164.8963465074839,197.7911284197468,188.06687699150248
1.5682349015682349,0.6163696892825461,9.354301903678165,210.6829232648072,98.53489356942153,150.75319924857374,164.81996960664097,197.6896645048585,187.84710691390453
1.6016016016016017,0.6163696892825461,9.669850674172,208.4657889467749,90.6682310527674,151.08830610981062,164.6454171337118,197.12746274775805,187.81858122301912
1.6349683016349683,0.6163696892825461,1.824753926627129,205.51394074266972,83.30361261018975,151.12798932043103,164.49548936963308,196.89098897346048,187.67491176018532
1.6683350016683351,0.6163696892825461,1.824753926627129,201.19030318948967,80.89306428962817,150.89237281453606,164.02883890407423,197.0622289347059,187.33042067678872
1.7017017017017018,0.6163696892825461,1.824753926627129,196.3591373451436,79.01664358966819,150.4490270501188,163.52998432122757,197.4529356074665,186.939399377715
1.7350684017350684,0.6163696892825461,1.824753926627129,191.3088184451377,77.27257282679122,149.9314101302565,163.0992887718873,197.9248328963684,186.550988500878
1.7684351017684352,0.6163696892825461,1.824753926627129,186.23214964391244,75.48648047294488,149.4467259949678,162.69294442219837,198.4410422113729,186.1719976626721
1.8018018018018016,0.6163696892825461,5.543838489563077,180.54141039144028,74.26741691563082,148.97289699599426,162.31365736851944,198.94331588326347,185.7783209150697
1.8351685018351689,0.6163696892825461,9.574969719241494,174.3564860411014,72.92922808175551,148.47202656616042,161.8364142912624,199.400917255722,185.70538051810348
1.8685352018685355,0.6163696892825461,13.85242725348453,168.02008965960087,71.33847434708478,148.05506796221596,161.2313190452763,199.75222699900783,185.83511739529425
1.901901901901902,0.6163696892825461,18.278027627685017,161.34539780735673,69.82358096020063,147.7346713355633,160.74807320457015,200.03949197553047,185.78019578176344
1.9352686019352687,0.6163696892825461,23.09482281520983,155.41964010928143,65.02799447776624,147.59787916067768,160.51911440080636,200.05712650893983,185.8734495292891
1.968635301968636,0.6163696892825461,28.05762618876832,149.22427333215228,61.67001323860805,147.35011258874832,160.17991208581168,200.33983554749065,185.916507001958
2.002002002002002,-5.029169806374323,31.64713518875249,140.84562620134275,62.56445635337811,146.809895577965,159.6766769155801,201.08282077794289,185.85420729359024
2.035368702035369,-7.956852264013008,34.88609588383937,134.1880564662224,63.82551500701785,146.10717804659444,159.16493295465236,202.04884093583937,185.741857520959
2.0687354020687354,-8.115017401146297,29.73993608814285,127.9977694957652,64.76054021344164,145.38420801250373,158.7986891771314,203.0073486667064,185.53088754471767
2.1021021021021022,-5.664333874689129,27.16816761677305,123.80351660388894,66.10088068069209,144.60708099442348,158.49871960579236,204.03500863591265,185.2919655466193
2.135468802135469,-0.8109364714546423,26.223087684653667,121.501934891088,67.80169276986123,143.8483482628226,158.208373202926,205.1286657617981,185.07417323113293
2.1688355021688355,-0.8109364714546423,27.5485216536492,120.48374466069242,67.95574725098777,142.9916034770925,157.89809805556823,206.2706681642012,184.86497460545195
2.2022022022022023,-0.8109364714546423,30.62054080810428,120.4302911572206,68.39335882340934,142.0737369811147,157.62305182504994,207.49020134006923,184.66811251171333
2.235568902235569,-0.8109364714546423,35.246632296053306,121.29148464810436,69.0784103781927,141.12314330902743,157.3233780531946,208.729432575058,184.50485327887944
2.2689356022689355,-0.8109364714546423,41.39760863974367,121.8920461234966,70.91866547783441,140.06828014023685,157.20196358381145,209.91962251537268,184.33414898511776
2.3023023023023024,-0.8109364714546423,49.80334169437019,124.16652582910191,73.18714785123866,139.0585150647738,157.07962907064302,211.08320917903595,184.25190751385293
2.335669002335669,-0.8109364714546423,60.1370921749619,128.4015723447305,73.24494273840335,138.17963601745404,157.11713540851278,212.2156971927659,184.1657143735341
2.369035702369036,-0.8109364714546423,71.58846066879394,134.88466626126055,73.94423842126547,137.38594208938437,157.06261565901633,213.32570857541225,184.1834609550408
2.4024024024024024,-0.8109364714546423,90.47704905486124,143.3340978328271,72.40720753721503,136.39561333169178,156.94232206610488,214.4144076620486,184.11233380601809
2.4357691024357693,6.175147332149475,108.47095739613134,148.65771528921678,73.33058737907768,135.62661954947563,156.70388260992274,215.35703520117715,184.16056953002783
2.469135802469136,15.655816137140622,128.10762573801418,147.83507627016155,74.99519172932924,135.07770511370228,156.0070630667597,216.27112799020875,184.3651647695284
2.5025025025025025,27.033114534059607,144.84183448411304,147.00840306111616,74.63844613499235,134.52170327644242,155.2223746567439,217.03690096578163,184.7316658389564
2.5358692025358693,39.78204526361306,157.87047750939735,146.56456626627624,72.65781119876338,134.00685671083508,154.4249902278433,217.62090124503789,185.19921027080804
2.569235902569236,53.63391802654221,168.79504531515516,147.25663882795072,70.58588064647367,133.5568275921304,153.5694932591352,217.9995265736553,185.8324042044292
2.6026026026026026,68.62655050658137,178.21603688687,147.53366494189592,70.58347943630386,133.21960505890422,152.76281742632656,218.26551434489647,186.5807413439344
2.6359693026359694,84.41455425763684,185.7636741239364,148.63516949616962,69.40570308013886,132.97542060222943,151.9088293321256,218.29835508899265,187.51461365671
2.669336002669336,101.52789755146546,191.27767771744624,153.77917082556087,64.74284660189954,132.83597093756478,151.0009623535276,218.05223804133607,188.71308123851537
2.702702702702702,118.56606203339828,194.6864471441569,159.43263985173405,63.46975095920479,132.7275512694673,149.91934840130332,217.72115444062013,190.0175012737077
2.736069402736069,136.06383557596158,196.0282332143952,164.9098038795614,62.47402982339429,132.83741877569165,148.95924275126976,217.0565360553265,191.39809936909955
2.7694361027694363,153.43966953273994,195.21557995618608,169.29750021525223,65.2880084653751,132.6173544859706,147.9777599773407,216.759820736228,192.62421336675737
2.802802802802803,170.04259435902043,192.43887221929972,173.02799107585966,69.01958424110975,132.55419829436178,146.88999546910398,216.27744879894183,193.92338115859383
2.836169502836169,185.83969205122696,187.0159597838908,176.95103113087686,70.01290046971549,132.70533107078302,146.06757307409544,215.43721910401567,195.3898577763172
2.8695362028695364,200.95920797565887,179.78473264651458,180.7748068389875,71.57989440383574,132.94637364494997,145.16829941541172,214.44318344448595,197.05061852187933
2.902902902902903,215.16363691682577,171.14049932922637,184.11087221343607,73.63605558412242,133.29526202260618,144.21500844028242,213.27579677870847,198.7211375324561
2.9362696029362696,229.1879528845452,171.21452966321155,187.5616247143319,76.03980995039831,133.66622117179264,143.31419972494936,211.873260891638,200.35795235376847
2.9696363029696364,241.6426956179208,161.32963128298437,190.8463626500728,78.32927363362748,134.2812789457726,142.48625771533014,210.31876407494752,201.93702684120967
3.003003003003004,259.7303144985264,150.21322771796437,193.2813763890966,81.25291015550614,134.8980442733441,141.58551454085534,208.8144804742728,203.5072049617169
3.0363697030363697,274.37138632735105,137.5869620494871,194.72584642704703,83.90730347813182,135.43862905379683,140.8582425840409,207.4639917151143,204.9282477867552
3.0697364030697365,285.4085027753199,123.251868671728,200.4782865298136,86.42671912750181,135.98083988307835,140.24679919719483,206.1885530386953,206.21291049813672
3.103103103103104,292.4790327373505,106.75531701525138,202.3383281863904,93.4507267497325,136.40552821924632,139.57927446822865,205.3594065341791,207.02745238638852
3.1364698031364697,297.4606864702876,87.48912601079913,202.0512937862036,101.41090610066811,136.71294782663784,139.11794713668428,204.6565062549801,207.60074681782845
3.169836503169837,298.2950821085784,67.39510769751953,201.64906622803417,106.359253386316,137.28260106769693,139.03099241817654,203.68021584314087,207.93767211013045
3.2032032032032034,295.1317293329095,45.84056260284973,196.91312812134447,114.2981538010925,138.05944890215576,139.41184060848244,202.42870543784065,208.00623755829747
3.2365699032365702,288.7853652047206,33.7758756573632,191.8164780770977,121.31222536053188,138.8823723809706,139.838910175208,201.3484426575085,207.89524022159355
3.2699366032699366,277.4568505139994,22.83691461245,187.35392891899264,126.76016817085888,139.75173468471186,140.50307291298233,200.4444900948176,207.74734719080388
3.3033033033033035,262.519349189804,14.241202033090731,182.1223823998416,130.89695740336205,140.54770325750664,141.37039385368465,199.59651771921932,207.328743750365
3.3366700033366703,244.18518889156977,5.2848116327479815,177.62419668669293,133.983107008631,141.2957614597931,142.29956573054665,198.8309194355499,206.6863409525582
3.3700367033700367,223.05490667973424,-0.7342709181096585,169.47418351721106,135.88687256746695,142.08466899482002,143.34664350700268,198.0782170272308,205.7949036431036
3.4034034034034035,209.17737839342348,-4.840609806962421,161.83029870969457,135.7408062273464,142.8389940552489,144.37779689663913,197.41079338185816,204.7416830525948
3.4367701034367704,194.4193766260618,-6.121575565285989,155.24714321884505,133.141788319377,143.68271401378215,145.4354976833207,196.86356643552708,203.53240995513127
3.4701368034701368,179.44705663907916,-3.8390367494174304,148.04675863388005,130.04358890949237,144.58671444853883,146.70066756808868,196.4242893468086,202.0810522908246
3.503503503503504,164.37058973384984,1.9766755529952225,139.2282795662572,127.24702009406782,145.4742074654576,147.56355711972728,196.06001330071967,200.5804708372542
3.5368702035368704,149.4812296234362,1.9766755529952225,124.60763469749428,119.1667430777406,146.23500228478227,148.26280750117246,195.80600296660705,198.9740260956237
3.5702369035702373,134.91622599575825,1.9766755529952225,108.33897295814668,114.22254548779335,147.16049905203838,148.7868255890607,195.6209021513509,197.49657145044512
3.603603603603604,121.3231656733524,1.9766755529952225,92.8354567696246,108.3922490330393,147.92947153570526,149.07019871395804,195.38259640772148,196.0277829567464
3.6369703036369705,107.76979354527325,1.9766755529952225,83.60422286423358,102.59427733411084,148.49747252182902,149.65353299908188,194.9929015576576,194.5300034526633
3.670337003670337,94.32925902730165,1.9766755529952225,74.88674393539084,97.84806381024713,149.04158690977778,150.34027709464115,194.6158869033842,193.01285804136285
3.703703703703704,81.42135076817198,1.9766755529952225,67.42947192619383,93.8416248137632,149.5084943217029,151.01260911297723,194.1998284196249,191.57043762089367
3.737070403737071,68.99330751619203,1.9766755529952225,61.5965989332932,89.81894198691882,149.95547270952383,151.5714581477743,193.727053370152,190.2244611934676
3.770437103770437,57.21517298754083,1.9766755529952225,58.44504440168776,84.80786164150726,150.31630596873714,151.9771465582451,193.0787751586804,189.00509054454605
3.803803803803804,46.74091410138754,10.962952438437911,57.63021691766773,78.64000547192934,150.5667451426027,152.32376861077967,192.3661867610808,187.82469889808664
3.8371705038371706,36.6977849770657,14.470354698815209,55.29036006173696,75.14100338927817,150.81407349732396,152.63125483553338,191.617464301176,186.6244975941524
3.8705372038705375,27.61479728599188,20.229974900227976,53.12517248341449,72.36835239311573,150.9789297569487,152.7574653361445,190.9077921146693,185.5113912944129
3.903903903903904,19.67850377577001,24.276112768408066,52.199167358425605,70.48142470407,150.9386620102093,152.7497819790828,190.26765058662875,184.5259223574272
3.937270603937271,9.32200564430348,20.22537725231905,52.58084143178086,68.90960353369225,150.75698509809612,152.70028715982457,189.63746744105225,183.59981739592968
