Time,Left Shoulder Angle,Right Shoulder Angle,Left Elbow Angle,Right Elbow Angle,Left Hip Angle,Right Hip Angle,Left Knee Angle,Right Knee Angle
0.0,7.991878858004876,2.890229249621543,178.72991183272265,181.72324957354448,165.72087863056393,203.2642477343161,180.97826383619903,176.0438749484467
0.0333667000333667,7.968458972022543,3.4089229623035147,178.2225770959036,180.86672221816747,165.72696199819694,202.86563212995293,180.8649223425689,176.27693617496698
0.0667334000667334,7.939033961473649,3.82286986431959,177.73016799044714,180.13082197218125,165.73004152775323,202.49982776977188,180.74061232693668,176.50926786943634
0.1001001001001001,7.905004635496823,4.139353747241706,177.25733354923247,179.50937992675003,165.73024675809123,202.16629746804816,180.60696671067552,176.73931626875043
0.1334668001334668,7.867771803230694,4.365658402641797,176.80872280513893,178.99622717303805,165.7277072280694,201.86450403905707,180.4656184151584,176.96552760980484
0.1668335001668335,7.828736273813891,4.509067622091799,176.38898479104571,178.58519480220951,165.72255247654618,201.5939102970738,180.31820036175844,177.18634812949526
0.2002002002002002,7.789298856385042,4.576865197163649,176.00276853983215,178.27011390542862,165.71491204238006,201.3539790563736,180.16634547184864,177.40022406471726
0.2335669002335669,7.750860360082778,4.576334919429282,175.65472308437748,178.0448155738596,165.70491546442946,201.14417313123167,180.011686666802,177.60560165236652
0.2669336002669336,7.714821594045727,4.514760580460633,175.34949745756094,177.90313089866666,165.69269228155284,200.9639553359234,179.85585686799163,177.80092712933865
0.3003003003003003,7.682583367412518,4.399425971829638,175.09174069226188,177.83889097101402,165.67837203260862,200.8127884847239,179.70048899679054,177.98464673252928
0.333667000333667,7.655546489321781,4.237614885108233,174.8861018213595,177.8459268820659,165.66208425645533,200.69013539190848,179.5472159745718,178.15520669883406
0.3670337003670337,7.635111768912143,4.036611111868354,174.73722987773309,177.9180697229865,165.64395849195134,200.5954588717524,179.39767072270843,178.31105326514864
0.4004004004004004,7.622680015322236,3.803698443681936,174.64977389426193,178.04915058494004,165.62412427795516,200.5282217385308,179.25348616257347,178.4506326683686
0.4337671004337671,7.619652037690687,3.546160672120916,174.62838290382527,178.23300055909073,165.60271115332523,200.487886806519,179.11629521554,178.5723911453896
0.4671338004671338,7.627428645156126,3.2712815887572275,174.67770593930237,178.4634507366028,165.57984865691998,200.47391688999227,178.987730802981,178.67477493310727
0.5005005005005005,7.647410646857182,2.986344985162808,174.80239203357252,178.73433220864044,165.55566632759786,200.4857748032258,178.86942584626956,178.75623026841726
0.5338672005338673,7.680998851932482,2.698634652909592,175.00709021951496,179.03947606636788,165.53029370421737,200.52292336049487,178.76301326677873,178.81520338821517
0.5672339005672339,7.729594069520713,2.4154343835695338,175.29644953001036,179.37271340095074,165.50386032563833,200.5848253760764,178.67012598588292,178.85014052939815
0.6006006006006006,7.792610068913672,2.256674971621705,175.71509830113493,180.07971162234062,165.47967420133554,200.8026145050692,178.62818472763283,178.75876183442173
0.6339673006339673,7.917791799082357,2.071676161550496,176.24298916937124,180.6042370047541,165.4152112832499,200.9977170752616,178.6080513142635,178.65343743892845
0.6673340006673341,8.069546854650028,1.8856294411477568,176.87128354454345,180.6462023927782,165.31407055911853,201.1615595677304,178.60683687248155,178.5427442635154
0.7007007007007008,8.26252017772356,1.764299685796778,177.6604497155364,180.792302565578,165.23849654242125,201.3551772491681,178.60783140129735,178.4087933026548
0.7340674007340674,8.388226543713714,1.6001007630603703,178.2000002652637,180.8013118808969,165.1621558344601,201.53294652763472,178.62539423382142,178.27863179847748
0.7674341007674341,8.586058277936063,1.455535409815857,179.15888539586996,180.93742909255428,165.0764622661636,201.67164124359448,178.6645503678666,178.14531889801228
0.8008008008008008,8.810578027400085,1.407193459147264,180.3740657756723,181.73796861689243,164.9843956313129,201.7749729438862,178.730179431633,178.0175584392449
0.8341675008341676,9.010653474936674,1.407193459147264,181.5983455147,181.8565239446594,164.92330091637044,201.9140991033508,178.80742725125685,177.8581824533212
0.8675342008675342,9.05104467487666,1.407193459147264,188.6674722703655,181.65938770109304,164.91167788632353,202.0944221935183,178.90615809000752,177.66687715973708
0.9009009009009008,9.38090299513855,1.407193459147264,188.08734233452927,181.50258109440867,164.96189462407594,202.3079748980115,179.01518128218262,177.44994612049743
0.9342676009342676,9.962340751738353,1.407193459147264,187.1814698308553,181.1446942613796,165.03941286723432,202.54366576398183,179.15296328115727,177.20014929049808
0.9676343009676344,10.889442667830725,1.407193459147264,189.11888151288736,181.1211553267057,165.16703560720495,202.7982351360056,179.31119545245582,176.9088495009022
1.001001001001001,11.497620339181308,1.407193459147264,194.04168405170185,181.21496200371067,165.33059203129417,203.0369191214472,179.47185222355796,176.6521684011959
1.0343677010343677,11.95369556911588,1.407193459147264,191.7050026764217,181.2073472449042,165.51696672772778,203.28593019003563,179.6396892277187,176.4134472432524
1.0677344010677343,12.079547961431112,1.407193459147264,190.7221989699428,181.55187588435268,165.72648900618657,203.55467417231912,179.79949769629445,176.19281588489375
1.1011011011011012,11.889713923347449,1.407193459147264,190.64044451586432,181.8179515952474,165.95725631585307,203.8347772011816,179.9108517102148,176.00364409621088
1.1344678011344678,11.817886246147154,1.407193459147264,190.4630524246637,181.7826585555984,166.1879212391567,204.06646715031016,179.96472166299225,175.82755850101003
1.1678345011678346,11.550263659214709,1.407193459147264,190.91019576807727,182.35912735250244,166.43531339961757,204.2559371863381,179.97557787041598,175.6625949491534
1.2012012012012012,11.429820289338902,1.407193459147264,190.97870920944828,182.89276558873465,166.69502135542953,204.38513203056667,179.95430075473104,175.5401494692464
1.234567901234568,12.291569384159134,1.407193459147264,193.55292244474245,183.03688628770072,166.97221091888892,204.4443633338221,179.88345238485093,175.46669332900072
1.267934601267935,12.614838013911957,1.407193459147264,201.55634909596336,183.1729378734192,167.23726968144587,204.45129215083188,179.80287901869417,175.459618166951
1.3013013013013013,12.914879596785823,1.407193459147264,206.36264439295977,192.0266027362158,167.51702929589925,204.3906291531453,179.71809834686528,175.49656411628192
1.334668001334668,12.717004019282252,1.407193459147264,206.77129230202425,198.5916500218489,167.79899020432174,204.2731307263868,179.61465008211064,175.56115239320084
1.3680347013680347,12.604806174548894,1.407193459147264,206.0647908012056,202.78937287850053,168.0988291645926,204.10085805641512,179.50306444272397,175.67730353688054
1.4014014014014016,12.76230713371652,1.407193459147264,204.27868411185247,204.35983135897047,168.4431119468951,203.8926394629971,179.38639084145768,175.81243035183297
1.4347681014347682,12.326425930470052,1.4589065411449689,197.2844307674337,201.04197456026952,168.75156273234418,203.757962184612,179.27349701904745,175.95625057438278
1.4681348014681348,12.028606817867326,1.4493743324810635,191.2195186718101,200.83230687569704,169.01719896287534,203.60326187612824,179.14638013299816,176.1162546033076
1.5015015015015016,12.42380652214369,1.5398086764202323,185.51048562146804,191.1305321936051,169.317336605816,203.43907193404084,179.0414161791184,176.2221724416282
1.5348682015348682,13.245331513645011,1.5398086764202323,180.09567098074302,183.220163237888,169.63449062632594,203.25741326878668,178.94555022313165,176.29554084556793
1.5682349015682349,13.898813301796356,1.5398086764202323,175.6686457440779,176.20707673640803,169.92725281922586,203.05855797942908,178.8494280655228,176.3617208061517
1.6016016016016017,14.998076778627954,1.5398086764202323,171.3963347105299,170.43671905538275,170.18909517129885,202.82339565272724,178.78030276239218,176.4404522313507
1.6349683016349683,16.702528323258083,1.5398086764202323,170.78680445050077,165.15948898194384,170.52730797538194,202.531025984506,178.74363233981333,176.52092779905735
1.6683350016683351,18.65492053216225,1.745733130260505,169.9732724975596,167.9231068013244,170.9356406681487,202.24539424620696,178.68118090816273,176.5860133821164
1.7017017017017018,20.688613013015846,1.745733130260505,168.2963236228415,163.86271094888895,171.3214165078753,201.96737122203885,178.60228605861525,176.65442237416946
1.7350684017350684,22.28839679770034,1.745733130260505,164.08996494423062,160.5604632579536,171.68016031547603,201.6617231493372,178.50229076243136,176.7459645640803
1.7684351017684352,23.743757519722305,1.745733130260505,160.8802805687106,157.49183054596125,171.8934823674999,201.31766611688667,178.38602186294943,176.88383131507914
1.8018018018018016,25.480533925032724,1.745733130260505,158.3622746684305,153.13288499641868,172.1306900764221,200.9401254230836,178.25960724430377,177.0435189800396
1.8351685018351689,27.71185099461273,1.745733130260505,157.3041120364301,153.96676732042846,172.41909603047836,200.5679352580888,178.13587584303298,177.2076808260999
1.8685352018685355,30.16960755454608,1.9909390012599528,156.43303782001888,151.8859688199246,172.72278781380018,200.16374036540768,178.03054355610158,177.3797802855901
1.901901901901902,33.0381816779314,1.9909390012599528,156.5207260025974,146.85320458241725,173.03732838906626,199.7742059531654,177.94317023051158,177.52011306796865
1.9352686019352687,36.10214519622279,1.9909390012599528,157.25336315408907,141.6191517313087,173.38662114569826,199.4630432297677,177.87677897508675,177.62381935492627
1.968635301968636,39.37594126897017,1.9909390012599528,158.40069175056115,135.24592586037764,173.7990477181586,199.2438917795325,177.81848066475033,177.6603963318416
2.002002002002002,42.90080529719447,1.9909390012599528,160.27562864755353,129.81453827847352,174.2384376235982,199.0742650891599,177.78297673671202,177.6556541581575
2.035368702035369,46.65001419146356,1.9909390012599528,154.6919558991664,125.3863287127076,174.71763999883208,198.9229761771689,177.7566424033107,177.60856453277586
2.0687354020687354,44.45218634092991,1.9909390012599528,155.84282875632965,121.9237716020222,175.20646859765017,198.77893866371545,177.7340966760344,177.540888589595
2.1021021021021022,44.038002405142585,1.9909390012599528,158.262314987985,119.60492174337136,175.72833149170162,198.64958376519763,177.68998564957974,177.46883128166894
2.135468802135469,44.98603611890484,1.9909390012599528,158.1388482142282,117.88126598546148,176.2518065613957,198.51137800450653,177.62305595123914,177.42971130501263
2.1688355021688355,47.581679153458495,1.9909390012599528,153.92099803851838,116.99552985595992,176.77697998213196,198.36335711874733,177.546004650434,177.41389879151168
2.2022022022022023,51.69896508346426,2.4044003335630686,156.52495071122806,117.08448287514288,177.296935871654,198.2241110436016,177.46350264249688,177.4184105324409
2.235568902235569,57.27798105119616,2.4044003335630686,159.27332270441678,117.92525561353152,177.8038430638343,198.0609873796195,177.3617866839106,177.43109781498512
2.2689356022689355,64.28016589234126,2.4044003335630686,162.1113549858811,119.82773097694708,178.33254758941075,197.85795679590865,177.2430766321754,177.4398217737389
2.3023023023023024,72.2136061641268,2.4044003335630686,166.13608967653565,123.1297731073122,178.82992486581114,197.68199929448284,177.13214096356498,177.44879965548907
2.335669002335669,81.44952114467581,2.4044003335630686,170.42444318125135,126.94775516776284,179.26135041635138,197.53131790388937,177.01978688777416,177.46981149102044
2.369035702369036,91.43554410763818,2.4044003335630686,176.17123271344002,132.0458369913191,179.68487169396352,197.3856001418173,176.8923354357202,177.49037183844328
2.4024024024024024,101.05109737806616,2.4044003335630686,179.4289795028148,138.88747161905945,180.07509285917655,197.24278562280887,176.78098924569255,177.50216677713198
2.4357691024357693,111.531856037246,2.4044003335630686,174.96972948952794,147.5458957025264,180.4121837950626,197.1334433000307,176.66063381852405,177.48798648802554
2.469135802469136,122.17423495819465,2.4044003335630686,169.79238712390656,146.5649590173359,180.69318843422485,197.0366463488048,176.5608200908563,177.44357896683712
2.5025025025025025,133.45861919015755,2.4044003335630686,166.1440027257756,144.55291108012193,180.9100626174925,196.9754084849159,176.46698209645703,177.3853673463333
2.5358692025358693,144.79329447132042,2.4044003335630686,161.56225264422335,141.59539676275878,181.0392395707353,196.945658719804,176.37409784580876,177.32045058751325
2.569235902569236,155.9216495058786,2.4044003335630686,156.18372576440026,138.07578356255797,181.07491532081173,196.9482731631683,176.27107936891107,177.25986939436908
2.6026026026026026,167.7582995617253,2.4044003335630686,155.61712411952712,137.53085220651715,181.07018210766483,196.9275180175109,176.18737506024695,177.19953695999925
2.6359693026359694,179.7075603438475,2.85805111381258,155.01862049057087,132.1555245403135,181.0677160251143,196.85678055559072,176.1221712784968,177.1226500058782
2.669336002669336,191.1098969942962,2.85805111381258,155.1181567378406,135.9870208282587,180.9933867882463,196.7908256464455,176.05393047393,177.066318296477
2.702702702702702,201.9486033892292,2.85805111381258,155.6410511681097,140.39393129466282,180.86792923376973,196.70998917132212,175.97342111712842,177.0410091519142
2.736069402736069,212.73253766932663,2.85805111381258,156.13485057759183,145.597618418501,180.75740790123496,196.6147594493159,175.86665694567296,177.02187427971225
2.7694361027694363,222.77233586692515,2.85805111381258,157.430816574604,151.21105161253004,180.64733004884104,196.5170874850929,175.7249128721824,177.00450294284818
2.802802802802803,231.57310824293805,2.85805111381258,155.19657143428273,158.36801458687708,180.4432816150953,196.45378844223723,175.5358122337073,176.99118832861666
2.836169502836169,239.24863949569496,2.85805111381258,152.3270258192701,157.18740051940594,180.1522024710576,196.41370436592013,175.34751363129456,176.99009137791197
2.8695362028695364,245.9000029633115,2.85805111381258,149.49134400294577,159.87166369915508,179.78774990847444,196.3445836724657,175.17179434471225,177.016224376961
2.902902902902903,252.08180722525145,2.85805111381258,149.33306090621178,161.88042902991054,179.3835233428306,196.3037476891029,174.98922029891162,177.0491248063346
2.9362696029362696,257.7346632509845,2.85805111381258,149.02282695359636,162.62871690153884,179.09736494879428,196.2503802682619,174.8214127973919,177.0776856969494
2.9696363029696364,262.4108829034037,2.85805111381258,148.76564781698508,164.0029027095029,178.84123160032215,196.2239787438328,174.65786755978354,177.10419715617206
3.003003003003004,265.72942386592905,2.85805111381258,147.4976055934335,159.1186676505521,178.53339949287877,196.1619863985001,174.51272257065315,177.16903080701232
3.0363697030363697,267.5586947515389,2.85805111381258,146.56145691351074,155.50818853969474,178.2246074456946,196.09427502349217,174.35426264282887,177.22215007302543
3.0697364030697365,267.6865191611913,2.85805111381258,145.8168144515953,155.40279978174283,177.96856542274705,196.0691043049828,174.17520499285567,177.24937891047367
3.103103103103104,266.1718976255251,2.85805111381258,144.85465675699643,156.747414489053,177.74497125227106,196.04906869499,174.01069390150923,177.26182304257495
3.1364698031364697,262.991491909434,2.85805111381258,143.75147827898263,154.84683342569542,177.6202079441719,196.06876590293285,173.76690742075505,177.26665624863662
3.169836503169837,257.98233693648416,3.420232206522273,142.48815984328078,152.20769092599755,177.5541351686232,196.08886817834693,173.4917199101035,177.27336489639882
3.2032032032032034,251.44836657813923,3.420232206522273,140.84040456400035,151.38799163834065,177.59021736272524,196.0967605447439,173.24313318498088,177.2677066895386
3.2365699032365702,250.9654100178633,3.420232206522273,139.27701482453847,149.38217634216633,177.6624954761482,196.11235530265373,172.96821561799808,177.23197514183082
3.2699366032699366,250.5386817236655,3.420232206522273,138.06110105846523,147.24039075672582,177.8084517617009,196.16911311032743,172.71886447093766,177.14436219003397
3.3033033033033035,256.3892800577688,3.420232206522273,137.3832095328138,146.4165756657111,178.04042011695938,196.3104581751634,172.4111279084652,177.0375823719724
3.3366700033366703,260.9111724921879,3.420232206522273,136.5726451800387,143.47853138215163,178.42096653543177,196.43652209798728,172.1355287448538,176.85960841769773
3.3700367033700367,263.46828337516007,3.420232206522273,136.24477802905838,140.8223555498786,178.78737980049323,196.58209554197248,171.90962887028778,176.6569306342362
3.4034034034034035,264.4662288560451,3.420232206522273,135.0984781617508,142.69129050203304,179.20841638341793,196.7853421174397,171.70611492973745,176.4397210069107
3.4367701034367704,266.67887487476423,3.420232206522273,139.5724425466294,143.70108624194503,179.68538374766229,197.0278191384372,171.56633328588634,176.1925648332262
3.4701368034701368,265.1577410152375,3.420232206522273,136.83397801338123,143.12076406379015,180.0967158774803,197.2698859626207,171.60453720394713,175.96018570959274
3.503503503503504,261.71770277560154,3.420232206522273,139.284624967035,141.54831651858223,180.5885273556259,197.4941274151124,171.75913015148643,175.66849164041264
3.5368702035368704,256.958788607002,3.420232206522273,137.16729311974095,139.2277578575257,180.9000179012453,197.7086402084417,172.16792982481925,175.46421387217185
3.5702369035702373,250.9402251013437,3.420232206522273,136.25390741256297,132.6140025865883,181.0887402668256,197.8772815147666,172.7952621251315,175.36228273280457
3.603603603603604,243.74716009178084,3.420232206522273,135.72612108048193,127.35961300788252,181.1106316023665,197.9528105032764,173.69882850852454,175.31597174223987
3.6369703036369705,235.1420994938396,3.420232206522273,142.36201945459155,124.47476351685826,180.9116074886038,198.0610455955572,174.7806238410554,175.31158183902912
3.670337003670337,225.1844743176021,3.420232206522273,143.00653825962956,115.79407654385729,180.579684149018,198.2124523611056,176.01657200766743,175.3457117027168
3.703703703703704,214.24419668029103,3.420232206522273,144.49433667717545,107.69088856865336,180.0847218957415,198.2689882179618,177.4128072235728,175.52781991197887
3.737070403737071,202.41335730398808,3.420232206522273,146.8109480617954,100.88086568838958,179.51932142732468,198.4831431999036,178.94539868219192,175.73283667039914
3.770437103770437,189.89103573678847,4.0835076377352335,149.32077040661923,95.6230007004718,178.8699439141063,198.7336306189769,180.60396870352704,176.02304603743391
3.803803803803804,176.87266661997742,4.0835076377352335,152.03386882320115,91.66918559126944,178.12646418071387,199.01218467973064,182.34032664471567,176.44323363774214
3.8371705038371706,163.212473120776,4.0835076377352335,154.77846163811333,88.94831985580308,177.35436662953887,199.33975101693832,184.09758775520072,176.96631484352187
3.8705372038705375,149.15068066406738,4.0835076377352335,157.73073369344726,86.7937647515946,176.5871971209424,199.73489358956675,185.8413451847113,177.5828715150015
3.903903903903904,134.81384895919317,4.0835076377352335,160.55214002247354,85.59580640141651,175.7676425224724,200.1193626588547,187.59554541407047,178.33209211292265
3.937270603937271,120.29069177210522,4.0835076377352335,163.5910709977172,85.51314065580105,174.98263427208877,200.47588914934653,189.31271165720392,179.2787505280591
