Time,Left Shoulder Angle,Right Shoulder Angle,Left Elbow Angle,Right Elbow Angle,Left Hip Angle,Right Hip Angle,Left Knee Angle,Right Knee Angle
0.0,26.24272648047989,22.32516671401689,151.0181914410914,132.25463861698432,120.44018920965348,122.62710538220234,202.70639147639048,204.5487074761049
0.0333667000333667,26.59702662671149,23.291817407277623,151.6485107096783,133.30308194403372,120.36967199268967,123.31544368615928,201.93961171182443,204.79911737722023
0.0667334000667334,27.010946101826026,24.040700009875195,152.42075329788935,134.28801393017642,120.31510323088597,123.87268054106416,201.2381684095905,205.0336471061171
0.1001001001001001,27.478179459449965,24.58844752773548,153.3207344450807,135.21304383224867,120.27599447045478,124.30665268834764,200.5987627034241,205.2527512990788
0.1334668001334668,27.99242125320977,24.95169296678436,154.3342693906085,136.0817809070867,120.2518572576085,124.62519686944027,200.0180957270608,205.4568845923888
0.1668335001668335,28.5473660367319,25.14706933294769,155.44717337382895,136.89783441152676,120.2422031385596,124.83614982577276,199.492868614236,205.6465016223306
0.2002002002002002,29.13670836364282,25.19120963215136,156.64526163409823,137.66481360240508,120.24654365952044,124.94734829877564,199.0197824986853,205.8220570251876
0.2335669002335669,29.75414278756899,25.10074687032124,157.91434941077247,138.38632773655786,120.26439036670348,124.96662902987956,198.59553851414432,205.9840054372432
0.2669336002669336,30.39336386213688,24.892314053383195,159.2402519432078,139.0659860708214,120.2952548063211,124.90182876051514,198.2168377943485,206.1328014947809
0.3003003003003003,31.04806614097293,24.582544187263107,160.60878447076044,139.70739786203185,120.33864852458576,124.76078423211295,197.88038147303325,206.26889983408407
0.333667000333667,31.711944177703632,24.188070277886847,162.0057622327865,140.3141723670255,120.39408306770984,124.55133218610368,197.58287068393423,206.39275509143624
0.3670337003670337,32.37869252595543,23.72552533118029,163.4170004686422,140.88991884263856,120.4610699819058,124.28130936391786,197.32100656078688,206.5048219031208
0.4004004004004004,33.042005739354785,23.211542353069305,164.82831441768363,141.4382465457073,120.53912081338603,123.95855250698614,197.09149023732675,206.60555490542112
0.4337671004337671,33.69557837152817,22.66275434947977,166.22551931926702,141.9627647330679,120.62774710836295,123.59089835673912,196.89102284728932,206.69540873462068
0.4671338004671338,34.333104976102035,22.09579432633755,167.5944304127485,142.46708266155662,120.726460413049,123.18618365460743,196.71630552441025,206.7748380270029
0.5005005005005005,34.94828010670285,21.52729528956853,168.92086293748423,142.9548095880097,120.8347722736566,122.75224514202168,196.56403940242484,206.8442974188513
0.5338672005338673,35.53479831695708,20.973890245098573,170.1906321328304,143.42955476926335,120.95219423639811,122.2969195604125,196.4309256150688,206.90424154644927
0.5672339005672339,36.08635416049143,20.452212198853687,171.38955323814446,143.894927462155,121.07823784748702,121.82804365121146,196.31366529607897,206.955125046082
0.6006006006006006,36.6456751444865,20.84534140271593,172.3648715270091,145.04089341511363,121.1096744836131,121.23170574810004,196.4466176077788,207.04822674634028
0.6339673006339673,37.0118772928207,21.21682331505391,173.2659225402577,145.74816639642412,121.10262641002342,120.7854158860095,196.52308969413565,207.0948783065168
0.6673340006673341,37.220658914965504,21.115023638014783,173.99666100241504,145.98203351615223,121.25117023294185,120.45232507332052,196.45647149869308,207.1004254582529
0.7007007007007008,37.44710217754313,21.72536557540336,174.66349874474142,147.05227060670472,121.37326493150078,120.15910366075045,196.362618829514,207.0805753229022
0.7340674007340674,37.73442637215156,22.22372956713753,175.33623780763406,148.01759784142735,121.52638504111133,119.83917673469831,196.2092527619999,207.0873606418077
0.7674341007674341,37.93597163425461,21.431209564116685,175.7561564901606,147.8010699201998,121.7650153846146,119.5322493958176,195.9111105861633,207.11934364979265
0.8008008008008008,38.03902742021867,20.45581503266274,175.88249896498766,147.3869972936887,122.07721824595578,119.29632222506206,195.53968544026924,207.13841999790188
0.8341675008341676,38.01883307974198,19.53219619050516,175.70327546910363,147.21603957755534,122.45013871386426,119.11005350584418,195.1574794954125,207.17295882390812
0.8675342008675342,37.91314553097723,18.887323881490644,175.3977858751919,147.2078456949403,122.834452743237,118.95404862141216,194.80511478939428,207.21738688618944
0.9009009009009008,37.72526669600643,18.52380642246037,174.95280158868886,147.14928202246435,123.27094201819088,118.83250924593192,194.4506490054835,207.2430592785652
0.9342676009342676,37.3705949952934,18.41935307474036,174.0770400723888,147.23196646106783,123.68851969531018,118.7533660588255,194.07913432435137,207.23388115505784
0.9676343009676344,37.014916715959366,18.63329141962076,173.1315165096899,147.28406662677563,124.0775206249648,118.6381587893422,193.7376884232442,207.2321788189895
1.001001001001001,36.72618801142204,19.11038760842533,172.34403864799287,147.2957023841384,124.30824518490331,118.4336478207652,193.4050449009243,207.2695780387824
1.0343677010343677,36.59088776527585,19.60184052548001,171.91338806159013,146.9888323450069,124.45191105658186,118.24855336730766,193.1214877652775,207.31650273521723
1.0677344010677343,36.442583923277866,20.2811074869674,171.44069736702,146.55532653690105,124.49906934852842,118.08659256873028,192.931483661393,207.3491257073833
1.1011011011011012,36.336206192731645,21.300369510796685,170.96193275257716,146.13793458032188,124.79876649402613,117.88761537305216,192.03246449345968,207.3723490218416
1.1344678011344678,36.25632582726681,22.68661476609701,170.602708260387,145.6377235280252,125.11844136210424,117.63158770452678,191.130478913752,207.398278254242
1.1678345011678346,36.19969908623127,25.02187228515928,170.3225777710046,145.9643462251328,125.29976685800494,117.3281589670776,190.4804433742061,207.4081791858196
1.2012012012012012,36.22365531538241,26.188659366415777,170.39069491829457,146.37465036472204,125.3635375007744,117.06567994990657,190.131938141951,207.389857124538
1.234567901234568,36.27497157820925,26.72157718559712,170.58155982709889,146.29213799162477,125.1655542079535,116.8286910298186,190.4012587197706,207.38406106199167
1.267934601267935,36.30714040126818,26.97627861105247,170.7866627420137,145.82145521314823,124.88639902629876,116.64054860406182,190.8895187159964,207.34597071392847
1.3013013013013013,36.3173362888004,27.32740908067823,171.03621437487624,145.29381795239414,124.39440307348782,116.5189447007619,191.7520284397768,207.2485182499995
1.334668001334668,36.306145042449046,27.34312136442677,171.26273026387767,144.56476844764543,123.88384461828628,116.39999362827392,192.6476118754165,207.1847192669413
1.3680347013680347,36.28110148206204,27.246454819111666,171.59431588335133,144.60919694478144,123.13695756493264,116.32697007480786,194.19194446890265,207.1829800649776
1.4014014014014016,36.25428643932148,27.45079854171152,171.9624559907424,144.31266265793525,122.26711764159266,116.22949883807092,195.83273608971385,207.3004545520957
1.4347681014347682,36.20179770583738,27.792072232380068,172.347558916722,144.10529808858004,121.35930356948371,116.20270816244376,197.65409501064093,207.38349333435048
1.4681348014681348,36.12476898511241,27.960912802043463,172.8001079566154,143.98587119673186,120.48615135444972,116.24933711718352,199.46056077145587,207.40821587374504
1.5015015015015016,36.08817892388926,28.199346199633386,173.34705620005604,143.8336129769428,119.70601878616787,116.28047304181725,201.03178447327704,207.46637469510813
1.5348682015348682,36.005230461913456,28.40138802012107,173.95657903263023,143.289177120964,119.21273014129147,116.39983523024094,201.96464932805404,207.41919002105607
1.5682349015682349,35.87369697730362,28.887828017592163,174.52681363735758,143.20679285864037,118.2629832919965,116.56261617183974,203.6605988428999,207.36072173544
1.6016016016016017,35.741415717337446,28.973931642459974,175.06633329633377,143.89607109347443,117.29909051708596,116.76831139404504,205.41405829770483,207.23579260879947
1.6349683016349683,35.629327746676296,29.30213357271197,175.50864140698584,145.01263656432883,116.1165848275646,118.22715085076295,207.18424839432657,205.5406353672314
1.6683350016683351,35.49612284689649,29.753683477889407,176.00915280143087,145.4094739411781,115.09198470239082,119.38651964573695,208.82249479801584,204.19672817961904
1.7017017017017018,35.42764168448061,30.386226687347524,176.73235195839345,145.55426178771387,114.33145025790924,119.73242521698056,210.37494560277923,203.64615748499503
1.7350684017350684,35.51066242974444,30.49745734108957,177.72360281448164,146.12097442412897,113.65128338535922,119.8670411181673,211.86460096697328,203.4169856312354
1.7684351017684352,35.69709511900726,29.69062009897387,178.59524720092307,145.06321336713088,113.3317515624475,119.3207827714653,212.77460467738248,204.11126445294988
1.8018018018018016,35.80802516260153,28.79718930841423,179.5282101976983,144.3319060308741,113.41906507617388,118.75597313016829,213.1835534362118,204.7825283347899
1.8351685018351689,35.875721348731524,28.128554745678365,180.34315074324772,144.09194665835602,113.4185319200022,118.26164702931167,213.53801843669703,205.3578473053706
1.8685352018685355,35.67658602004252,26.417744045522525,180.7390925471229,142.77725284471532,113.49968346859298,117.85562913900924,213.7337054430787,205.84516146410283
1.901901901901902,35.31211264195504,24.066614092609875,180.82427037186704,140.77252490813777,113.76760830804513,117.39601845376978,213.65668596303416,206.4248215670177
1.9352686019352687,34.932219021693456,22.59814213112483,181.052830780186,139.5753142582754,114.07176389675446,117.01844238003244,213.5109253126844,206.91547352150604
1.968635301968636,34.551148111176495,21.203259048316795,181.1914509286878,138.5852191455577,114.46726412109952,116.76101217950394,213.2036663668285,207.26934330236327
2.002002002002002,34.155276801545774,19.720422709545044,181.4850776452108,137.22806010983038,114.92885718685544,116.61434124222995,212.7077048939649,207.46526626574928
2.035368702035369,33.74772312241623,18.17150497747632,181.8282384635676,135.64017361152307,115.44516276270184,116.47897093525992,212.0080469257156,207.5594565207716
2.0687354020687354,33.27194071532232,16.545183042360428,182.2485186196221,133.92362588973387,115.963630332356,116.43359298939389,211.13208945918103,207.53782569177332
2.1021021021021022,32.8615764344472,14.894090053653596,182.7406123281374,131.75370531252256,116.36828876060072,116.42838624595784,210.22125229611729,207.4410033121084
2.135468802135469,32.414268097562,13.322751673648352,183.36137469915832,129.595751294574,116.7120285348165,116.58461318967952,209.1792712626873,207.22469589539
2.1688355021688355,32.0314879456568,11.961749500674271,183.74130173204367,127.09241487285009,116.92992163725656,117.25083269466062,208.1571282538704,206.6363095828063
2.2022022022022023,31.514920382178573,11.016481152736391,184.19243772517063,125.42706728969836,117.12642173135627,117.70860409230151,206.9916790004248,206.1264917874805
2.235568902235569,30.945539754128376,10.380868996358952,185.04171213317008,124.57625752993071,117.45998429657392,118.20419341363636,205.54132391762585,205.9151316842413
2.2689356022689355,30.07131587022343,9.96901050043497,185.678341374512,124.06450103828767,117.48471498230391,118.82576614168096,204.91295901572224,205.58765802994483
2.3023023023023024,28.770534253177424,9.613849651171074,185.97770696128487,124.09230579460252,117.36362879203512,119.61120875177792,204.71818454145333,204.8135000756401
2.335669002335669,27.26431087833649,8.69707985290622,186.3923043950884,123.39949864810286,117.16554379859404,120.44395230179538,204.8157262100015,203.83859729757864
2.369035702369036,25.62941224769465,7.938759892454498,185.66957274601285,125.88817377820726,116.90040625411086,121.24669240636932,205.3076092228185,202.88694070178173
2.4024024024024024,23.993594578971145,7.465296422688558,185.22925179608305,127.488687039388,116.59273647030736,122.54148249256508,205.82844896855,201.70045256636567
2.4357691024357693,22.323620700530945,7.26861393143055,185.40764670721603,129.52777348786896,116.16847447972653,123.61413773739874,206.47947217677304,200.4045745456128
2.469135802469136,20.706013208676264,6.779432669570937,185.9016413508481,130.75003511841007,115.94816762110972,124.66147261214635,207.0608590734796,199.3491068277896
2.5025025025025025,19.04992407709512,6.101242755798724,186.8954410112031,131.39735866699834,115.75265387900978,125.74015718829456,207.7414198235322,198.40835804776967
2.5358692025358693,17.541357931498784,5.557094787613181,187.83069927160355,131.5429776607185,115.74571516128064,126.85998443454136,207.84126426061067,197.46708715881888
2.569235902569236,16.165325112137467,5.11782513452055,187.41764310710417,131.33088302442525,115.73443367620612,128.04924115372714,207.8922049679727,196.4183115551091
2.6026026026026026,14.881533777676458,5.11782513452055,187.0569659437528,130.3855260798936,115.86683224721604,129.29386497895092,207.68379327901684,195.3288946604806
2.6359693026359694,13.803708046137087,5.11782513452055,189.86826554521528,129.0927787586916,116.09577225439352,130.6132246751158,207.34330708632424,194.2309658222952
2.669336002669336,12.831818633314832,5.11782513452055,191.8888217441493,127.38459184703912,116.26058182864556,132.08210567357574,207.15876916224727,193.01311265774856
2.702702702702702,12.082241009899676,5.11782513452055,193.53607222241067,126.21964573216108,115.97733146156128,133.5728628434692,207.8465235636709,191.7798940226936
2.736069402736069,11.58683395629929,5.11782513452055,194.6037689165215,123.57050750323717,116.00771091681956,135.11093837451267,208.0049397658675,190.43339771782576
2.7694361027694363,11.012069107423262,5.11782513452055,194.8350364470957,121.71124489029866,116.06397118074504,136.75248684604188,208.0159622562212,188.9627781480852
2.802802802802803,10.679302460793574,5.11782513452055,194.69018377225052,118.17994950541024,116.55093591903686,136.80886325016493,207.8948654343952,189.37318113283288
2.836169502836169,10.692403175269591,5.11782513452055,194.48411432482052,112.93154293815144,117.16902388232388,136.49917028602084,207.81388964652103,190.10967505533404
2.8695362028695364,10.80207088177328,5.11782513452055,193.37069936337588,107.6551266784958,117.97958838851729,136.43747221452193,207.3636089893893,190.67165274549325
2.902902902902903,10.334855324423016,5.11782513452055,191.0382780955273,102.5724578871545,118.98322043521324,136.17446102147343,206.7323610728915,191.3882193892168
2.9362696029362696,10.043566680928304,5.11782513452055,188.26917878974248,97.40741739577288,119.8448573366548,136.46383136847788,206.533747929862,191.4205003593208
2.9696363029696364,10.086815516721687,5.11782513452055,185.0670687808233,92.18567506445105,120.48374125003144,136.7773848392979,206.59640971748664,191.42861696829743
3.003003003003004,10.524830343682025,5.11782513452055,181.67973212825487,86.87315598475115,121.14216303453362,137.02575072643904,206.7270048973564,191.51696629315137
3.0363697030363697,2.7767462703843075,5.11782513452055,177.7567140597552,81.44518405775071,121.78970416133208,137.2008864100363,206.885092105128,191.7012703837716
3.0697364030697365,2.7767462703843075,5.11782513452055,173.77592108311742,76.18228984210316,122.31568550742924,137.4838970543837,207.16560615340896,191.7847328755752
3.103103103103104,2.7767462703843075,5.11782513452055,169.94223760762333,71.1483757266294,122.78257867221944,137.78556268403923,207.49861919611544,191.82607249724137
3.1364698031364697,2.7767462703843075,5.11782513452055,166.40194369535928,66.08361795920192,123.13441995702966,138.0822016731696,207.9426194246826,191.87414636912035
3.169836503169837,2.7767462703843075,5.11782513452055,163.1660427730124,61.20447879373969,123.39932270718327,138.40094784588564,208.44430022850327,191.9209043728835
3.2032032032032034,2.7767462703843075,5.11782513452055,160.56593225193285,56.576794422229874,123.59341245985024,138.85665814589598,208.9944301410869,191.9091086459601
3.2365699032365702,2.7767462703843075,5.11782513452055,158.02149064028436,53.86892824093199,123.65318454752708,139.48255599910726,209.58126326112296,191.7286551073059
3.2699366032699366,2.7767462703843075,5.11782513452055,155.44853951620428,51.17110287078491,123.7658950606699,140.261938350395,210.15288162690743,191.4989678976527
3.3033033033033035,2.7767462703843075,5.11782513452055,152.95834056223188,48.458776458691375,123.82526994190512,141.08219768432735,210.7825814766137,191.2594811113072
3.3366700033366703,2.7767462703843075,5.11782513452055,150.91795722246397,46.64201717156791,124.05338194257524,141.4689900998279,211.304791925247,191.35469332884315
3.3700367033700367,2.7767462703843075,5.11782513452055,148.7725541577587,44.482976753482056,124.40448846245428,142.10901145855462,211.79398371014133,191.34140938439435
3.4034034034034035,2.7767462703843075,5.11782513452055,145.9481046947474,42.81991191001202,124.74227120641656,142.72831267732207,212.3386137317164,190.9055128693172
3.4367701034367704,2.7767462703843075,5.11782513452055,139.40493367091136,42.04842934183685,124.94914415297704,143.30870960281828,212.862957080952,190.20798021268024
3.4701368034701368,-1.6994271999132415,5.11782513452055,133.6574348479165,42.52420584930511,125.11803239463786,143.74077102646132,213.36048721988777,189.71871475477764
3.503503503503504,-3.340462667028601,5.11782513452055,129.7975616405956,43.60471321005281,125.15648984048867,144.11740184832095,213.90977880601432,189.40635801240407
3.5368702035368704,-2.379054145465288,5.11782513452055,128.94243480648015,42.70867019679728,125.13735012600046,144.5299571309881,214.4078125209684,189.11205005071963
3.5702369035702373,0.8991755019340468,5.11782513452055,130.39057466337823,36.52710905562624,125.15368186375326,144.33147623184828,214.9477738290585,189.12324396165667
3.603603603603604,15.172233195468156,5.11782513452055,132.65582270812934,31.96775182268292,125.25805571853572,144.19122703973693,215.35593018575085,189.4775973419734
3.6369703036369705,29.005130440723967,5.11782513452055,136.1766171960543,32.59623424514068,125.1837732786988,144.04801191313038,216.0154914111185,189.871324998316
3.670337003670337,42.04355378160557,5.11782513452055,139.71988046290932,34.293041229798646,125.13179966915912,143.84197134996168,216.3976527875496,190.3570909639685
3.703703703703704,55.23915826396211,5.11782513452055,144.1490279867942,37.23557844508701,124.95872377526052,143.71720860744884,216.6785605192115,190.87819243184708
3.737070403737071,67.3653935635592,5.11782513452055,150.4165011275883,40.60277329980807,125.06886400414191,143.55535282472988,216.3915083053669,191.5612850570108
3.770437103770437,77.97603631908049,5.11782513452055,157.9289854237632,43.866669043676566,125.15646127242124,143.33803088193287,215.98712223150312,192.33271483128945
3.803803803803804,87.23435309829236,5.11782513452055,162.31115736926068,47.722561597196965,125.40436448304928,143.02832519382957,215.39014066398653,193.09086842354728
3.8371705038371706,95.71717884976243,5.11782513452055,166.68746748502812,52.12569482158278,125.92864431535492,142.6479527053266,214.19650818320625,193.84384878831384
3.8705372038705375,102.60721171893545,5.11782513452055,170.41524136225718,55.806683009434494,126.5650644595456,142.22148729113903,212.7123340420343,194.61192377315885
3.903903903903904,108.59194913084193,5.11782513452055,173.64969841244644,60.41042349894261,127.02041613408186,141.8450184268659,211.4492608833708,195.33246742526265
3.937270603937271,113.8603657525487,5.11782513452055,176.8056729595795,63.98359506056897,127.47960298718196,141.38165698761216,210.3688571267946,196.0686727815022
