Time,Left Shoulder Angle,Right Shoulder Angle,Left Elbow Angle,Right Elbow Angle,Left Hip Angle,Right Hip Angle,Left Knee Angle,Right Knee Angle
0.0,32.833193459573344,39.991747786114686,175.18577394239634,165.51833994024176,140.71836334216644,141.25381069627366,203.95816416509808,207.50157724014463
0.0333667000333667,32.86933977590875,40.51187180852924,175.54226994885977,166.3752701082046,140.86920038362567,141.20341910985616,204.07270139457785,207.61374017837667
0.0667334000667334,32.91756660479078,40.98777072581934,175.86197376240366,167.15133003659403,140.98740280826124,141.15931688346524,204.18282675544145,207.7120910778428
0.1001001001001001,32.97666885676998,41.41999879618381,176.1468389934934,167.84916304503153,141.0749693818685,141.12160753246815,204.2886012050065,207.797269858871
0.1334668001334668,33.045441442396914,41.8091102778215,176.39881925259422,168.47141245313847,141.1338988702427,141.09039457223213,204.39008570059056,207.8699164417896
0.1668335001668335,33.12267927222212,42.15565942893125,176.61986815017156,169.0207215805363,141.16619003917916,141.06578151812445,204.48734119951112,207.9306707469266
0.2002002002002002,33.207177256796164,42.46020050771189,176.81193929669072,169.4997337468464,141.1738416544732,141.04787188551236,204.58042865908573,207.98017269461025
0.2335669002335669,33.29773030666958,42.72328777236226,176.97698630261704,169.91109227169025,141.15885248192012,141.0367691897632,204.6694090366321,208.01906220516847
0.2669336002669336,33.393133332392935,42.94547548108121,177.11696277841585,170.25744047468922,141.1232212873152,141.03257694624412,204.7543432894676,208.0479791989297
0.3003003003003003,33.492181244516765,43.12731789206757,177.23382233455249,170.54142167546473,141.0689468364538,141.03539867032245,204.83529237490967,208.0675635962219
0.333667000333667,33.59366895359163,43.26936926352018,177.32951858149232,170.76567919363825,140.99802789513114,141.04533787736543,204.9123172502761,208.0784553173732
0.3670337003670337,33.69639137016809,43.372183853637885,177.40600512970067,170.93285634883114,140.9124632291426,141.06249808274032,204.9854788728843,208.08129428271167
0.4004004004004004,33.79914340479668,43.43631592061952,177.46523558964287,171.04559646066485,140.81425160428344,141.0869828018144,205.05483820005188,208.0767204125657
0.4337671004337671,33.90071996802796,43.46231972266392,177.50916357178426,171.1065428487608,140.70539178634897,141.1188955499549,205.1204561890964,208.0653736272631
0.4671338004671338,33.99991597041248,43.450749517969925,177.5397426865902,171.1183388327404,140.58788254113452,141.15833984252913,205.18239379733524,208.0478938471322
0.5005005005005005,34.09552632250079,43.40215956473639,177.55892654452597,171.08362773222507,140.46372263443536,141.2054191949043,205.2407119820861,208.02492099250108
0.5338672005338673,34.186345934843445,43.31710412116213,177.56866875605698,171.00505286683622,140.33491083204683,141.2602371224477,205.29547170066647,207.9970949836979
0.5672339005672339,34.271169717991256,43.19613744544636,177.57092293165002,170.8852575561967,140.2034458997653,141.32289714052774,205.34673391039576,207.96505574105257
0.6006006006006006,34.300394255431534,43.01250448081999,177.50949097390668,170.62120359538144,140.17416348663542,141.41091903746113,205.269699883682,207.9132037624749
0.6339673006339673,34.34198292787323,42.84758296508476,177.44148823909333,170.43544733333525,140.10519748172766,141.49622480814656,205.25709609797667,207.8664291133731
0.6673340006673341,34.409406628603314,42.65819376782343,177.4153149288515,170.24878358385146,140.0123454039916,141.58181036224616,205.3129256765453,207.8233987994523
0.7007007007007008,34.47850318083799,42.423930667212666,177.3999002220121,169.99913776770208,139.90452073805545,141.67200148902177,205.3979314755609,207.7777099321225
0.7340674007340674,34.528704275514734,42.11959817451299,177.3981281398935,169.68710589755418,139.79093771235975,141.77668808461607,205.4830366220285,207.7350011432061
0.7674341007674341,34.57395279572506,41.81440055289656,177.39057468137457,169.35313065957013,139.6480324018294,141.86390164316543,205.6225210590812,207.718920688988
0.8008008008008008,34.60273542263143,41.47013745233225,177.40683256128835,169.00404385984774,139.4871819565473,141.94954927817545,205.7938440428132,207.7193863533239
0.8341675008341676,34.60300862929572,41.06260530969487,177.42837933674497,168.58246444566996,139.3237529366016,142.06250991767922,205.9358953741555,207.71833175223972
0.8675342008675342,34.58476709738209,40.5854042762827,177.48542588136215,168.139085507092,139.16925241607674,142.192961590304,206.04087385401348,207.7141729798813
0.9009009009009008,34.56363150682602,40.10420855081109,177.5855609693866,167.69426575789498,139.08307831232685,142.33040085991482,206.06459019586904,207.71584582901104
0.9342676009342676,34.52747314717507,39.56953497497919,177.7483607315107,167.28391272091267,139.01239818154568,142.49158353217192,206.0581813506369,207.7119887261916
0.9676343009676344,34.46492468141658,39.01660880382145,177.90929875321635,166.86830674156022,138.9602722251458,142.6558564220553,206.02539100020843,207.6725970276239
1.001001001001001,34.37370112307739,38.4091130825174,178.11822222856375,166.46268066194628,138.9070207725193,142.82210649042722,205.9752630116891,207.62272415641883
1.0343677010343677,34.24574498663032,37.80877713885462,178.35367082238912,166.08920978447722,138.81582172890623,143.00481746322882,205.9771866414247,207.5528128188943
1.0677344010677343,34.10470914654964,37.16464899880884,178.66298053185182,165.7761628247809,138.67720728745022,143.20010187296012,206.0248506162745,207.45963160837888
1.1011011011011012,33.97449831301837,36.45787754792265,178.99152776419223,165.43611415307635,138.30589917912272,143.63858346055966,206.2372371639708,207.3049699043497
1.1344678011344678,33.83221781962386,35.700401801820966,179.39203793884926,165.1488074237264,137.9408410018748,144.0364071217235,206.5008987665832,207.1568845867953
1.1678345011678346,33.745930169667275,34.95839705980118,179.7954255628486,164.9019151190073,137.61307886737083,144.31236793160164,206.7298492896369,206.99683846967235
1.2012012012012012,33.65954629508528,34.17296243649509,180.2553683073304,164.71427452958642,137.4350795032443,144.4668760184393,206.8583839643486,206.83131261978428
1.234567901234568,33.68831009230731,33.431000567758275,180.86210645500267,164.60737751466058,137.42367821540037,144.42897697582777,206.70169706040767,206.9427057107412
1.267934601267935,33.68375488207548,32.64640204742855,181.51946365497705,164.57409345377314,137.36925926579673,144.3347401529806,206.57919484894623,207.09270012276772
1.3013013013013013,33.620615028972054,31.857532843213125,182.152342746589,164.52806110172165,137.21437861874975,144.16708330600346,206.69193841760256,207.3502877361352
1.334668001334668,33.46640060900961,31.05371676627735,182.77946121106208,164.5829811461183,136.96184597119327,144.02800332278753,206.93857246261484,207.57308559436163
1.3680347013680347,33.3460266670908,30.405586887452927,183.4814245270572,164.8888158663683,136.49998886426516,143.92060804696987,207.315832600098,207.70750387338512
1.4014014014014016,33.13043137956875,29.72469105359967,184.1388898432271,165.2857845189369,135.94846737320046,143.88363081893024,207.7237032996283,207.72210759422245
1.4347681014347682,32.78840744480288,28.99669010710895,184.55859914140143,165.63377780092483,135.3265093013453,143.94576034110673,208.22513647319883,207.60750336545075
1.4681348014681348,32.31549786975814,28.14867117098713,184.906927101929,165.92816858504867,134.72515859461242,144.03788866532585,208.7168361342638,207.44896088613748
1.5015015015015016,31.784634159824805,27.261425890286656,185.13370932987536,166.10139566517762,134.2159823379974,144.12597933352689,209.1051899019397,207.2730304123631
1.5348682015348682,31.13092338729374,26.317888916688126,185.33583764107885,166.30407160847582,133.787079294174,144.24395970935558,209.37695417088645,207.03877373782112
1.5682349015682349,30.38566304759354,25.398053326125247,185.39501746489591,166.49276536035234,133.45826835436785,144.39230725169563,209.4770627760049,206.73375302768787
1.6016016016016017,29.52483607390704,24.414029239227485,185.4277681404044,166.69215244746374,133.18668386861268,144.5985377933556,209.5010726402225,206.346086236694
1.6349683016349683,28.607375458097096,23.37772793757397,185.4365400799091,166.97032297977938,133.1397039281481,144.85971809969058,209.21585071840096,205.86396915031847
1.6683350016683351,27.57243278145044,22.21867830964359,185.432975697455,167.21836590627132,133.16278224162346,145.16578749165924,208.7922554185319,205.3247541323341
1.7017017017017018,26.46082059936332,20.87590756330356,185.5409346427262,167.27213072241236,133.24396205583216,145.42309147087911,208.3411731656676,204.79810393298868
1.7350684017350684,25.16299961298961,19.41428604441476,185.65912441946875,167.2693960618187,133.19778650076245,145.56346040283694,208.04000194860583,204.3205004344478
1.7684351017684352,23.689373022341428,17.940486526901456,185.56555479143108,167.2387675914256,133.13002592329877,145.8554378165365,207.8044342726425,203.7268301871238
1.8018018018018016,22.16653467272025,16.470345377540582,185.453497067346,167.17467388902537,133.05028291383806,146.27916573928516,207.59452257876464,203.0488743382707
1.8351685018351689,20.5651191456824,14.739618715671243,185.3429215140448,166.78210774421248,132.6290826886016,147.29941243035762,207.07202221630263,202.54500318628263
1.8685352018685355,18.72743711964902,13.193449938127486,185.68410228201265,166.12099699738818,132.23333369388018,148.12539929714967,206.7321243579236,202.08035339433823
1.901901901901902,16.71125598951699,11.799715951587324,186.105652617683,165.33106953962297,131.8635679996479,148.73000901191483,206.70794716326705,201.59180753650853
1.9352686019352687,14.850803299203044,10.573897051082543,186.28094330564429,164.6848052268728,131.49497246624023,149.35508856716018,206.79589022601576,200.9269625113481
1.968635301968636,13.162835642665268,9.549256229054713,185.9222490355968,163.9548288973692,131.18714828330906,150.08245723219207,206.9019991719175,200.05180035216543
2.002002002002002,11.717672814724564,8.732550454928647,185.3963312407152,163.57238810130033,130.89141220703834,150.79565005450866,207.1148023360696,199.04867709815457
2.035368702035369,10.724647158691864,8.00544805260105,184.14142851977857,163.36342652266498,130.56745686439456,151.31873768531614,207.4599728256719,198.004559621524
2.0687354020687354,10.003582405680454,7.472683932050539,182.7585714866008,163.496118319637,130.1999215136233,151.7797547642765,207.94603565310223,196.8934921830539
2.1021021021021022,9.695189483740094,7.001688442281711,180.6796467290449,163.71437004933057,129.23594041859243,153.25982311210345,209.4518160675468,194.2917318521687
2.135468802135469,9.520164932016474,6.756773615555609,178.93185851082706,164.35115613405983,128.48605814052706,154.5650038821156,210.7781017746212,191.93774721473773
2.1688355021688355,9.404086354606982,6.764166151111213,177.40996800073012,167.15409829691578,127.93729820050348,155.4522499510894,211.9122979624343,190.1887108716668
2.2022022022022023,9.42468384481336,6.999066962628922,176.3294809214109,169.57899720197403,127.58937696730152,155.98396856741851,212.8401593258429,188.90740249177907
2.235568902235569,8.748067017988689,8.74368881944266,176.2494543146126,174.10072398816214,128.2131200468225,155.03363945101827,212.79672636695844,188.8710792275988
2.2689356022689355,8.62003838134913,10.076646332390444,176.12824677786824,177.1767125573539,129.21345917693677,154.00133905264892,212.38464209168967,189.10469569086067
2.3023023023023024,8.943595161193429,11.036485334755744,178.74827793454423,179.00778102594813,130.20132408698643,152.74939277370908,212.08519143627083,189.33505561727875
2.335669002335669,9.5899133408943,12.05375720580147,180.7934982754885,180.05889175570024,131.07239095411677,151.57181573261943,211.90952632167327,189.67024651446127
2.369035702369036,9.908005411433855,13.296814444343894,182.1436607267784,181.5348195912292,131.7359011407833,150.51498554513097,211.93415224218825,190.19895096294104
2.4024024024024024,10.367746570411978,14.543492741994164,183.076616069236,182.0400957663765,132.0391792939338,149.79781160529174,212.40417748514145,190.60127410185032
2.4357691024357693,11.072376792451792,15.503803239164183,183.5164579592244,182.53289172165884,132.1880462447619,148.94603587770857,213.12689191887392,190.9245288407849
2.469135802469136,12.1109320320176,16.614027609292762,183.60209511322444,182.01921292982712,132.19492255677085,148.22093587615228,213.8487387474304,191.10782616655052
2.5025025025025025,4.621460709007094,17.772023367287918,183.5814241391258,182.33761423161585,132.044465076301,147.5993991965149,214.5655962609888,191.2668798741946
2.5358692025358693,4.621460709007094,19.00311018724575,183.1831176360845,180.33519210844744,131.9400930692901,147.08379014093146,215.2005988733061,191.4467405000132
2.569235902569236,4.621460709007094,20.254344174627413,182.9178095918768,176.3179710703877,131.77328145478842,146.9153772059411,215.79674688316447,191.6708619194332
2.6026026026026026,4.621460709007094,21.34158046597912,182.3457343164316,170.50295818873994,131.75308799802968,146.62245113909248,216.2743976684124,191.9794745249868
2.6359693026359694,4.621460709007094,22.73367058589793,181.3656640802932,165.08222691546817,131.82911505481584,146.1535398015004,216.5736183318652,192.26982083485404
2.669336002669336,8.943668382279323,24.232012996974465,180.29800906046512,159.75223328083248,131.9636637687909,145.75332479823246,216.70984605949027,192.48673210495048
2.702702702702702,13.322970260717057,25.78677682740559,179.17678723572456,154.23978104707385,132.07014812297996,145.52250656452128,216.71241746092025,192.59112137406544
2.736069402736069,9.224379620905824,27.236801687176868,178.22993065010266,148.44008572763752,132.14586186781497,145.41184472968052,216.66708581216292,192.70894382801723
2.7694361027694363,7.9976654145520305,28.400643872859977,177.59392359283663,142.0082772508954,132.23049851593575,145.55113226495774,216.46600770277627,192.81660470795384
2.802802802802803,9.25040343897126,29.53460518590597,176.78100400481816,135.42239778401492,132.07008437762582,145.63311265118375,216.4661385082732,193.01983763289195
2.836169502836169,13.01940865361378,30.67125332996213,175.4900720729955,128.7872761512303,131.84057236362514,145.75466118219148,216.5444650103948,193.1619522066259
2.8695362028695364,18.797993749999147,31.912514728993973,173.95457302756202,122.21789063621264,131.42500407017164,146.03607219600408,216.65724076406983,193.35235738334595
2.902902902902903,26.357627099580377,33.178106227383616,172.177628269795,115.70427895220308,130.8588544696227,146.6652855005304,216.80261868841345,193.4858177201028
2.9362696029362696,35.503372305759136,34.43248582425443,170.53781940135062,109.2442474931402,130.07064667591914,147.36521034708136,217.02775824770129,193.792636524482
2.9696363029696364,46.18678760185904,35.66283059019297,169.0077207795103,102.85378321792116,129.17904929419527,148.21070458189106,217.22220894983016,194.12622692450103
3.003003003003004,58.0560967778863,37.16717874599429,167.4786739073382,96.78807586899627,128.4867233745423,148.4690818695924,217.90386344003585,194.34586000211857
3.0363697030363697,71.08802013945349,38.69647848849546,165.5645192166059,92.42274394350495,127.66189051095992,148.84184100449838,218.7383721983648,194.395258185691
3.0697364030697365,85.0644551988329,40.16915490937888,163.28098366335524,88.78760190444636,126.68468186291132,149.37640457124334,219.5856440118676,194.35249434040665
3.103103103103104,99.51283843513076,42.19808594256285,160.84113280273075,83.56857127672444,125.56205852134724,149.8937331532444,220.5353792524568,194.4106604803586
3.1364698031364697,114.48095750064935,44.17887557075647,158.70908724855406,79.34711092208815,124.30491482053256,150.2781288526537,221.63854122371683,194.5663830123498
3.169836503169837,129.8550103028223,44.19579202109369,152.67203362846348,76.43013807249275,122.6440968003626,150.38236073024004,222.8467804954657,194.7900671759905
3.2032032032032034,154.91046978879174,44.32458338893394,148.42923678861183,74.32147408884543,121.16729333305751,150.723410249579,224.1087636529322,194.82480989459071
3.2365699032365702,178.22608533411037,46.30398687831487,146.6705842723988,73.58771799493611,120.00193847193415,151.21958128537753,225.54427343944243,194.64766891849
3.2699366032699366,199.0901342167869,47.91352390606047,146.74822876543266,74.38992959242266,119.80778017279836,150.41616483394603,225.78960013898785,196.24759564333388
3.3033033033033035,218.09355640486515,49.36857895598257,146.43355343540395,75.05991602280169,119.96026093898274,149.21592697304516,225.73806717236704,198.42380770094044
3.3366700033366703,233.55475098110128,50.43086438987828,147.81767612443366,74.50508141062106,120.45763832038656,147.75548222906127,225.3953052593004,200.8393928481921
3.3700367033700367,245.41731370588784,51.09562271549101,150.93960002714792,74.22979833097544,121.38556593993098,146.07109787499482,224.7049293261544,203.50418003196293
3.4034034034034035,253.70378129421445,49.80477028694644,154.22047824297215,72.07794327325543,121.64713423862956,145.5732327503393,224.6712733152894,205.355745995188
3.4367701034367704,258.85637053736207,48.0431518773612,159.25197386025548,71.67218514971837,121.62075829255454,144.89434605672275,225.09355668582305,207.14953120496105
3.4701368034701368,260.6925601318308,46.24973569293263,161.9037641437279,72.40062771840738,121.42388987616654,144.32679249757845,225.55214360218392,209.06434423395484
3.503503503503504,258.6099557936807,43.99573829260046,164.9783162851557,73.96129749534767,121.32969293457664,143.76378462297393,225.8888169492688,211.01150327325388
3.5368702035368704,254.5895071845848,41.28868484671211,168.32347939479712,74.9237500459491,121.33984944484114,143.15361575347555,226.00543305392,212.89679274458467
3.5702369035702373,247.5639767308945,38.16719497313139,171.6759130576095,76.5499034828471,121.3533765387474,142.3757246367309,226.2073002209268,214.7512428920731
3.603603603603604,237.9529672883949,35.292672989383604,175.04078106381482,77.56210894294135,121.46303228480384,141.79039841751566,226.13118374104369,216.5712641425659
3.6369703036369705,225.63514861846568,32.21434612057758,178.48122836517788,78.63363683684459,121.90135020362044,141.27540345054695,225.6605753284996,218.29580742933177
3.670337003670337,211.47325780231475,29.32289480481157,181.6159088657164,77.71623261705771,122.53181239537044,140.76077313353062,224.9571128961708,219.8603058733661
3.703703703703704,195.080444103832,26.566725870047915,184.80433321903456,77.62548081531382,123.30524124016516,140.04678022260902,224.2717213227111,221.4691179488156
3.737070403737071,176.41513430979228,24.0051913211037,187.15249125882423,78.70353991537772,124.2599089616204,139.01276428381982,223.42764576547648,222.853520726862
3.770437103770437,155.37163987810126,21.89140304179301,189.75291486460543,81.86244325415589,125.16916251197804,137.92455935714403,222.4959368340309,224.16516737433275
3.803803803803804,143.8570844690762,19.79944405606376,192.1770239449632,84.76967703087912,126.09445115496958,137.13025790984196,221.3931616305966,225.10862997668124
3.8371705038371706,121.4677032035216,17.7058815626024,195.1783893811276,87.84588635492429,127.25142491584931,136.40305696100023,219.9422997569745,225.9202075238988
3.8705372038705375,97.05174041536696,15.784850709435982,197.2676545605813,90.82469169881782,128.20661279835207,135.7230663547613,218.5507945669553,226.43165261151813
3.903903903903904,82.23561557464576,14.056977400398704,198.8404128973912,94.78470488777673,129.2447327976582,135.23286626187615,216.9437095940283,226.5246842244564
3.937270603937271,68.28753571767643,12.778348851206692,199.2740154435541,98.8284171363879,130.25043715656906,134.70633338183234,215.22045276536127,226.25083866464652
