Time,Left Shoulder Angle,Right Shoulder Angle,Left Elbow Angle,Right Elbow Angle,Left Hip Angle,Right Hip Angle,Left Knee Angle,Right Knee Angle
0.2335669002335669,29.222679867280824,-13.51268677435218,170.45869810382288,175.98489740763284,162.35451994991473,198.30843965614235,193.08999690944475,166.6536481793485
0.2669336002669336,13.016693946395169,-8.481946168555481,178.73219915905665,179.24497564226743,163.66676564570363,200.1423492976254,191.6227268302418,168.59011847036524
0.3003003003003003,1.5139872505552034,-3.4357851381144453,185.12057736068584,181.45057483892407,164.76305773658189,201.6737225726024,190.28493336402445,170.01155840269553
0.333667000333667,1.5139872505552034,1.5971016863607057,189.7584257976515,182.67987266900428,165.6600822629383,202.91943342262172,189.0729541690489,170.96411527985325
0.3670337003670337,1.5139872505552034,1.5971016863607057,192.78033755889467,183.01104680390944,166.3745252651617,203.896355789232,187.9831269035712,171.4939364053522
0.4004004004004004,1.5139872505552034,1.5971016863607057,194.32090573335643,182.52227491504104,166.9230727836409,204.6213636139813,187.01178922584737,171.6471690827062
0.4337671004337671,1.5139872505552034,1.5971016863607057,194.51472340997776,181.2917346738005,167.3224108587647,205.11133083841816,186.15527879413364,171.4699606154291
0.4671338004671338,-5.6494454301255885,1.5971016863607057,193.49638367769973,179.39760375158932,167.58922553092194,205.38313140409107,185.40993326668604,171.00845830703474
0.5005005005005005,-8.837609305533725,1.5971016863607057,191.40047962546345,176.9180598198089,167.74020284050144,205.4536392525484,184.7720903017607,170.30880946103693
0.5338672005338673,-8.414509585555727,1.5971016863607057,188.36160434220983,173.9312805498607,167.79202882789198,205.33972832533848,184.23808755761368,169.4171613809495
0.5672339005672339,-4.744151480078095,1.5971016863607057,184.5143509168801,170.5154436131462,167.76138953348243,205.05827256400977,183.8042626925011,168.37966137028627
0.6006006006006006,1.809459801012622,1.5971016863607057,179.99331243841516,166.7487266810668,167.66497099766153,204.6261459101107,183.46695336467909,167.24245673256112
0.6339673006339673,10.882319047829933,1.5971016863607057,174.93308199575608,162.709307425024,167.51945926081817,204.06022230518963,183.2224972324037,166.05169477128786
0.6673340006673341,22.11042105048732,1.5971016863607057,169.46825267784396,158.4753635164192,167.34154036334112,203.377375690795,183.06723195393104,164.8535227899803
0.7007007007007008,35.12976059909827,6.588019674259751,163.73341757361976,154.1250726266539,167.1479003456192,202.5944800084752,182.99749518751725,163.69408809215227
0.7340674007340674,49.57633248377623,11.508274194972472,157.8631697720246,149.7366124271295,166.95522524804124,201.72840919977853,183.0096245914184,162.61953798131765
0.7674341007674341,65.08613149463471,16.329170617888646,151.9921023619995,145.3881605892475,166.78020111099607,200.7960372062537,183.0999578238905,161.6760197609902
0.8008008008008008,81.29515242178718,21.022014312398053,146.25480843248664,141.15789478441053,166.63951397487386,199.8142379694504,183.2648325431913,160.909680734685
0.8341675008341676,97.83939005534717,25.55811064789047,143.39962435236174,138.00484094511822,166.9034373119881,197.56861708096864,184.35322932077327,161.31273171910303
0.8675342008675342,114.35483918542812,29.90876499375567,140.1383612230291,133.1053876417867,167.05179913117726,196.46356924411225,184.6881050504086,162.0273638125705
0.9009009009009008,130.47749460214345,34.04528271938345,135.77489729067642,129.50901822790337,167.40114986511924,195.8335147291849,184.88081069095915,162.85628204460687
0.9342676009342676,145.84335109560783,37.938969194163576,133.3042382010627,126.39905670885676,167.87155311711933,195.1125735213768,185.1340480221775,164.47551502261803
0.9676343009676344,152.1346890634827,41.56112978748583,133.27448992677736,123.60288055589102,168.58003652752157,194.63336326167865,185.441036678679,166.23029613319483
1.001001001001001,156.1795776655024,44.88306986874,132.12664335092964,122.99510546262556,169.56726655436643,194.7420636815613,185.7026547237884,168.2595062692994
1.0343677010343677,159.2514914088889,47.87609480731584,131.55576152720172,122.17990367412948,170.63859928891225,194.52508306574484,185.98959271513183,170.811949068578
1.0677344010677343,160.4976931265008,50.51150997260315,133.10849220031344,123.04298708133194,171.68051636548387,194.41779344424785,186.38487794832565,173.7688990971288
1.1011011011011012,163.77212586066713,52.76062073399172,135.48776526323698,124.70426445228176,172.78759249002346,194.39184098385687,186.81888604304635,176.8045088885535
1.1344678011344678,160.9142066045877,54.594732460871626,137.28494198606143,127.85697442261583,173.8627659571055,194.28899514102736,187.29076317686184,180.04739768222692
1.1678345011678346,156.62999673499922,54.26491853792542,143.6912924342842,132.46874767638968,174.74859253729795,193.83179716270047,187.9338456774513,183.52927694912867
1.2012012012012012,150.79132615006614,52.24398174146613,150.14539624477632,139.7341381659371,175.65442150811364,193.3010731503608,188.6369498646781,187.05066263697265
1.234567901234568,144.2197600835759,49.39675981356314,158.14652570897576,148.66620381150128,176.5082000748559,192.7773505170424,189.34166858863767,190.58161515074733
1.267934601267935,138.19863556886568,46.58088267352816,166.14890353016906,154.7767732681907,177.34562973485038,192.38304109167927,190.00723226025727,193.98927647694995
1.3013013013013013,130.19124621621484,45.608547691857,171.5338029171489,162.89798963424275,178.1702836159322,192.0448516507577,190.5867887283308,197.3041498886801
1.334668001334668,122.50142939939283,42.43216569183155,174.3953413714075,164.5557570160794,178.96767186160434,191.6608810031901,191.08478622471907,200.44312231785372
1.3680347013680347,115.10772232601975,40.938403513709126,176.65150593783304,169.09270370448218,179.76033808224813,191.37453024979567,191.505986924698,203.25498927010628
1.4014014014014016,107.9681756248295,39.33025421783744,178.02101591161409,173.29251481653046,180.6038630484915,191.0871328819153,191.80892375348984,205.7179696258292
1.4347681014347682,101.3149117381504,38.459742353388194,178.22291398847162,177.35746624809886,181.467356319854,190.88808302005324,191.97595288495168,207.83569506214496
1.4681348014681348,95.29631483870664,38.211543988913846,177.34131538809885,181.0633918550549,182.3013830461422,190.7823109039339,192.04593927834856,209.60007133570755
1.5015015015015016,89.80994826270538,39.0515406035337,174.86381780053205,187.24364249306512,183.1028786369836,190.7028967603836,191.9713489606237,210.9748177110164
1.5348682015348682,90.79826814478125,40.65300854286181,170.9335984309082,192.90055517105995,183.53994315558955,190.53159222761303,191.5778244240192,211.44155235491425
1.5682349015682349,90.73789772273084,43.36110130405064,166.12914215044384,198.18203889558788,183.8865103490141,190.37812482065283,191.1482739036469,211.6290207422128
1.6016016016016017,97.3723817019261,45.96367639351181,160.4798606345283,202.9817658484353,184.14072989728072,190.2430187206077,190.69945171920105,211.55387230044008
1.6349683016349683,104.20262297854842,49.642630747968845,154.01516555855255,207.19340821138965,184.30075148041425,190.1267981085839,190.24811219037736,211.23275645712567
1.6683350016683351,117.97889396154984,53.90587085260936,146.7644685979072,210.71063816623865,184.3647247784396,190.02998716568788,189.81100963687163,210.68232263979908
1.7017017017017018,132.1173503105631,60.99048914719639,138.75718142798326,213.42712789476985,184.3307994713816,189.95311007302604,189.4048983783796,209.91922027598983
1.7350684017350684,146.18368014200556,67.97447661554062,130.02271572417143,215.23654957877085,184.1971252392651,189.8966910117047,189.04653273459712,208.96009879322764
1.7684351017684352,159.74357157229676,85.90428364627165,120.5904831618626,216.0325754000293,183.96185176211492,189.86125416283025,188.7526670252199,207.8216076190419
1.8018018018018016,172.36271271785552,106.45943425599869,110.4898954164476,215.7088775403328,183.62312871995613,189.84732370750905,188.5400555699437,206.52039618096225
1.8351685018351689,183.6067916951012,117.78928606744644,99.75036416331736,214.1591281814688,183.1791057928134,189.8554238268474,188.4254526884644,205.07311390651816
1.8685352018685355,193.0414966204529,131.6235070470255,88.40130107786254,211.2769995052251,182.6279326607116,189.88607870195185,188.4256127004776,203.49641022323928
1.901901901901902,200.23251561033013,145.4368801900282,76.47211783547411,206.9561636933892,181.96775900367567,189.93981251392856,188.55728992567924,201.8069345586552
1.9352686019352687,204.74553678115245,159.07336124627608,63.99222611154281,201.09029292774875,181.1967345017305,190.01714944388405,188.837238683765,200.02133634029525
1.968635301968636,206.1462482493385,172.376905965591,50.99103758145945,193.5730593900912,180.31300883490087,190.11861367292465,189.2822132944307,198.15626499568927
2.002002002002002,204.00033813130744,185.1914700977948,37.49796392061506,184.2981352622044,179.31473168321168,190.24472938215663,189.9089680773721,196.22836995236665
2.035368702035369,197.87349454347896,197.3610093927095,23.54241680440028,173.1591927258758,178.20005272668777,190.39602075268647,190.7342573522849,194.2543006378569
2.0687354020687354,187.33140560227235,208.72947960015685,9.15380790820602,160.04990396289293,176.96712164535404,190.5730119656206,191.774835438865,192.2507064796898
