Time,Left Shoulder Angle,Right Shoulder Angle,Left Elbow Angle,Right Elbow Angle,Left Hip Angle,Right Hip Angle,Left Knee Angle,Right Knee Angle
0.0,15.02905369970434,25.750907688204546,152.19721684779566,160.12673991568573,128.3712345063159,125.03652952651711,203.31178919854145,209.1375751011213
0.0333667000333667,15.129259521222918,25.666233775957704,150.83823199017314,160.09414167134514,128.16404934871872,125.11431317647974,203.3020301224899,208.92873446970583
0.0667334000667334,15.250896271721189,25.59137518101762,149.6894403940398,160.0607037392933,127.98037206024382,125.1859062718244,203.3145194494863,208.7392697882851
0.1001001001001001,15.392240798668874,25.5263997786188,148.7389509634487,160.0277472490827,127.81933093513048,125.25185726621778,203.34713568633427,208.5680531437768
0.1334668001334668,15.551569949535702,25.47137544399576,147.9748726024529,159.99659333026574,127.68005426761796,125.31271461332662,203.3977573398375,208.41395662309853
0.1668335001668335,15.727160571791394,25.42637005238299,147.38531421510544,159.968563112395,127.5616703519456,125.3690267668176,203.46426291679967,208.275852313168
0.2002002002002002,15.917289512905674,25.39145147901501,146.95838470545934,159.94497772502294,127.46330748235268,125.42134218035746,203.54453092402443,208.15261230090283
0.2335669002335669,16.120233620348266,25.366687599126347,146.68219297756767,159.92715829770205,127.38409395307856,125.47020930761286,203.63643986831545,208.0431086732207
0.2669336002669336,16.334269741588898,25.352146287951488,146.54484793548346,159.91642595998482,127.32315805836248,125.51617660225052,203.73786825647645,207.94621351703927
0.3003003003003003,16.557674724097286,25.34789542072495,146.53445848325975,159.91410184142376,127.27962809244374,125.55979251793714,203.84669459531105,207.8607989192762
0.333667000333667,16.78872541534316,25.35400287268124,146.63913352494964,159.9215070715713,127.2526323495617,125.60160550833945,203.9607973916229,207.7857369668491
0.3670337003670337,17.025698662796245,25.37053651905487,146.8469819646061,159.93996277997996,127.2412991239556,125.64216402712412,204.0780551522157,207.7198997466757
0.4004004004004004,17.26687131392626,25.397564235080345,147.14611270628222,159.97079009620225,127.2447567098648,125.68201652795786,204.19634638389323,207.66215934567364
0.4337671004337671,17.510520216202927,25.43515389599218,147.52463465403105,160.01531014979062,127.26213340152856,125.72171146450738,204.31354959345904,207.6113878507605
0.4671338004671338,17.75492221709598,25.48337337702488,147.9706567119056,160.0748440702976,127.2925574931862,125.7617972904394,204.4275432877168,207.56645734885407
0.5005005005005005,17.99835416407514,25.54229055341296,148.47228778395893,160.15071298727565,127.335157279077,125.8028224594206,204.53620597347012,207.5262399268719
0.5338672005338673,18.23909290461012,25.611973300390915,149.01763677424412,160.24423803027722,127.38906105344032,125.8453354251177,204.6374161575229,207.4896076717317
0.5672339005672339,18.4754152861708,25.692489493193463,149.59481258681527,160.35674032885615,127.4533971105164,125.88988464119844,204.72905234668025,207.4554326703528
0.6006006006006006,18.686774288443285,25.81807958206281,150.409666204951,160.5667154604328,127.51298635641132,125.97734665025972,204.8069975945861,207.4073962446776
0.6339673006339673,18.87343782623485,25.93085449846355,150.88578457319386,160.77083900950612,127.60213749940286,126.06248811407482,204.8548239373152,207.3558456606049
0.6673340006673341,19.05881485259487,26.035887898194765,151.29465126376147,160.96536914176983,127.70738436688632,126.1304025462846,204.88037248733755,207.3048185323721
0.7007007007007008,19.24517202418769,26.14747933959649,151.6747927408338,161.17305533723734,127.81295896752076,126.19601354491662,204.8756691613705,207.2528219622473
0.7340674007340674,19.427880771079657,26.279423185748627,152.05726450900153,161.41927871522554,127.92164883421177,126.26679224835377,204.8462519780136,207.1948603664956
0.7674341007674341,19.62857170916288,26.41709386061685,152.44702409111696,161.70021768203063,128.03620706316156,126.34243725978838,204.7742785690304,207.130692962126
0.8008008008008008,19.84180739402497,26.55973628611273,152.86239310357263,161.99672864858513,128.16765447570293,126.42571067449636,204.69420043959408,207.05724020923023
0.8341675008341676,20.056554357428485,26.730795802561666,153.26019231267938,162.35558586967812,128.31123954661155,126.51800418588972,204.57215114282693,206.97686299096907
0.8675342008675342,20.2492403921132,26.93152307145006,153.60035331057006,162.748667199796,128.42884719256023,126.60091246365369,204.4503464988585,206.91038448517915
0.9009009009009008,20.208172997635604,27.24204304424876,153.55536865730514,163.149182980702,128.49690491071595,126.63932812036542,204.36517149850283,206.8813770073924
0.9342676009342676,20.128891997693383,27.604408712627063,153.45995770682185,163.54817702026105,128.5646055955322,126.65513246236642,204.2648981159111,206.8692663178408
0.9676343009676344,20.02888821727924,27.982991311540065,153.34926086047705,164.0225440909544,128.6216070129603,126.6433798137836,204.1528363336276,206.87518578781143
1.001001001001001,19.97482729484617,28.28190969618344,153.35472588448144,164.45138406322542,128.67230054517677,126.62184134183656,204.0250861512831,206.90430613761805
1.0343677010343677,19.95761198217876,28.50023138067804,153.38913319554143,164.7819175302508,128.74266486598657,126.58930444335807,203.89040809518016,206.9422979188711
1.0677344010677343,19.89727881856295,28.66668562530398,153.32132580738343,165.08150214389929,128.81829549135963,126.56160071857282,203.7522761451627,206.95910673835937
1.1011011011011012,19.90799513187092,28.78565448723504,153.4005754228005,165.34541324696914,128.86570100614304,126.53888637480333,203.63014537657696,206.96956770147656
1.1344678011344678,19.92279617083677,28.840736396148262,153.471605877483,165.54507856144986,128.922576858959,126.53359062325586,203.503327088922,206.95797018617708
1.1678345011678346,19.864902979818982,28.99740869685712,153.3978174739634,165.96504110972924,128.95281137571016,126.49427957539434,203.4630378035182,206.94572456897
1.2012012012012012,19.864422041709886,29.120506276213064,153.41891042491886,166.41392956666434,128.89991471504052,126.45995762695104,203.45424777970965,206.93123955218283
1.234567901234568,19.93806680385484,29.19448195529628,153.60345865332917,166.77712662297668,128.8841250369998,126.4610578257976,203.3897809863046,206.90702433816665
1.267934601267935,19.983539089937423,29.84148539820836,153.85661171846684,167.804700275318,128.96210012758135,126.4667043148405,203.3051396123533,206.8916200540405
1.3013013013013013,20.03754270856456,29.97515757257064,154.19247380437017,168.02169596098787,129.06570091765047,126.47677299101233,203.23288280391324,206.84133750265505
1.334668001334668,20.121416061981204,29.906645145501784,154.65112314807965,167.94769781438717,129.22247365927552,126.54047664437076,203.13632232244825,206.7516514017821
1.3680347013680347,20.273631695796183,29.55422085558441,155.22675333836864,167.4757944470486,129.39564750386646,126.68299656798708,203.02773723344728,206.62443702570312
1.4014014014014016,20.55057873516037,29.01718029340196,155.98224298827648,166.77710062221848,129.56395179773935,126.870237001216,202.8785068275893,206.48067401502485
1.4347681014347682,20.927734625739983,28.43336093540277,156.90740861573727,165.92040673946715,129.75447560631358,127.0975982133113,202.72919707853768,206.32155761608945
1.4681348014681348,21.38642003061773,27.808637334874945,157.924530992128,165.075584649406,129.94279067380583,127.34301293840164,202.5233455080756,206.15787946161527
1.5015015015015016,21.86192903075711,27.19991498410716,158.97366389254648,164.31903293725404,130.08503409678875,127.61814585092964,202.3886610307512,205.9875828718696
1.5348682015348682,22.35831156519098,26.47791148324828,160.06826683880698,163.45988673604091,130.2440347051241,127.99697383736653,202.2254322302493,205.76587469963908
1.5682349015682349,22.889154261066977,25.80005338595501,161.1661553481638,162.8808515308996,130.39014895881604,128.43083856515386,202.08381760038867,205.52458195093809
1.6016016016016017,23.44747542905668,25.12683411264961,162.22957651340624,162.32854426940642,130.48077300910498,128.90746514645443,202.02929214617828,205.2532552125186
1.6349683016349683,24.001505969588447,24.353555137400523,163.26473327997758,161.39941994821558,130.5502759711323,129.4110882425412,202.00959458703952,204.96590641158937
1.6683350016683351,24.57023725292036,23.56332487557201,164.14183200949373,160.56838230502987,130.5707170288534,129.9337810281761,202.03195561740435,204.66717491949328
1.7017017017017018,25.132578459200985,22.815338389583747,165.0771170739444,159.38239260145463,130.51076618754792,130.4710580923109,202.1767664702308,204.3582637974249
1.7350684017350684,25.718382053750208,22.05189775856342,166.0157140345949,158.46557904834592,130.375250061458,130.9958422908887,202.403625636791,204.05663602827863
1.7684351017684352,26.31818722899772,21.119342629357103,166.8543754987803,157.35224167234503,130.13852037609638,131.51355394536924,202.68993821122183,203.7688971978358
1.8018018018018016,26.90287525434446,20.129030950191485,167.59498522747967,156.04777254913876,129.83861129805996,132.01919667436448,202.99399614360777,203.5025424846504
1.8351685018351689,27.570703008799207,19.10096072619038,168.16907779379403,154.87394566932815,129.41396041652007,132.50472690068173,203.3826349064325,203.25685780953089
1.8685352018685355,28.288033202768656,18.02084584334853,168.140409457773,153.82324511444972,128.92797395750776,132.96980782897282,203.8235727408549,203.03198943385345
1.901901901901902,28.89962093542689,16.740847493431673,168.18163973256114,152.14985471822976,128.45097715257637,133.4126164630135,204.2896129757599,202.8320759322405
1.9352686019352687,29.293934476024774,15.476973759141124,171.52941924465517,150.16069324942225,128.0025712290733,133.83191197520335,204.79203345509808,202.66965792675936
1.968635301968636,29.351898851378603,14.341304054962476,171.1063301933399,148.04280764984264,127.44939839223514,134.2088121500492,205.3308612813168,202.552153462939
2.002002002002002,28.90314841689834,13.241435790609664,171.05363536933484,149.61068868603132,126.76000239101286,134.5245124039301,205.9466639352657,202.471694862194
2.035368702035369,27.956349179498098,12.357153482208036,171.3973460061844,147.40337721986816,125.98689914029129,134.76715158159664,206.6302424054816,202.4338882238903
2.0687354020687354,27.207986907565594,11.379183988822954,171.33463534252593,146.9921220961264,125.12799962811252,134.99143996270868,207.34021154987187,202.40527262265908
2.1021021021021022,25.96273495035804,10.20669355255474,173.19298664959732,146.80939595892633,124.14861043100294,135.19707686099764,208.0935666858766,202.37111335680007
2.135468802135469,24.72290850041639,9.145870367836755,175.31393415156984,146.80525447881723,123.1023668931345,135.37997328904643,208.89930498237104,202.32494873642136
2.1688355021688355,23.44456836737549,8.028152366813027,176.85188892763406,147.0431657026284,121.99745993394062,135.5344371662236,209.7571375117988,202.2691823490287
2.2022022022022023,22.13543214576491,7.613781938145019,179.80656749462565,146.52781542134525,120.8627260414586,135.65253977855906,210.66114993758453,202.18861887728832
2.235568902235569,20.89890259761919,7.082215151086926,182.16475677455776,145.77437590811363,119.71500068067874,135.72522001503867,211.58700667651232,202.1127195767467
2.2689356022689355,19.80625169873862,6.47819363030711,183.9163662964624,144.76651792733256,118.60557649889432,135.74694492914378,212.5374559714884,202.06827919919263
2.3023023023023024,18.761881681025766,6.418538219198513,185.1505796195036,143.697943914856,117.53931830026468,135.71928155950002,213.5011743682025,202.03845448211263
2.335669002335669,17.696168483649107,6.105923121658583,185.4361727129524,142.17860701421944,116.60553768810024,135.70113191471037,214.36968549935528,202.00740350030773
2.369035702369036,16.652084579180045,5.517344073530854,185.06733964500827,136.83145434624169,115.88359640235458,135.68999073693024,215.1426556405172,201.9390421876253
2.4024024024024024,15.622675265933855,4.9489866876240045,184.17328486876804,132.6091616997677,115.27253835342624,135.67096869151186,215.88575053798863,201.83427002394927
2.4357691024357693,14.801125276478938,3.791540782865868,182.5622337710784,128.82595949975791,114.70817743691782,135.67566202584052,216.5745091560244,201.64806375647763
2.469135802469136,14.313008581316938,3.2830242078090697,180.57061967693065,128.2335712814933,114.18865653407669,135.73211085491943,217.15070386873776,201.41304559163004
2.5025025025025025,14.246582222420573,2.988081267972076,178.22041629725086,126.278325830074,113.5979776622389,135.7999952539477,217.66642645823168,201.1498617547444
2.5358692025358693,14.272432472529651,2.987409916704189,175.60229650110938,123.37725799902044,113.0579551905851,135.84451919650013,218.1436921934245,200.8737461762064
2.569235902569236,14.49855577434916,2.987409916704189,172.67655270035183,120.55985858098376,112.59879892586216,135.9050006363512,218.61955427015752,200.57328836144268
2.6026026026026026,14.834947591562129,2.987409916704189,169.23698598610625,118.06700429095024,112.21811887904276,135.98044895572778,219.03961108418008,200.239203897682
2.6359693026359694,15.308734303747492,2.987409916704189,165.32644783366896,115.29230994838436,111.91554932935702,136.1015474210899,219.4680009118628,199.86815648682585
2.669336002669336,6.314959290691204,2.987409916704189,161.05525868548582,112.08361637681716,111.7470423590109,136.25280146169098,219.76114891042923,199.45942364689023
2.702702702702702,1.0859835944962537,2.987409916704189,156.0894329802966,108.77345686131338,111.59879873915833,136.37733903666768,220.07806190788048,199.0332066956819
2.736069402736069,1.0859835944962537,2.987409916704189,150.80564117883145,104.93266203675718,111.47524031734578,136.52867969391843,220.413488051848,198.53023554210745
2.7694361027694363,1.0859835944962537,2.987409916704189,146.028165837773,100.7913571362448,111.41521133531752,136.69242534009982,220.70127008253004,198.009109714676
2.802802802802803,1.0859835944962537,2.987409916704189,141.5702519932243,96.7378488917778,111.34425306214538,136.84266954174774,220.9880408124581,197.5222730156903
2.836169502836169,1.0859835944962537,2.987409916704189,137.5051218240297,92.34692705093832,111.234095524386,137.03334774168692,221.3496997877444,197.0291718437713
2.8695362028695364,1.0859835944962537,2.987409916704189,133.50821054170154,88.02032753530175,111.07713406631716,137.25931014976393,221.7048215591248,196.49976464649984
2.902902902902903,1.0859835944962537,2.987409916704189,130.1099273061528,83.52776490550944,110.98978184012952,137.50180657447163,222.0113103146372,195.98556101868945
2.9362696029362696,1.0859835944962537,2.987409916704189,126.9531986567611,78.60491795503954,111.05910921188894,137.77875882842724,222.23996371832973,195.46250885740733
2.9696363029696364,1.0859835944962537,2.987409916704189,120.8725416760125,71.89597469119455,110.82409046007656,138.3212236546032,222.50433744048928,195.04393863806604
3.003003003003004,1.0859835944962537,2.987409916704189,118.18417453481052,67.35718749269394,110.61869387350109,138.6626564045891,222.76782531101315,194.8458317167886
3.0363697030363697,1.0859835944962537,2.987409916704189,121.22586993119852,64.35528707576853,110.61194675783965,138.88876007083215,222.90079805820804,194.83773532873664
3.0697364030697365,1.0859835944962537,2.987409916704189,119.3303891674487,59.4009161486331,110.62134971152642,138.84193258160755,223.02653721439464,194.97208204636087
3.103103103103104,1.0859835944962537,2.987409916704189,112.90712813990488,55.85675068355733,110.55399472141325,138.55806068417365,223.19295024395123,195.30411080131745
3.1364698031364697,1.0859835944962537,2.987409916704189,115.38612747501128,59.85016699229163,110.63796606957574,137.95066099967244,223.48510778666363,195.7861893267276
3.169836503169837,1.0859835944962537,2.987409916704189,117.61230095285973,58.45191307476079,110.91797876705203,137.14410244501423,223.73319261370483,196.4177138477725
3.2032032032032034,1.0859835944962537,2.987409916704189,116.2026935142205,61.04460559500272,111.00048426094943,136.31757836781907,224.00326571927272,197.16802142563765
3.2365699032365702,1.0859835944962537,3.436213916745233,126.0669440455587,62.66594936945947,111.09383958299624,135.46140060613004,224.18271356154543,198.03499216785693
3.2699366032699366,1.0859835944962537,3.436213916745233,125.60442983660008,62.02128030150407,111.1781501352859,134.58196365409086,224.2376504617773,199.0066615038356
3.3033033033033035,1.0859835944962537,3.436213916745233,126.88031084434331,61.31801402988539,111.22163294168458,133.6721196688272,224.19049422912445,200.0952100641381
3.3366700033366703,1.0859835944962537,3.436213916745233,130.23761109407403,59.15551566956346,111.31260055319156,132.94338293715066,223.93315363018772,201.23887931260057
3.3700367033700367,1.0859835944962537,3.436213916745233,132.12292220709188,58.944836165116016,111.52628456887028,132.14789404623494,223.5064412097929,202.4729035762768
3.4034034034034035,-0.8868404447165714,3.436213916745233,133.7529305666324,59.591731690504055,111.82044014785566,131.31375048723098,222.9691662277395,203.77213007427207
3.4367701034367704,-0.4187900774566842,3.436213916745233,135.5226256125121,61.30318536354206,112.13769328658285,130.43815685226227,222.44492180751976,205.01522031128243
3.4701368034701368,2.571038025216991,3.436213916745233,137.00881275737598,63.654188857540895,112.49032477994422,129.53040081441844,221.79943945197263,206.20737143582105
3.503503503503504,2.571038025216991,3.436213916745233,138.896732101973,65.94789097459476,112.8064960591372,128.58752919566317,221.0614312044487,207.3358668376864
3.5368702035368704,2.571038025216991,3.436213916745233,140.7815327432284,71.68184326593168,113.35972170321074,127.60684700442084,220.08655144288048,208.44043846869403
3.5702369035702373,2.571038025216991,3.436213916745233,143.1671828779561,78.4126352023242,114.00566899057009,126.66994913846894,218.8722211458605,209.45919489617955
3.603603603603604,2.571038025216991,3.436213916745233,146.57468308832463,84.9916714792495,114.70006888525118,125.77367183072582,217.5979302463638,210.3751784373638
3.6369703036369705,2.571038025216991,3.436213916745233,149.2559419018615,88.64130097129588,115.47989831724618,124.9751349921205,216.21622701399505,211.1420181644336
3.670337003670337,2.571038025216991,3.436213916745233,151.5152826271635,92.99801839168666,116.41952922939232,124.26523705339515,214.8577306293157,211.71549364301904
3.703703703703704,2.571038025216991,3.436213916745233,153.42847979331586,98.27547157377984,117.45671594890048,123.72644444104468,213.4393557729335,212.098275137912
3.737070403737071,2.571038025216991,3.436213916745233,154.7727460354149,103.49510559502968,118.59208772941516,123.3240835421471,211.89629306833663,212.2689828649713
3.770437103770437,7.9357501815616605,3.436213916745233,156.0976450761911,108.39936357513008,119.77691487274602,123.1142486862162,210.2486212309385,212.2135971663566
3.803803803803804,15.742846394149478,3.436213916745233,157.17800474137914,113.34199574330094,120.99528725160948,123.1255031093408,208.55098189679845,211.91079257541264
3.8371705038371706,25.28357576504888,4.193640300611127,158.43911975004465,117.57069342990094,122.23124081479244,123.39538635097962,206.93550838964,211.385128562577
3.8705372038705375,46.36685045077804,4.193640300611127,160.02683069524304,119.51950842672665,123.50968432071124,124.01566579553574,205.30696054440045,210.6649888354064
3.903903903903904,66.70068018500548,4.193640300611127,162.72952889678274,127.6792382933698,124.85077727037616,124.75970329462378,203.6502999370645,209.78585826535465
