Time,Left Shoulder Angle,Right Shoulder Angle,Left Elbow Angle,Right Elbow Angle,Left Hip Angle,Right Hip Angle,Left Knee Angle,Right Knee Angle
0.0,93.6320093797238,87.44088751413877,149.72642472450022,158.9773483686439,134.4201735010324,132.08491344812126,203.96874380679168,212.90283309796192
0.0333667000333667,64.59362814059986,65.13995921949308,155.15370094457705,165.23175778135086,135.08697355210643,131.76635474486392,201.19712306228308,212.1182090589637
0.0667334000667334,40.89509199719668,46.64979639233422,159.96383064113598,170.14823517432882,135.57942975291093,131.57816309104533,199.05134367462315,211.3986436969201
0.1001001001001001,22.18737608889068,31.72781727590433,164.18353276781164,173.8107427502416,135.91007671091896,131.5094593827238,197.4856187898372,210.7419835724608
0.1334668001334668,8.121455555058205,20.13144011344562,167.83952627823857,176.30324271175297,136.0914490336036,131.54936451595762,196.45416155395063,210.1460752462155
0.1668335001668335,-1.6516944649243328,11.61808314820027,170.95853012605136,177.70969726152677,136.13608132843794,131.6869993868051,195.91118511298868,209.60876527881385
0.2002002002002002,-7.481098831680569,5.9451646234104345,173.5672632648846,178.11406860222678,136.05650820289506,131.9114848913245,195.81090261297675,209.1279002308856
0.2335669002335669,-9.715782405834132,2.8701027823183267,175.69244464837283,177.60031893651674,135.865264264448,132.21194192557417,196.1075271999401,208.70132666306023
0.2669336002669336,-8.704770048008598,2.150315868166089,177.36079323015068,176.25241046706054,135.5748841205699,132.57749138561238,196.7552720199042,208.32689113596768
0.3003003003003003,-4.797086618827649,3.5432221241959354,178.5990279638527,174.1543053965219,135.1979023787338,132.99725416749743,197.70835021889425,208.00244021023747
0.333667000333667,1.6582430210850845,6.80623979365005,179.4338678031135,171.38996592756467,134.7468536464128,133.46035116728766,198.92097494293563,207.7258204464993
0.3670337003670337,1.6582430210850845,11.69678711977059,179.8920317015676,168.0433542628526,134.23427253107994,133.9559032810413,200.34735933805365,207.4948784053829
0.4004004004004004,1.6582430210850845,17.972282345799755,180.0002386128496,164.1984326050495,133.67269364020834,134.47303140481668,201.94171655027364,207.307460647518
0.4337671004337671,1.6582430210850845,25.390143714979686,179.7852074905941,159.9391631568192,133.07465158127107,135.00085643467213,203.6582597256209,207.1614137335341
0.4671338004671338,1.6582430210850845,33.70778947055267,179.2736572884357,155.34950812082545,132.45268096174118,135.5284992666659,205.4512020101209,207.0545842240611
0.5005005005005005,10.312194011106117,42.68263785576073,178.4923069600089,150.51342969973211,131.81931638909177,136.04508079685633,207.27475654979887,206.9848186797285
0.5338672005338673,20.81574149061169,52.072107113846144,177.46787545894836,145.51489009620292,131.18709247079593,136.5397219213017,209.0831364906801,206.9499636611661
0.5672339005672339,32.81986059897818,61.6336154880518,176.2270817388901,140.43785151290288,130.56854381432774,137.00154353606135,210.83055497879167,206.9478657290053
0.6006006006006006,45.97552647558208,67.3034265657375,175.69049031144613,136.34642577835575,130.1619433438263,136.9570914522018,211.869717170887,207.88895049606063
0.6339673006339673,59.93371425979966,72.10812178168352,174.00608018691824,134.60941595537463,129.7398877879927,137.21754298573094,212.7472850695728,208.4808700338103
0.6673340006673341,74.34539909100728,75.42163911671268,173.71414410921727,133.19419334977997,129.38466144061377,137.6064071377023,213.43064045991244,208.9527237345333
0.7007007007007008,88.86155610858223,79.44033311383836,172.5401425458346,132.51216909510433,129.10454538553023,137.81319742001568,213.8045118770654,209.23423123139384
0.7340674007340674,97.77756841711998,82.85490895742343,173.98432437260828,129.21544468982515,128.9781619424817,137.94916401423126,213.8526586117252,209.3369388154583
0.7674341007674341,105.80845829265272,77.1028323021216,170.27144370992465,120.4150592653003,128.9534551396,137.6594473680771,213.57369097631445,209.22836245215228
0.8008008008008008,113.08865498769292,73.82593048769563,167.86852366217033,113.15223426494988,128.82342893964233,137.06897884097424,213.2487169565819,209.0290330290537
0.8341675008341676,119.5237807592092,72.36064874214387,165.75608867294977,107.04468472320156,128.5805545534266,136.55889756927408,212.7282082268312,208.59926983968649
0.8675342008675342,113.99485709450148,71.59212781289085,163.18014265225358,104.21461031981684,128.51310358982474,135.9441201451794,211.8393758976818,207.89258857532687
0.9009009009009008,111.3807217901862,72.27730270823118,160.10402524818826,102.36253349385926,128.57609662465882,135.4134121075453,210.66845337294188,206.94892143253043
0.9342676009342676,109.63021890831722,73.89027716727863,157.4765495327382,100.73935429879847,128.55015504788784,135.06157552536152,209.1991066882661,205.66661367266408
0.9676343009676344,109.23690239435965,76.87648610063376,154.2472999819107,99.25542176215076,128.5793889648126,134.68518274083013,207.42071558311244,204.23945362438448
1.001001001001001,110.15925435029855,90.72350830577284,151.35926476648848,102.29846108966508,128.84861721929585,134.42166761974042,205.21610943486087,202.6350122166938
1.0343677010343677,112.2384285227389,103.38056685517694,147.8501872554697,103.09969500727426,129.31936191027313,134.04049727869642,202.825441323311,201.259155848718
1.0677344010677343,115.1903777143245,113.28925049961114,144.08060627161564,103.74978821672224,129.78458940757548,133.95113729664905,200.20384687516284,199.6215431316619
1.1011011011011012,119.1884284927653,123.01915809565372,141.35887893229,103.96293668578852,130.39559052957006,133.61766169806555,197.6117564821102,198.2494970828439
1.1344678011344678,123.35395835055188,120.01860363440396,135.53230465052522,105.19241184451712,130.79030669166966,133.67785589859244,195.22994376542235,196.10484364363288
1.1678345011678346,128.19401385490568,122.68932475837391,131.54266603043436,106.99677806751691,131.5608231628961,133.91015897116236,192.2002538973953,193.37756378429728
1.2012012012012012,133.37095131295925,125.20899784512528,127.3220673837532,108.63938713271368,132.41723840608822,134.26429576969048,189.21375621110568,190.61255801910005
1.234567901234568,138.62466571472083,127.6003197088094,122.8555877349034,110.00638888247678,133.35718288731292,134.7458927202171,186.31916555727952,187.85378507215145
1.267934601267935,153.16239884707127,129.88598716357822,118.12830610830817,110.98393315917644,134.37828707263816,135.36057624878364,183.56519678664444,185.1452036675632
1.3013013013013013,155.45170553324488,132.08869702358365,113.12530152839054,111.45816980518282,135.47818142813176,136.1139727814314,181.000564749928,182.5307725294473
1.334668001334668,157.94355760775755,134.23114610297765,107.83165301957372,111.31524866286615,136.6544964198617,137.01170874420183,178.67398429785797,180.0544503819156
1.3680347013680347,160.73538253695023,136.3360312159122,102.23243960628078,110.44131957459676,137.9048625138958,138.0594105631363,176.63417028116194,177.76019594907996
1.4014014014014016,163.92460778716446,138.42604917653918,96.31274031293488,108.72253238274476,139.22691017630203,139.26270466427616,174.92983755056753,175.6919679550523
1.4347681014347682,167.60866082474178,140.5238967990106,90.05763416395915,106.04503692968038,140.61826987314825,140.62721747366274,173.6097009568024,173.89372512394442
1.4681348014681348,171.88496911602374,142.65227089747836,83.45220018377671,102.29498305777388,142.07657207050238,142.15857541733752,172.72247535059412,172.40942617986826
1.5015015015015016,176.85096012735193,144.83386828609443,76.48151739681072,97.3585206093954,143.59944723443235,143.86240492134178,172.31687558267046,171.28302984693565
1.5348682015348682,182.60406132506785,147.09138577901078,69.13066482748427,91.12179942691536,145.184525831006,145.74433241171693,172.441616503759,170.5584948492585
1.5682349015682349,189.2417001755132,149.4475201903793,61.38472150022049,83.47096935270382,146.82943832629127,147.80998431450433,173.14541296458734,170.27977991094866
1.6016016016016017,196.8613041450293,151.92496833435197,53.22876643944255,74.29218022913105,148.53181518635606,150.0649870557454,174.4769798158832,170.49084375611804
1.6349683016349683,205.56030069995785,154.5464270250808,44.64787866957354,63.47158189856731,150.28928687726824,152.51496706148149,176.48503190837414,171.2356451088785
1.6683350016683351,215.4361173066404,157.3345930767176,35.62713721503661,50.89532420338279,152.09948386509578,155.16555075775395,179.21828409278783,172.5581426933419
1.7017017017017018,226.5861814314185,160.3121633034144,26.15162110025492,36.44955698594768,153.9600366159065,158.02236457060417,182.725451219852,174.5022952336201
