Time,Left Shoulder Angle,Right Shoulder Angle,Left Elbow Angle,Right Elbow Angle,Left Hip Angle,Right Hip Angle,Left Knee Angle,Right Knee Angle
0.0,79.77921180836752,43.04107388230878,149.36536099124234,157.7390405189677,129.39849385952303,133.69626629845064,204.5876277166272,201.0771364144396
0.0333667000333667,47.02193341654039,36.44265063611713,152.77639286161437,159.01508919214126,130.3142453226991,135.4671430145752,202.48782319680515,199.7136142185853
0.0667334000667334,21.00538572736299,30.8775000722501,155.87857572368185,159.53140106410967,130.92372886462766,137.1476227297613,200.88873422898808,198.46892750658697
0.1001001001001001,1.2590672370970282,26.280786472466986,158.674454597483,159.33749864007612,131.2538084482499,138.7375559664337,199.75162452217043,197.34001107119423
0.1334668001334668,-12.687523557995815,22.587674118527083,161.166574503056,158.48290442524387,131.33134803650705,140.23679324701726,199.03775778534663,196.3237997051569
0.1668335001668335,-21.304888161653864,19.73332729218968,163.3574804604391,157.01714092481606,131.18321159234026,141.64518509393685,198.70839772751108,195.4172282012248
0.2002002002002002,-25.06352807761536,17.652910275214083,165.24971748967047,154.98973064399596,130.8362630786907,142.9625820296173,198.7248080576583,194.61723135214768
0.2335669002335669,-24.43394480961861,16.281587349359583,166.84583061078834,152.4501960879867,130.31736645849958,144.1888345764834,199.04825248478247,193.9207439506752
0.2669336002669336,-19.886639861402003,15.554522796385475,168.1483648438309,149.44805976199157,129.6533856947081,145.32379325696004,199.6399947178784,193.3247007895573
0.3003003003003003,-11.892114736703777,15.406880898051057,169.15986520883638,146.03284417121375,128.8711847502574,146.36730859347205,200.46129846594025,192.8260366615437
0.333667000333667,-0.9208709392622012,15.77382593611562,169.88287672584298,142.25407182085644,127.9976275880887,147.31923110844428,201.4734274379625,192.42168635938413
0.3670337003670337,12.556590027184384,16.59052219233846,170.3199444148889,138.16126521612284,127.0595781711432,148.17941132430155,202.6376453429396,192.10858467582844
0.4004004004004004,28.069766658897592,17.792133948478874,170.4736132960124,133.80394686221618,126.08390046236202,148.94769976346873,203.91521588986592,191.8836664036264
0.4337671004337671,45.14815745213925,19.31382548629616,170.3464283892516,129.23163926433963,125.0974584246864,149.62394694837062,205.267402787736,191.74386633552763
0.4671338004671338,63.321260903171066,21.0907610875496,169.94093471464475,124.49386492769644,124.12711602105752,150.2080034014321,206.65546974554405,191.68611926428207
0.5005005005005005,82.11857550825464,23.05810503399851,169.25967729223007,119.64014635748984,123.19973721441656,150.69971964507798,208.04068047228472,191.70735998263945
0.5338672005338673,101.06959976365164,25.15102160740217,168.30520114204575,114.72000605892296,122.3421859677047,151.0989462017331,209.3842986769524,191.8045232833496
0.5672339005672339,119.7038321656246,27.30467508952014,167.08005128413146,109.7829665372002,121.58132624386404,151.40553359382358,210.64758806854303,191.97454395916373
0.6006006006006006,127.09963679005438,26.321678367556032,168.25579985079696,107.90030973969516,121.02825855926562,151.48551833879228,211.14600914185843,192.6891166302059
0.6339673006339673,126.5390526174598,20.4153053835188,166.85733346801848,98.00762558919854,120.76233194634467,151.64033092096116,211.3936997539801,193.1240197165293
0.6673340006673341,127.52375686546166,15.924376041948127,163.5889333685739,90.80295850832972,120.8629660007564,151.78403727216912,211.4073604188404,193.31270619364344
0.7007007007007008,129.39540626794115,14.050102375729912,159.51922828178596,84.86936864008103,121.28967864693864,151.6859914207493,211.2110009623588,193.6884394620401
0.7340674007340674,131.97678072916307,14.686711899266086,155.3643128148701,80.3766292961078,122.04014937829037,151.2443519203853,210.7862955880998,194.2946032717738
0.7674341007674341,134.96527930266413,16.824089834673526,151.04812408216316,75.8259839449342,123.10645134569008,150.67717762775584,210.1763555799016,194.91551993933064
0.8008008008008008,138.4242951307141,20.46269970460016,146.5017396907577,72.29603911403369,124.40272373536992,150.0945435700306,209.39784957871268,195.35300327151225
0.8341675008341676,142.12455341964085,25.29532848841358,142.09079926168982,70.37238171315713,125.8554618578695,149.5095288032784,208.451223977432,195.7998233267656
0.8675342008675342,146.29587787784334,31.55761077800513,137.73676984776444,70.20063501912199,127.3760476046904,148.77645384114348,207.4128697688265,196.32755781842368
0.9009009009009008,150.5628558797114,39.48302472378042,133.70690343204583,71.10006740573061,128.97619246184692,147.99370600319256,206.2686639828474,196.78846344832164
0.9342676009342676,154.76634624498382,48.87879095603581,129.76047355072308,73.8693239436714,130.69274696383707,147.23733402778728,205.09166134351184,197.26945083603744
0.9676343009676344,158.89358204313362,59.13526573175173,126.49299179497262,78.61229680520097,132.65300584689402,146.67311167132766,203.7190169146634,197.6476366257628
1.001001001001001,162.43980684004424,69.611446054031,123.3388781187436,85.49664944388076,134.8680210510006,146.40811939114027,202.08043187120472,197.84220377746567
1.0343677010343677,172.51992812332028,88.35585826979998,120.3135026662122,93.70514408136007,137.2944998290548,146.41558435306547,200.2275699529032,197.91998603877863
1.0677344010677343,179.5849295607152,105.81436789328912,117.48781191108732,103.22335321292854,139.86937889353064,146.7136022510073,198.3006785123936,197.6390547358283
1.1011011011011012,179.96519348838473,122.31865076529198,114.21164206830768,112.17423841720108,142.86451150730926,147.03295240645167,195.9597322346088,197.0539482595693
1.1344678011344678,180.2248501759503,138.58954858653516,110.9032864501772,121.0704658488304,145.89353699789612,147.4612269663819,193.60765409274555,196.32391030026207
1.1678345011678346,180.461044334543,154.33081367417248,107.5574336254658,129.7081162143006,148.92021180729083,147.99812964174535,191.27840879546736,195.45153513300363
1.2012012012012012,180.7709206752949,169.24619834535872,104.16877216294448,137.88327022009597,151.90829237749423,148.64336414349057,189.00596105143944,194.4394170328925
1.234567901234568,181.25162390933824,183.03945491724852,100.73199063138436,145.392008572701,154.821535150507,149.39663418256615,186.82427556932703,193.29015027502712
1.267934601267935,182.00029874780503,195.4143357069969,97.24177759955646,152.03041197860037,157.62369656832988,150.25764346992065,184.7673170577954,192.0063291345062
1.3013013013013013,183.11408990182764,206.07459303175816,93.69282163623188,157.59456114427823,160.27853307296368,151.2260957165026,182.86905022550965,190.59054788642817
1.334668001334668,184.69014208253816,214.72397920868752,90.07981131018168,161.88053677621926,162.749801106409,152.30169463326058,181.1634397811352,189.0454008058916
1.3680347013680347,186.82560000106864,221.06624655493965,86.39743519017692,164.68441958090796,165.00125711066676,153.48414393114314,179.68445043333702,187.373482167995
1.4014014014014016,189.61760836855123,224.80514738766905,82.6403818449887,165.80229026482863,166.99665752773757,154.77314732109886,178.46604689078055,185.577386247837
1.4347681014347682,193.1633118961182,225.64443402403072,78.80333984338806,165.03022953446603,168.69975879962223,156.16840851407628,177.54219386213092,183.65970732051605
1.4681348014681348,197.5598552949016,223.2878587811796,74.8809977541461,162.1643180963043,170.0743173683215,157.66963122102393,176.94685605605338,181.62303966113075
1.5015015015015016,202.9043832760337,217.43917397627007,70.86804414603385,157.00063665682808,171.08408967583603,159.27651915289044,176.71399818121313,179.4699775447796
1.5348682015348682,209.29404055064663,207.80213192645687,66.75916758782242,149.33526592252178,171.69283216416667,160.98877602062433,176.87758494627542,177.20311524656117
1.5682349015682349,216.82597182987243,194.08048494889528,62.54905664828284,138.9642865998701,171.86430127531415,162.80610553517414,177.47158105990542,174.82504704157395
1.6016016016016017,225.59732182484333,175.9779853607397,58.23239989618621,125.68377939535736,171.56225345127916,164.7282114074885,178.52995123076846,172.33836720491658
1.6349683016349683,235.7052352466915,153.19838547914475,53.8038859003036,109.28982501546773,170.75044513406246,166.75479734851586,180.08666016752966,169.7456700116875
