Time,Left Shoulder Angle,Right Shoulder Angle,Left Elbow Angle,Right Elbow Angle,Left Hip Angle,Right Hip Angle,Left Knee Angle,Right Knee Angle
0.0,26.2366432381176,35.467905055536406,150.05174281268765,160.2901083947459,133.26623741575352,134.21060284773813,200.36368588957112,197.65875755208123
0.0333667000333667,26.818352011767747,36.21060118706989,151.07086446210346,160.6181261021427,134.02262536412582,133.70857811943745,199.4160663862945,198.3031705830409
0.0667334000667334,27.26562711955376,36.85903506556624,151.8772801014567,160.9007426326336,134.711927750793,133.27715618591674,198.5600820389245,198.87290354445147
0.1001001001001001,27.58877886718864,37.4194059690236,152.4875427315393,161.14218022031827,135.33778399817177,132.91279504713197,197.7911232762069,199.37142690858173
0.1334668001334668,27.79811756038539,37.89791317544011,152.91820535314326,161.34666109929626,135.90383352867883,132.61195270303912,197.1045805268876,199.8022111477006
0.1668335001668335,27.90395350485701,38.300755962813895,153.1858209670605,161.5184075036672,136.4137157647309,132.3710871535942,196.49584421971232,200.1687267340768
0.2002002002002002,27.91659700631653,38.6341336091431,153.306942574083,161.66164166753072,136.8710701287447,132.18665639875323,195.96030478342684,200.47444413997903
0.2335669002335669,27.84635837047692,38.90424539242586,153.2981231750027,161.78058582498642,137.27953604313683,132.05511843847214,195.49335264677697,200.7228338376763
0.2669336002669336,27.7035479030512,39.117290590660325,153.1759157706116,161.8794622101339,137.64275293032406,131.97293127270694,195.0903782385085,200.91736629943728
0.3003003003003003,27.49847590975237,39.279468481844624,152.95687336170158,161.96249305707283,137.96436021272308,131.93655290141362,194.7467719873673,201.06151199753089
0.333667000333667,27.24145269629344,39.39697834397689,152.65754894906468,162.03390059990278,138.24799731275056,131.94244132454816,194.45792432209907,201.1587414042258
0.3670337003670337,26.942788568387403,39.47601945505527,152.2944955334928,162.0979070727234,138.49730365282323,131.98705454206657,194.2192256714497,201.2125249917909
0.4004004004004004,26.612793831747272,39.52279109307789,151.88426611577796,162.15873470963425,138.71591865535777,132.0668505539248,194.02606646416484,201.226333232495
0.4337671004337671,26.261778792086048,39.543492536042905,151.44341369671207,162.220605744735,138.90748174277087,132.17828736007888,193.87383712899043,201.2036365986069
0.4671338004671338,25.90005375511673,39.54432306194844,150.98849127708706,162.28774241212523,139.07563233747925,132.31782296048476,193.7579280946722,201.1479055623954
0.5005005005005005,25.53792902655233,39.53148194879264,150.53605185769496,162.36436694590458,139.2240098618996,132.4819153550985,193.673729789956,201.06261059612933
0.5338672005338673,25.18571491210585,39.51116847457364,150.1026484393277,162.45470158017264,139.35625373844857,132.66702254387593,193.6166326435876,200.95122217207748
0.5672339005672339,24.85372171749047,39.48958191728986,149.7048340227784,162.5629685490303,139.476003389544,132.86960252677426,193.58202708431435,200.81721076251029
0.6006006006006006,24.424367234985336,39.63063852791306,149.22925391699235,162.8283508041633,139.68934550337366,133.0720152858078,193.45794789787143,200.6593991125236
0.6339673006339673,24.07612238382412,39.90745567214154,148.88292158521267,163.3354616925041,139.95726991384552,133.31322472984277,193.3346177721928,200.44338104588311
0.6673340006673341,23.88565028771956,40.1545403453516,148.78502112785833,163.81308171141507,140.23142529481527,133.56697959494923,193.2279605208672,200.2219622582741
0.7007007007007008,23.823800458627595,40.36616733157001,148.88806098815078,164.30945962579997,140.45610162098183,133.82004756773452,193.16292055378355,200.0038637439892
0.7340674007340674,23.93687787297421,40.54257790547435,149.2493086100473,164.7591196248239,140.6356495868988,134.0507902188281,193.14238080105795,199.79968347141136
0.7674341007674341,24.261618695901824,40.81753117515576,149.906409210493,165.2945092467719,140.77083492840308,134.19001499702264,193.1572713663985,199.57732564456472
0.8008008008008008,24.78360009290088,41.07096379591383,150.8145319046374,165.76029885136805,140.80969296606546,134.29121760906392,193.22144696940924,199.3581324807525
0.8341675008341676,25.50021164021575,41.61620867162739,151.9430383569594,166.6841210800313,140.75831013933916,134.33659331536663,193.2391989692846,199.33042501121344
0.8675342008675342,26.23710776930157,41.990432782081385,153.13850505852193,167.297928813861,140.7538634212253,134.39256796934723,193.2286876911384,199.32084371485124
0.9009009009009008,27.024365396093856,42.21804303694726,154.40312072404984,167.69520412204244,140.82149324610157,134.45601106132446,193.18215309793243,199.32756782451048
0.9342676009342676,27.84606455904405,42.2691100499768,155.71425174243677,167.81041006689918,140.87138995702188,134.55280619357555,193.1716647014184,199.3450506491528
0.9676343009676344,28.62257273608088,42.068498733064494,156.769801981799,167.56694416086106,140.90995698347228,134.69529216751403,193.16729316013647,199.3463417826601
1.001001001001001,29.34876004171069,41.68257001396991,157.77517230246713,167.0385753168061,140.93318409946974,134.8744425584119,193.17644108550093,199.3328349186707
1.0343677010343677,30.11044639413966,41.3572878975611,158.79987264392696,166.32641997917315,140.86744305775898,135.01446175401864,193.28636170413708,199.3742134029688
1.0677344010677343,30.84634343352047,40.9051179467567,159.87491564412997,165.40051649409722,140.75626521689088,135.1562462651827,193.44270166626976,199.41302563378585
1.1011011011011012,31.81635875157201,40.4963722220313,160.94112172137764,164.8972728257932,140.5475981917939,135.2492221097106,193.61779177314065,199.4646984175192
1.1344678011344678,32.76470231172829,39.89364296212166,162.25516250494096,164.04865004660664,140.25944453606238,135.28745198405414,193.8231289548352,199.55114567052053
1.1678345011678346,33.73952266678282,39.13878240062516,162.93607572955415,163.04316529349558,140.12887391667343,135.45652532551964,193.9749163018707,199.5852381137012
1.2012012012012012,34.53370645512863,38.154193437519126,163.8656033115917,161.6867510346286,140.06386966893777,135.74355065291022,194.1200280905976,199.5584258892057
1.234567901234568,35.39412953225989,36.95663973911933,165.00208547420414,159.84261322945753,140.02985516111207,136.15923468139326,194.3013063927665,199.48013441476084
1.267934601267935,35.98404589645471,35.17085893136481,166.47034748537783,159.63000168156836,140.03185958883583,136.69165285482242,194.4885197066324,199.3468320950798
1.3013013013013013,36.20459999144958,32.80031459836121,167.33527024514356,158.23962909326414,140.04403074976346,137.2885181303663,194.6477509364185,199.14944104989144
1.334668001334668,36.03706199931784,30.462657659645654,168.46978473892162,156.2876604680878,139.9593147996693,137.93657482530202,194.88328873578777,198.91603912023712
1.3680347013680347,35.666953964350625,28.91417890862958,173.8164806687223,153.45439645472018,139.9025903136777,138.63054331006214,195.13975277372768,198.6777932146781
1.4014014014014016,34.90894756259532,27.46163413226941,178.22277060593882,150.2652692211045,139.85005539172747,139.35692218371625,195.4386605366516,198.4402495917622
1.4347681014347682,34.101012774364854,25.617480305274505,182.24010812153463,145.25155675936404,139.7692669004959,140.08693665889808,195.8058142825853,198.20882486641383
1.4681348014681348,33.14159624198645,23.658694616611417,185.39281910546515,140.0857215107126,139.77006769206562,140.856643724497,196.12475027594672,197.97509865467865
1.5015015015015016,31.58930231002383,21.347207522116307,187.8049384492153,134.86121912297827,139.86272658522316,141.642378700645,196.3763564985138,197.7621859649703
1.5348682015348682,29.888365125410697,19.04804915048642,189.1377027492006,130.21525142140203,139.95906382661963,142.42957690763484,196.6195026828779,197.54390547783595
1.5682349015682349,28.281690799395225,17.222539682385143,190.1009742713708,128.21537052893865,140.07182690350857,143.23024943340218,196.8357571556189,197.2922599942684
1.6016016016016017,26.777483488774227,15.768908258027912,190.5116673490412,126.0210337938156,140.1243838415987,144.03697502134762,197.0773660565972,197.01474073547607
1.6349683016349683,25.12970094057244,14.578603272460574,189.9957905284376,123.24272514134198,140.094345051523,144.807442868082,197.39613860956845,196.75520967929972
1.6683350016683351,23.63416508335933,13.859993694104652,188.609677699964,120.00903739374986,140.14903023569954,145.56079306962636,197.6227187339331,196.48128346000485
1.7017017017017018,21.92294215380067,12.057664356173976,186.6527883092479,117.18368162442604,140.1610077887549,146.27653220790583,197.86803232705665,196.2068823098257
1.7350684017350684,19.213545686093624,10.433188779733724,183.0670263396813,114.8414919818787,140.08414116768813,146.93964234289575,198.1554115327852,195.9526008666227
1.7684351017684352,8.07838486771166,9.11097141650132,178.63289322760664,109.51012439585936,139.94390273403874,147.55017826660307,198.49495001173764,195.71692219743173
1.8018018018018016,0.2020426275270379,8.086273669218052,174.4566357440143,106.47548454091226,139.64879331879644,148.05069080307678,198.9214442396225,195.5703467337688
1.8351685018351689,0.2020426275270379,7.651484765224809,170.06185214645686,103.76774285344273,139.2480044248587,148.41517788621348,199.41464663126848,195.49083863893904
1.8685352018685355,0.2020426275270379,7.789868988452133,166.03263270826966,101.86620835156592,138.71722914492793,148.63632477191092,199.97461670417795,195.4806224604443
1.901901901901902,0.2020426275270379,8.476937352362837,162.47160690602217,100.868570200183,138.07206245760483,148.71666684616736,200.5842356106952,195.54602840363853
1.9352686019352687,0.2020426275270379,9.522609729971466,159.1554310779427,99.6845283541846,137.35686328288662,148.74019394910653,201.204559459652,195.6749054306928
1.968635301968636,-4.1234786831077495,10.88506144925564,156.06956472744122,98.4348170020198,136.56739174414267,148.66153300412063,201.8220950026785,195.86479812468727
2.002002002002002,-5.588244234143409,12.100711917485777,153.07014407319258,96.47155702959328,135.8158954812616,148.53275670201333,202.47408818251915,196.09741737844192
2.035368702035369,-4.400479548999004,13.697587503495091,150.25354773873758,94.78328366367433,135.02554690091046,148.31651275343876,203.1322497855492,196.34790318453136
2.0687354020687354,-0.8693771330801425,15.664345054610626,147.67092238509878,94.0326314902316,134.13868210899767,148.0220280421189,203.8440510841233,196.6321439972437
2.1021021021021022,4.920710415406609,18.020397640328834,145.33775199481008,93.85297933744867,133.19541852814916,147.63202902666302,204.5697091475599,196.9487642749159
2.135468802135469,4.920710415406609,20.818031188129343,143.56618995142048,93.99520821820737,132.1769228133594,147.13321813273132,205.34580882940736,197.317270893272
2.1688355021688355,4.920710415406609,23.97358715990332,142.2160014862265,94.6683372698673,131.1228204126778,146.52599134003626,206.129706717428,197.73789624843292
2.2022022022022023,4.920710415406609,27.14749367088148,141.27389843699265,95.61438227768924,130.12437375296284,145.91007589790712,206.8232576452416,198.13718236405245
2.235568902235569,4.920710415406609,30.37674201004421,140.73116105071023,96.80429338829823,129.19074181480093,145.29134085823213,207.4319710823248,198.5238443356796
2.2689356022689355,4.920710415406609,33.391286046261406,140.75756727338316,97.45665744304772,128.4271184064377,144.75302908987453,207.95533881293903,198.87194007097105
2.3023023023023024,4.920710415406609,36.32822510651455,141.04762108290785,98.19027105408183,127.87630110318784,144.39921047664888,208.3679840251762,199.11098896790924
2.335669002335669,4.920710415406609,39.07193151532971,142.7108392644918,98.76152448203156,127.3285974611992,144.09389978227156,208.7610529750775,199.30707375892504
2.369035702369036,4.920710415406609,41.52273204695707,145.00624351432572,99.24899289211996,126.77634779897824,143.8233451140398,209.13406480811707,199.4582219802417
2.4024024024024024,4.920710415406609,43.75792850239084,148.25617030054443,100.01547659948416,126.28648967731942,143.5822918109947,209.4560323038785,199.572865686402
2.4357691024357693,4.920710415406609,46.26894330632544,152.25998834875136,98.48634209316948,125.84947942113388,143.336994337177,209.77175418386025,199.68595672182715
2.469135802469136,4.920710415406609,49.35470014711165,158.22857558082757,97.04743815164952,125.47740242108522,143.10273275507663,210.15132868093616,199.8532547768725
2.5025025025025025,4.920710415406609,52.55742769471869,165.52087668525496,95.27313800216702,125.26361887568471,142.8748987707911,210.4735240496,200.0611410975366
2.5358692025358693,4.920710415406609,54.8464804216516,169.00818984130208,93.55295042045846,125.09711291202008,142.65624354364488,210.79114159799337,200.28706650940472
2.569235902569236,4.920710415406609,56.57634275099625,172.63727927745586,91.4801315383941,125.01871243569406,142.45627805776846,211.1004583307462,200.53218911049564
2.6026026026026026,4.920710415406609,58.20213834429175,175.67038343361156,90.99946266372277,124.99849355305368,142.2956841098699,211.37141548721692,200.78809631963733
2.6359693026359694,4.920710415406609,59.61206902896624,178.31862217598604,91.15438990240122,125.06339366006486,142.1786924997803,211.56040582954404,201.03661501784265
2.669336002669336,12.600277688638478,61.18673886327213,180.37113952665865,92.09807466052276,125.14576125687552,142.1112731265274,211.7283736695296,201.24905514238608
2.702702702702702,22.162207256416536,62.63570148857971,182.2069155723921,93.18964975691708,125.25966373553428,142.08467780824088,211.85344029817944,201.44061931382325
2.736069402736069,33.304582493379364,63.49422809681813,183.0197059844228,91.63781561526314,125.39766224481956,142.09023281845597,211.96030680549435,201.61526874497247
2.7694361027694363,45.81983100532488,63.84074391868775,182.99869159395132,89.74513766975842,125.55107693386988,142.08056906449215,212.03775223631345,201.7959264920653
2.802802802802803,59.698939270708536,63.67687263696516,182.38871525955463,87.99767619323369,125.72878876650356,142.10195354189912,212.08626836751395,201.95629823479933
2.836169502836169,74.82167367966507,62.67688373209586,181.3430306873538,86.58655186338781,125.83409720914617,142.1419624897307,212.2353466828738,202.12595055577995
2.8695362028695364,90.86480746607243,62.63819734328258,179.5490581635814,84.71437984919652,125.96761813952372,142.20633550126627,212.42700031587887,202.2727044646753
2.902902902902903,107.6552230926325,62.70537937120341,178.7268836280364,82.08301581430591,126.126777006627,142.32106150765952,212.6144890366757,202.36191421259647
2.9362696029362696,124.60374949663164,62.92410846995552,178.58290404794786,83.0623457094821,126.28303865798986,142.4319223311788,212.80664612880892,202.4459197417836
2.9696363029696364,141.8162559049582,63.26113896095613,178.23667840602872,82.66899015930399,126.4511899164544,142.5903612925419,212.988281565615,202.49682604797528
3.003003003003004,158.84138012937956,63.55906121051871,178.23962934617484,82.6275646113461,126.58618459147417,142.76913235988533,213.1806272967008,202.54748839564783
3.0363697030363697,175.68246481494438,55.63214390388283,178.23130462357068,82.21863628180222,126.72481592414022,142.99267169717456,213.3683866580921,202.57856936692409
3.0697364030697365,191.7163719805543,50.2252428097413,178.15170605504804,81.17902912548305,126.86630985507112,143.20447150406804,213.5322970395752,202.6119284362463
3.103103103103104,206.9650613504056,47.180078157230994,177.9282122251234,80.42633213593068,126.99940606597,143.43258648724958,213.67622417544297,202.55357654346267
3.1364698031364697,221.36383852880024,46.48484230075771,177.6390857278563,80.20759449358363,127.10923581643172,143.62840411661358,213.8352172512577,202.5165157516525
3.169836503169837,234.93070914659137,48.03085249539172,177.3332202195305,80.78173557525508,127.19114177834685,143.7650134991749,214.02890059021195,202.5911635055101
3.2032032032032034,247.3611326319473,59.75398153795511,177.01180844679368,81.88413431259823,127.24163449794553,143.8505449958488,214.2546457445,202.7308608341524
3.2365699032365702,258.6618173087993,70.73210403930945,176.90431537436197,82.60199621683208,127.23257943638528,143.9578484622525,214.496719388356,202.71795919097093
3.2699366032699366,268.4146642552941,80.96022273256965,176.63753741448727,83.18206665757171,127.17719769066883,144.03880211416524,214.7599835491695,202.7375307189621
3.3033033033033035,276.37419088580367,90.35675633359864,176.21420888419573,83.77277874937327,127.15837583979976,144.10318425902165,215.0491637120477,202.76771702016885
3.3366700033366703,282.9033428899531,98.91432629891324,175.66942497669862,84.18020812551701,127.10786115382837,144.13800364889664,215.3612398849707,202.859135647336
3.3700367033700367,287.66109426717367,106.76783436954126,175.13708196289434,84.83577641833976,126.96751648528196,144.09920481378578,215.74117523433392,203.0274673348052
3.4034034034034035,290.13569641261705,113.79513093977862,174.61372284587708,85.46828865969684,126.75956322204252,143.9965030713254,216.13579058264875,203.28764659103308
3.4367701034367704,290.17144187666486,120.23376173336668,175.21758159587645,86.85015860717678,126.35172926599326,143.83170314132158,216.60365562487425,203.64294263490217
3.4701368034701368,287.8003438533033,125.8763731482332,175.94006166133724,87.76515770966441,125.8701369925991,143.64566301868328,217.0844845937268,204.0763918453632
3.503503503503504,282.5646113388877,130.62773836694495,176.8156740259237,88.32783240810754,125.31557731804756,143.38990132805793,217.63953849694087,204.6363342261464
3.5368702035368704,274.6513109913155,134.44985649729188,177.19560251549325,88.658836576605,124.79301381829808,143.08165182965487,218.1590151177417,205.2987613215664
3.5702369035702373,265.3036396185757,137.83576429481894,173.050682440787,87.51802775477559,124.22587938744694,142.6120515832868,218.761287944492,206.24586473203604
3.603603603603604,265.0094751799228,140.16898587112962,169.6393702786017,86.61768611315514,123.72234952612811,142.08795588291673,219.25769570580584,207.3003253443445
3.6369703036369705,264.94667994078503,141.84904121599703,164.03046245227355,84.32739088444985,123.07555016902144,141.5448303580454,219.66318657055805,208.3817929406081
3.670337003670337,264.5098038802607,141.9416301834083,165.3293815276409,82.38663219243438,122.52268190667348,141.0321263432329,219.92862228854852,209.4366207355253
3.703703703703704,264.1608300521113,140.9148637088177,163.27948726645175,79.68010438193362,122.1136548892267,140.65068125091017,220.07761425448348,210.4763083307128
3.737070403737071,263.83091363811644,138.5975751155862,161.24967226483756,77.69371155901743,121.93050284722268,140.3135149604282,219.98108697211364,211.4389080479733
3.770437103770437,263.6093241157764,134.06918230386847,160.31596309509834,74.97303454384434,122.16848610836637,139.86050349537138,219.42856207590643,212.5923143580916
3.803803803803804,263.4254379095687,128.31606467508723,159.0247781806642,72.78668516742944,122.561457403025,139.46934990751245,218.77278035694223,213.5723728766432
3.8371705038371706,263.2991730678842,121.67693059337024,157.82761882542204,69.33568440859872,123.15991888972891,139.10064561040065,218.07418372871047,214.3745333239249
3.8705372038705375,263.1426356945745,114.97429318985486,156.60671181390717,68.3393368677021,123.71356996368613,138.7778217010185,217.3888677090618,215.027978096228
3.903903903903904,262.8653850576657,107.34116397284824,155.02845734449306,70.69279643266677,124.26693707311824,138.59021423822517,216.6118005856976,215.5200852800328
3.937270603937271,262.7420678699318,98.7552309311366,153.54198209360862,74.02135137410748,124.92287923322316,138.54844095697015,215.69387401709807,215.8060423354948
