Time,Left Shoulder Angle,Right Shoulder Angle,Left Elbow Angle,Right Elbow Angle,Left Hip Angle,Right Hip Angle,Left Knee Angle,Right Knee Angle
0.0,18.22170520555813,27.244594164538324,158.95777351538018,155.37115519700427,138.1975188980546,129.87746526070228,198.71269865712284,206.8712324540329
0.0333667000333667,19.16266385739325,27.549138527739515,159.5815609117096,154.83513861855988,139.18498629946546,129.78340284400602,198.2331648622268,206.88370890076973
0.0667334000667334,19.955501510088705,27.79724019963206,160.09606220392158,154.39997499689974,140.06652335790295,129.72097847850733,197.80395834859868,206.89190811406192
0.1001001001001001,20.609837415630945,27.991782246998174,160.50953923766087,154.0592563391024,140.84755032173305,129.68820842494506,197.4223682902952,206.89615192824783
0.1334668001334668,21.13529082600645,28.13564773662008,160.83025385857232,153.8065746522464,141.53348743932187,129.68310894405798,197.0856838613728,206.89676217766592
0.1668335001668335,21.5414809932017,28.23171973527997,161.06646791230065,153.63552194341037,142.1297549590354,129.70369629658492,196.79119423588824,206.8940606966545
0.2002002002002002,21.83802716920316,28.282881309760093,161.22644324449064,153.5396902196728,142.64177312923974,129.74798674326465,196.53618858789807,206.88836931955188
0.2335669002335669,22.0345486059973,28.29201552684264,161.3184417007871,153.51267148811223,143.07496219830094,129.81399654483602,196.3179560914591,206.8800098806965
0.2669336002669336,22.1406645555706,28.26200545330984,161.3507251268348,153.54805775580732,143.434742414585,129.8997419620378,196.13378592062776,206.8693042144268
0.3003003003003003,22.165994269909525,28.195734155943896,161.33155536827852,153.63944102983655,143.726534026458,130.0032392556088,195.98096724946072,206.856574155081
0.333667000333667,22.12015700100056,28.09608470152704,161.26919427076302,153.7804133172785,143.95575728228602,130.12250468628784,195.85678925201452,206.8421415369976
0.3670337003670337,22.01277200083016,27.96594015684147,161.1719036799331,153.9645666252117,144.1278324304351,130.25555451481372,195.758541102346,206.82632819451484
0.4004004004004004,21.853458521384805,27.80818358866941,161.04794544143354,154.18549296071475,144.24817971927123,130.4004050019252,195.6835119745116,206.8094559619712
0.4337671004337671,21.65183581465097,27.625698063793084,160.9055814009091,154.4367843308662,144.32221939716052,130.55507240836118,195.628991042568,206.79184667370504
0.4671338004671338,21.417523132615127,27.42136664899469,160.75307340400462,154.71203274274464,144.355371712469,130.71757299486038,195.5922674805718,206.77382216405468
0.5005005005005005,21.160139727263743,27.198072411056465,160.5986832963648,155.00483020342855,144.35305691356274,130.88592302216162,195.57063046257963,206.7557042673585
0.5338672005338673,20.889304850583297,26.95869841676061,160.45067292363447,155.30876871999655,144.32069524880777,131.05813875100372,195.56136916264813,206.73781481795496
0.5672339005672339,20.614637754560423,26.706127732889566,160.31730413145974,155.61744029952845,144.26370696657145,131.2322364421265,195.5617727548356,206.72047565018391
0.6006006006006006,20.38585053603396,26.460702843700894,160.59034440251142,155.96060191948376,144.20927893721077,131.36272026866402,195.50784431111728,206.74542317348133
0.6339673006339673,20.20529135768776,26.25005989185563,160.6556270769252,156.1876048798976,144.202223282778,131.51241246110962,195.45943427743825,206.74802731208283
0.6673340006673341,20.06706226599548,26.06146107741296,160.70238042141068,156.36167658000437,144.19032541874944,131.66358199246753,195.4410540998388,206.7271089132094
0.7007007007007008,19.996390475471472,25.91148161360473,160.7570721472292,156.55068274443386,144.16274103728972,131.807451622623,195.4523216982884,206.6975720183367
0.7340674007340674,20.01236163700688,25.788273418038912,160.91362341974371,156.7919148049439,144.13515056565285,131.92471113637544,195.4697447151608,206.66560255903104
0.7674341007674341,20.10612520812744,26.01722571855676,161.1487039089729,157.54847307635853,144.11022502640645,131.97636591499617,195.43045591408708,206.67936515004607
0.8008008008008008,20.240710787096155,26.159212608714675,161.43384539964447,158.1487165744445,144.10305369014606,132.01726399606673,195.35282492792044,206.74713380678511
0.8341675008341676,20.415353410556563,26.21257782568998,161.7580027157521,158.41477011810002,144.09640394895357,132.03944680696677,195.28810500674572,206.8324516016896
0.8675342008675342,20.63369433377234,26.04231760024496,162.09440273233528,158.58869350383367,144.05323475718333,132.0833513111864,195.25709246146903,206.8911642054597
0.9009009009009008,20.880494063131685,25.69531630946398,162.47865105097745,158.3449377079675,144.02621581070744,132.14563814743704,195.1987920549353,206.8910309135167
0.9342676009342676,21.13388880385242,25.04568332073012,162.83791291785175,157.78264055755554,143.99279010347155,132.19916641013728,195.11326634022103,206.8591136749316
0.9676343009676344,21.406127261793024,24.254723179417244,163.22929822059297,157.0938305498006,143.92060190384686,132.28668347536092,195.1022262184308,206.78475052694608
1.001001001001001,21.688490846742248,23.35254467324217,163.64178633897404,156.34575578242,143.81993308462057,132.4405764849913,195.1497319165652,206.6779589059673
1.0343677010343677,21.99218906215933,22.356758414403576,164.09627374576044,155.57204259840384,143.68145327464825,132.63722879289296,195.2609190651224,206.55173251632505
1.0677344010677343,22.302799640120288,21.325928675222443,164.59135833481687,154.78671821609157,143.5626727159008,132.88281188657842,195.329329262626,206.3739011252609
1.1011011011011012,22.546144362691148,20.27540214411397,164.97098071126726,153.86649249422885,143.4043511858247,133.1626437913302,195.45475765534732,206.14855658407075
1.1344678011344678,22.75170113166597,19.206049356865385,165.35335680914716,152.80377139581282,143.26411559940706,133.47917574286478,195.63724583894532,205.88105901381832
1.1678345011678346,23.026289171971985,18.089253991765663,165.91434412826823,151.6358130567746,143.1206565448904,133.83915083019423,195.8812499360592,205.5640559200799
1.2012012012012012,23.31252561471448,16.956628888103726,166.57742942021653,150.39857885933466,142.98894338982953,134.24538016371818,196.16282627869307,205.18927303067983
1.234567901234568,23.58170232692348,15.797438154241082,167.12497192669792,149.1338296186342,142.8382642656164,134.7048517884295,196.49171905274264,204.77469840950124
1.267934601267935,23.84528157169715,14.644286716503055,167.76639754222646,147.73286542814455,142.54748648270578,135.17964211780526,196.9539745851982,204.3559479517936
1.3013013013013013,24.06110598700748,13.482856341626633,168.3708006048996,146.391006966644,142.2433661796116,135.70752662927936,197.4448414453704,203.8949659370392
1.334668001334668,24.20263958908104,12.369325303982492,168.88402100146163,145.1790069828662,141.9455499532684,136.2724108245011,197.9486038797424,203.4311830051291
1.3680347013680347,24.20443039801133,11.3187843818083,169.05688140611858,144.0150483893603,141.65340736703325,136.88411794280006,198.45645942251016,202.93997788055907
1.4014014014014016,24.10565602689393,10.40386835148793,169.20459864995985,143.08879420172605,141.3614571674643,137.53232223302768,198.9574064162449,202.43291368511683
1.4347681014347682,24.00951621725577,9.443840850745335,169.3670286474691,142.16243014060578,141.0664267778698,138.2238596764718,199.4441437029217,201.9036665745253
1.4681348014681348,23.83773632912098,8.432309087678647,169.6621376932306,141.10400309650754,140.7932940995286,138.94721630797838,199.90674761405265,201.3715953083237
1.5015015015015016,23.64760741662348,7.591179524798014,170.20634556780325,140.29588514525153,140.54591106737044,139.69976846949064,200.3450215857493,200.83308607669943
1.5348682015348682,23.405930539245794,6.815809165307282,170.73564366869567,139.53268298621077,140.32078852500896,140.4750126763406,200.750061146103,200.2917147603908
1.5682349015682349,23.05169592242841,6.073174906377788,171.10615640367757,138.8052604354354,140.11679289263847,141.25917934555807,201.12344867809608,199.77006110805945
1.6016016016016017,22.61430547273672,5.601895722327555,171.49704638633276,138.44926099763407,139.96351637351222,142.03460275792202,201.4324988428864,199.2711926243252
1.6349683016349683,22.114981426795527,5.393853339947253,172.07577770439448,138.47478935498455,139.86735340902487,142.805650464658,201.66936651351028,198.80485935650768
1.6683350016683351,21.6047863868038,5.393853339947253,172.8945978093033,139.18952778543357,139.8315466856153,143.57529219579794,201.8634011081252,198.363218493982
1.7017017017017018,20.991211259408978,5.393853339947253,173.85162613190727,140.42537101666218,139.80364391030878,144.32478978979353,202.03829296246911,197.94736015852
1.7350684017350684,20.191473014734253,5.393853339947253,174.79323007389547,144.74803090860715,139.76497719079475,145.05020829699686,202.20484942281888,197.54979780670485
1.7684351017684352,19.273726865753066,5.393853339947253,174.38078533114555,148.76340332030748,139.7468822343382,145.76758781159572,202.33951344176543,197.1637719029777
1.8018018018018016,18.319628106528864,5.393853339947253,179.7858386451749,151.92043801376562,139.76770571316283,146.46665508321064,202.4160696009421,196.8073321388779
1.8351685018351689,17.307897422666226,5.393853339947253,181.78310372255584,154.19686399177797,139.8127382802744,147.1288224799458,202.44210367290856,196.487900540388
1.8685352018685355,16.202530675737634,5.393853339947253,184.05703817396628,155.54269845320485,139.89462018130249,147.75360610388535,202.4120402752108,196.20794961969293
1.901901901901902,15.080046490599637,5.393853339947253,187.66453396748705,156.21094044757334,139.97758115871838,148.3420818636657,202.33638251184905,195.9796606419364
1.9352686019352687,13.976922149715406,5.393853339947253,186.11577875629555,155.5547753442796,140.0887697208068,148.93710491745748,202.2673989410142,195.7619248985052
1.968635301968636,12.964052107808886,5.393853339947253,184.46389639114017,154.04927237682355,140.16064850271533,149.5049963814724,202.21289017672987,195.53757605071888
2.002002002002002,12.215326046854626,5.393853339947253,181.60383274760312,151.49019465592826,140.25049936543545,150.05896215177154,202.139057752676,195.3139205680732
2.035368702035369,11.48727875622966,5.393853339947253,178.03844652868196,148.21532451845198,140.3732638960894,150.55754398846648,202.0341988608673,195.1225814208773
2.0687354020687354,10.735653146344104,5.393853339947253,174.01859324871575,144.69056493382612,140.47946142684484,151.0245058559071,201.97113002927628,194.9767907126552
2.1021021021021022,9.970097171598557,5.393853339947253,169.91581032194085,139.9168430482088,140.57749999793563,151.5081349935296,201.99440137929065,194.84307335327068
2.135468802135469,9.1367960639801,5.393853339947253,165.57964696704173,136.9445582651477,140.68324460711858,151.97358088562987,202.02293074769463,194.73843836206763
2.1688355021688355,8.080733486967524,5.393853339947253,160.823284732133,133.40605157345317,140.79436930581528,152.3945574126072,202.0700772710358,194.64109909247168
2.2022022022022023,6.6464769086102224,5.393853339947253,155.34232755196734,129.46111962047914,140.93555694039648,152.80204934400476,202.1215276104745,194.51876057068063
2.235568902235569,5.878625487276315,5.393853339947253,150.2175740499946,125.27245468253462,141.08805330042784,153.1533043689222,202.295288393054,194.4072606596304
2.2689356022689355,5.5303027045920965,5.393853339947253,145.46821008721307,120.78315828544648,141.25621703825112,153.48377549810883,202.5232152991575,194.2884434620605
2.3023023023023024,5.389820703642873,5.393853339947253,140.96201202180376,116.25907840809056,141.37803896380666,153.80394412477415,202.8130293156069,194.15807728425253
2.335669002335669,5.389820703642873,5.393853339947253,136.41629687365656,112.82496838425392,141.49460179808392,154.09928800273218,203.15641136624745,194.0408365922892
2.369035702369036,5.389820703642873,5.393853339947253,131.6598075819463,108.87475892921904,141.57372447504412,154.3243186504496,203.5617973314706,193.9537737137993
2.4024024024024024,5.389820703642873,5.393853339947253,127.09186030384107,104.207414018807,141.5979310701063,154.47796756839094,204.0305116459352,193.88014888525464
2.4357691024357693,5.389820703642873,5.393853339947253,122.33847095040905,98.88822341216712,141.69149905697617,154.60023438059355,204.4693911505717,193.78253623414497
2.469135802469136,5.389820703642873,5.393853339947253,117.49518151674484,92.98990100415776,141.78625434812471,154.67892576968964,204.9191406262813,193.6977408312134
2.5025025025025025,5.389820703642873,5.393853339947253,112.73394827032386,86.45443716524231,141.88047845872853,154.72744388315672,205.3693667612756,193.59686875294693
2.5358692025358693,5.389820703642873,5.393853339947253,108.1738531943202,79.69508084363154,141.94598553521547,154.7344952972635,205.82495713209133,193.49854626886565
2.569235902569236,5.389820703642873,5.393853339947253,104.03681065686813,73.01424107515898,141.9876997591584,154.7098051810412,206.28291692634303,193.3991151813264
2.6026026026026026,5.389820703642873,5.393853339947253,100.60125840167048,66.63297894550723,142.02553535761126,154.6553225915712,206.7293831660524,193.31167383986013
2.6359693026359694,5.389820703642873,5.393853339947253,97.71672751515688,60.85141662793421,142.05817980932554,154.57925560784105,207.15279683449648,193.2231804132389
2.669336002669336,5.389820703642873,5.393853339947253,95.3348831230883,55.56564916203123,142.06969074023854,154.47811015450444,207.5575770248326,193.14854770530823
2.702702702702702,5.389820703642873,5.393853339947253,93.8092118029112,51.16365758893782,142.0625433462893,154.34838229137793,207.94037127476184,193.09793398670243
2.736069402736069,5.389820703642873,5.393853339947253,93.18878621781694,47.97864048160504,142.05599293363557,154.19445801199018,208.28445643325892,193.0665978493745
2.7694361027694363,5.389820703642873,5.393853339947253,93.23155747980164,45.70165219865312,142.02734125969835,154.04081534834168,208.6034173811225,193.05489174099804
2.802802802802803,5.389820703642873,5.393853339947253,94.1301724776038,44.606347163304406,141.98698185311034,153.88363746433782,208.90143813979407,193.04388852991627
2.836169502836169,5.389820703642873,5.393853339947253,95.819027218066,44.442607633135744,141.92104810865175,153.7219032542048,209.15482556063372,193.0393513535888
2.8695362028695364,5.389820703642873,5.393853339947253,98.44834065749149,45.08273741240043,141.84213168115403,153.56304388111127,209.37966370366,193.0331318086744
2.902902902902903,5.389820703642873,5.393853339947253,102.14103033351748,42.9249106403504,141.774026803773,153.40825780059453,209.56033427386308,193.04001407087705
2.9362696029362696,5.389820703642873,5.393853339947253,108.6931049368188,40.390428822125465,141.70018550848843,153.25854799866084,209.71972607990207,193.0443770027714
2.9696363029696364,5.389820703642873,5.393853339947253,109.5113949614126,38.07208054937861,141.60351417880744,153.10953918243248,209.86588370807303,193.05397964576252
3.003003003003004,5.389820703642873,5.393853339947253,112.66355245216585,35.77462322211893,141.48779904475552,152.96559987527505,209.99040524064696,193.07665128315145
3.0363697030363697,5.389820703642873,5.393853339947253,114.75154253391312,33.97930368869821,141.340645683519,152.81334470884366,210.08821319449507,193.124046450832
3.0697364030697365,5.389820703642873,5.393853339947253,113.6121796741912,32.442246359215304,141.2127441891925,152.66363299193355,210.1578449092015,193.1870419625537
3.103103103103104,5.389820703642873,5.393853339947253,116.00227691258706,31.199763628454363,141.09827793352952,152.5203610346422,210.19670311237027,193.25659937899928
3.1364698031364697,5.389820703642873,5.393853339947253,117.84727811181384,30.32670973574933,141.04189837961863,152.3846720868506,210.2227173426957,193.33089432050733
3.169836503169837,5.389820703642873,5.393853339947253,120.2906017363048,30.41049376271106,141.00096910657564,152.27086719050308,210.2399751511388,193.41307450533063
3.2032032032032034,5.389820703642873,5.393853339947253,123.11981232954602,31.037400574051027,140.98723961839454,152.18171610486635,210.24619931403208,193.49732700971208
3.2365699032365702,5.389820703642873,5.393853339947253,126.08735752498691,32.21509219072271,141.00059799403095,152.12037556054372,210.25045800195227,193.58160948749105
3.2699366032699366,5.389820703642873,5.393853339947253,128.9144896509217,35.42027535547505,141.04142886747084,152.08461872182812,210.24591734945648,193.665910098732
3.3033033033033035,5.389820703642873,5.393853339947253,131.6594416495338,37.42449183630927,141.11724655344705,152.07630115752607,210.22098532922456,193.74496818890475
3.3366700033366703,5.389820703642873,5.393853339947253,134.55269825229396,40.07744496494003,141.23288733105787,152.0889017650172,210.1866656026066,193.82216469000133
3.3700367033700367,5.389820703642873,5.393853339947253,138.12725396728737,43.18825004901552,141.35440241630127,152.10823125270986,210.1766495387514,193.89472650495435
3.4034034034034035,5.389820703642873,5.393853339947253,141.34542584489773,46.47514925912261,141.4464712774561,152.16041516280313,210.19349002509685,193.9602309863895
3.4367701034367704,5.389820703642873,5.393853339947253,144.1757681469444,50.067431101940016,141.5408165412517,152.21832772793297,210.2261764813634,194.03412305679467
3.4701368034701368,5.389820703642873,5.393853339947253,146.52951717615812,53.746941131530825,141.63509454475346,152.26160323225534,210.28292508040573,194.10735490349035
3.503503503503504,5.389820703642873,5.393853339947253,148.46547709651466,55.75862292913703,141.716497502553,152.26751432575634,210.3395693089161,194.185643583029
3.5368702035368704,5.389820703642873,5.393853339947253,150.1169661365148,57.13332299429061,141.7956780764573,152.27091257913634,210.38468499756647,194.26818837802864
3.5702369035702373,5.389820703642873,5.393853339947253,151.29054054431347,58.13380062788431,141.85004388669273,152.2673516965382,210.4638608962398,194.36140424922016
3.603603603603604,5.389820703642873,5.393853339947253,152.1734814411156,58.98111493541836,141.87589620602654,152.25549640562608,210.56900900413265,194.4589102566357
3.6369703036369705,5.389820703642873,5.393853339947253,152.78683354834635,59.76902174317669,141.85402776562273,152.25442071447134,210.7389487459416,194.5382817050104
3.670337003670337,5.389820703642873,5.610532395726492,153.15540809612736,60.8591200299856,141.7845621689811,152.2489918750035,210.96980941158563,194.6229463232877
3.703703703703704,5.389820703642873,5.86804253113278,153.65055587625042,62.11990259868911,141.70977834521543,152.2579647225257,211.2351486690002,194.6776502960801
3.737070403737071,5.389820703642873,6.333314852650105,153.95726761318343,63.32026904340668,141.62463330127937,152.26880693859044,211.54037211085856,194.7178406075438
3.770437103770437,5.389820703642873,6.902118529702197,154.18269182874246,64.58978122866363,141.50786031259196,152.27336714928452,211.867715304338,194.7400555366264
3.803803803803804,5.389820703642873,7.67142893103159,154.32219430609257,65.87395470876983,141.3483540253793,152.2623136995725,212.2523812129196,194.7675959728515
3.8371705038371706,5.389820703642873,8.65374907199873,154.38784510789415,67.19189589912075,141.12608238464202,152.2349972842798,212.69299616552425,194.7933851153712
3.8705372038705375,5.389820703642873,9.711726352346638,154.0503036422139,68.26157714137614,140.86024566525583,152.20470525056854,213.14655468536725,194.74508771678447
3.903903903903904,5.389820703642873,10.888817570331245,153.55343369967372,69.33402113722703,140.5503836402422,152.1845935325577,213.66153324579747,194.63737173555344
3.937270603937271,5.389820703642873,11.841909415324174,152.88344650909053,70.24155528280723,140.19122497009107,152.1043871899572,214.22454064599083,194.60793750536203
