Time,Left Shoulder Angle,Right Shoulder Angle,Left Elbow Angle,Right Elbow Angle,Left Hip Angle,Right Hip Angle,Left Knee Angle,Right Knee Angle
0.0,20.94241704266386,56.70686853736866,159.8617624273077,159.78485006251913,135.8381478968366,141.58514317246662,209.3474940410656,204.54125387991257
0.0333667000333667,28.337434531324327,51.43641120874419,168.47606568861252,162.35911362739785,134.8285489830897,141.98552699191114,208.6248499720964,202.71041506369448
0.0667334000667334,34.06267889418344,46.65358703841992,175.7180359794918,164.02090698050236,134.10715566823816,142.56628279271808,207.80657450748552,200.9758467037852
0.1001001001001001,38.256827859123206,42.344343674026696,181.66444123895445,164.83125600644829,133.65150599645872,143.31012303299423,206.90666187973736,199.33622882506003
0.1334668001334668,41.0585591540256,38.494628763195394,186.39204940600945,164.85118658985127,133.439138011928,144.19976017084642,205.9391063213562,197.7902414523941
0.1668335001668335,42.60655050677261,35.09038995355686,189.9776284196658,164.14172461532698,133.44758975882272,145.21790666438145,204.91790206484632,196.33656461066252
0.2002002002002002,43.03947964524624,32.11757489274194,192.4979462189324,162.763895967491,133.6543992813195,146.3472749717061,203.857043342712,194.97387832474067
0.2335669002335669,42.49602429732847,29.562131228381503,194.02977074281824,160.77872653095903,134.03710462359507,147.57057755092725,202.77052438745764,193.7008626195036
0.2669336002669336,41.11486219090129,27.4100066081064,194.64986993033224,158.24724219034664,134.57324382982608,148.8705268601516,201.67233943158743,192.51619751982645
0.3003003003003003,39.03467105384671,25.64714867954748,194.4350117204834,155.2304688302695,135.2403549441892,150.22983535748602,200.57648270760583,191.41856305058448
0.333667000333667,36.39412861404671,24.2595050903356,193.46196405228068,151.78943233534324,136.0159760108611,151.63121550103733,199.496948448017,190.4066392366529
0.3670337003670337,33.33191259938326,23.233023488101622,191.807494864733,147.98515859018352,136.87764507401846,153.05737974891233,198.4477308853253,189.4791061029068
0.4004004004004004,29.986700737738385,22.5536515204764,189.54837209684936,143.87867347940596,137.80290017783793,154.4910405592178,197.44282425203508,188.63464367422145
0.4337671004337671,26.49717075699405,22.207336835090786,186.76136368763872,139.53100288762616,138.76927936649625,155.91491039006053,196.4962227806506,187.871931975472
0.4671338004671338,23.00200038503223,22.18002707957564,183.52323757611,135.0031726994598,139.75432068417004,157.3117016995474,195.62192070367612,187.18965103153363
0.5005005005005005,19.639867349735,22.4576699015618,179.91076170127218,130.35620879952253,140.73556217503597,158.66412694578514,194.8339122536161,186.58648086728155
0.5338672005338673,16.54944937898423,23.026212948680147,176.00070400213423,125.65113707242996,141.69054188327075,159.9548985868806,194.1461916629748,186.0611015075909
0.5672339005672339,13.86942420066173,23.87160386856173,171.8698324177066,120.9489834027988,142.59679785305224,161.16672908094185,193.572753164258,185.61219297733845
0.6006006006006006,8.789443124345992,24.781216567687185,168.63022382107997,116.58883350985084,142.96998529778736,162.02270731673988,193.3357337464362,185.12308699357408
0.6339673006339673,14.99955549012071,25.955689577489263,165.32505457535888,112.18778127701864,143.22320960694233,162.75883829056718,193.38855442331092,184.7535609415358
0.6673340006673341,22.028273086928404,27.605129459150493,161.90174095534215,108.08125437891304,143.37950089710768,163.4600645695923,193.7370256666332,184.34607303919583
0.7007007007007008,29.68308584524744,30.879598151191576,155.91983727517626,103.97389117229584,143.35800826697698,163.95196888439946,194.4099874307475,184.0694972806893
0.7340674007340674,37.09567632690089,34.5372650558402,152.77170100331458,101.16003649790107,143.32889990559377,164.4681473425714,195.2102112263053,183.7400608300807
0.7674341007674341,42.83596968720674,38.03529381332884,149.39566679695457,98.9377948172646,143.37472302149823,164.74004706574004,195.9154903722596,183.5624978982858
0.8008008008008008,48.08964158099625,40.79319460651174,146.55075599000537,96.61224386977273,143.16292819513762,164.57230837173063,196.68022919809363,183.6088466179016
0.8341675008341676,52.69019613138817,42.30642969599015,143.99448643511852,93.70480751433024,142.5674399781125,164.28418511066934,198.17179927203995,183.89558484540544
0.8675342008675342,57.9766384569556,43.90394425935503,144.73031669011144,91.6020335612435,141.95048870996777,164.25093534261796,199.42032467169585,184.57986860803487
0.9009009009009008,62.42856697271272,44.98773257398255,146.11888603211327,94.69257184739416,141.67913102424498,163.89769952985287,200.34768521441475,185.4345780166088
0.9342676009342676,66.16084796379208,44.55555830005886,146.4903302716426,97.26637234838464,140.972410812234,163.32551631530546,201.5250555268397,186.4322218117008
0.9676343009676344,69.82095522133584,45.4293560616507,147.39303034182643,100.3002689811427,139.8480047651367,162.30665422766427,203.14194644729045,187.4412571183983
1.001001001001001,71.04345592395356,41.779295871534586,149.49813965213073,95.17793988754724,138.81415473200565,161.13856202588602,204.4333028148621,188.23959198579453
1.0343677010343677,66.41993440671052,38.01487518115383,146.0184341124183,93.22597224771384,137.96074508221434,159.85553204928323,205.28394695354407,188.94689257334224
1.0677344010677343,68.9870055086097,35.26729752658356,145.46541020224367,92.41584981459316,137.12691813990136,158.72650071884254,205.978758524126,189.51624978640547
1.1011011011011012,64.35507911422704,33.93244308655119,142.99125871183048,91.7437802122833,136.25331695230872,157.77085183866802,206.5625635774537,190.1096680344753
1.1344678011344678,61.22023904452752,34.28579630893489,140.66880084538946,92.01204494130148,135.94685847156586,157.15005003304276,206.5253551811477,190.6073498663295
1.1678345011678346,60.20793003289745,36.10701127252823,137.22885864456066,93.32378398497322,135.89441588121693,156.70990674599562,206.04378860439544,191.07840118269368
1.2012012012012012,60.07781756764536,39.175235585029874,135.53518395549617,95.8927385758926,136.05622228885105,156.44429940972248,205.43291721949493,191.5237912588042
1.234567901234568,61.97635322327973,42.98364461574943,133.85925122470414,99.63908469082538,136.43862763602135,156.40511260642597,204.69285511863012,191.82035340961585
1.267934601267935,65.05175032371956,48.01295201349389,133.66232637463227,101.63507742058934,137.14481933386924,156.5445543644546,203.8245198886584,192.12023721222232
1.3013013013013013,75.19192355790884,54.93607933979119,131.32089540719642,103.71336691523236,138.05074815369383,156.81117004885562,202.83212101552863,192.32046928818207
1.334668001334668,84.63341369673354,64.66193348395696,128.82970924644368,110.92501560474317,139.20852480314264,157.19178706258083,201.67687140854852,192.44691679297875
1.3680347013680347,93.29683295336908,75.62580670338338,126.14174237890816,119.44083365982354,140.51561485675597,157.66298018008547,200.3731132370372,192.3947730532042
1.4014014014014016,100.90310230008744,86.60453098545321,122.74626961819962,127.23862809733272,142.12695132720685,158.26358019213677,198.7985095649336,192.1663523221481
1.4347681014347682,108.0933854631934,97.57121142081614,120.17350934603736,130.8924108348636,143.9875252546571,158.97706220553312,196.97931770789089,191.7028833601129
1.4681348014681348,114.46602575412729,108.98236772540508,117.91409882397288,134.37996204048324,146.08089026307533,159.8037280176852,194.9141244982413,191.08586523543704
1.5015015015015016,119.65063957147224,120.76516077436456,115.73706691739652,138.3970363369583,148.27235790173216,160.60028023086497,192.77743951672812,190.40891139303204
1.5348682015348682,129.80072516698982,136.8788032777466,111.80767990346683,143.50893678624288,150.56321256989364,161.52471801192374,190.56964270480748,189.49379181420332
1.5682349015682349,139.39803210147218,153.15792880953626,107.8873734441517,148.5111242652134,152.8798789040044,162.48598395866318,188.3861898813269,188.5156218769233
1.6016016016016017,148.1648035723412,169.37108351510875,104.0207666155737,153.340470696946,155.1939002692911,163.47238009052106,186.2592626555198,187.48964475445985
1.6349683016349683,155.82328277701978,185.2868135398396,100.25247849385664,157.9338480045176,157.47682003098168,164.47220842693636,184.22104263662104,186.4311036200827
1.6683350016683351,162.09571291293076,200.67366502910457,96.62712815512428,162.2281281110051,159.70018155430407,165.4737709873482,182.3037114338656,185.3552416470616
1.7017017017017018,166.70433717749697,215.30018412827943,93.18933467550038,166.16018293948554,161.83552820448614,166.4653697911955,180.53945065648847,184.27730200866625
1.7350684017350684,169.37139876814115,228.93491698274,89.98371713110879,169.66688441303572,163.85440334675584,167.4353068579174,178.96044191372454,183.21252787816624
1.7684351017684352,169.8191408822862,241.34640973786176,87.05489459807325,172.68510445473265,165.7283503463411,168.37188420695287,177.59886681480882,182.17616242883133
1.8018018018018016,167.76980671735498,252.30320853902063,84.44748615251754,175.15171498765335,167.42891256846977,169.26340385774097,176.48690696897623,181.1834488339312
1.8351685018351689,162.9456394707701,261.5738595315923,82.20611087056547,177.0035879348746,168.92763337836982,170.09816782972072,175.65674398546173,180.24963026673552
1.8685352018685355,155.06888233995463,268.9269088609525,80.37538782834083,178.1775952194734,170.19605614126914,170.86447814233114,175.14055947350028,179.38994990051395
1.901901901901902,143.86177852233143,274.13090267247685,78.99993610196736,178.61060876452677,171.20572422239567,171.55063681501127,174.97053504232682,178.61965090853622
1.9352686019352687,129.04657121532324,276.95438711154134,78.1243747675689,178.23950049311154,171.9281809869773,172.14494586720016,175.17885230117628,177.953976464072
1.968635301968636,110.3455036163529,277.1659083235212,77.79332290126918,177.00114232830475,172.33496980024202,172.63570731833684,175.79769285928364,177.40816974039095
2.002002002002002,87.48081892284313,274.5340124537928,78.05139957919204,174.8324061931832,172.3976340274176,173.01122318786034,176.8592383258839,176.9974739107628
2.035368702035369,60.17476033221686,268.8272456477316,78.94322387746125,171.6701640108239,172.0877170337321,173.25979549520966,178.39567031021187,176.73713214845722
2.0687354020687354,28.14957104189696,259.8141540507129,80.51341487220057,167.45128770430392,171.3767621844134,173.36972625982386,180.43917042150267,176.64238762674384
