Time,Left Shoulder Angle,Right Shoulder Angle,Left Elbow Angle,Right Elbow Angle,Left Hip Angle,Right Hip Angle,Left Knee Angle,Right Knee Angle
0.0,36.12700023837634,37.74594741054146,158.2490011843407,163.48065431398686,129.95189887927933,128.90119864219318,198.5759647287232,207.0273466989982
0.0333667000333667,34.828664694693195,37.31031891451089,157.66799037501934,163.63227072673155,129.5365238984421,129.31282040758154,199.43710065335392,207.0570784373519
0.0667334000667334,33.74140526448827,37.01040556298669,157.25286703706757,163.84188213581862,129.22776286875649,129.63805548212625,200.0891736292957,207.122807322432
0.1001001001001001,32.85216271750976,36.83346296289967,156.9941888642531,164.10235463505597,129.0178809559976,129.88473449383014,200.5482869342644,207.21937388794663
0.1334668001334668,32.147877823505866,36.76674672118061,156.8825135503436,164.40655431825144,128.89914332594063,130.06068807069602,200.8305438459759,207.34161866760405
0.1668335001668335,31.61549135222477,36.79751244476032,156.90839878910674,164.7473472792129,128.86381514436076,130.17374684072672,200.9520476421461,207.48438219511235
0.2002002002002002,31.24194407341468,36.91301574056956,157.06240227431027,165.11759961174826,128.9041615770331,130.23174143192512,200.928901600491,207.6425050041797
0.2335669002335669,31.014176756823783,37.10051221553915,157.33508169972188,165.51017740966537,129.01244778973287,130.24250247229395,200.7772089987264,207.81082762851423
0.2669336002669336,30.91913017220028,37.34725747659986,157.71699475910927,165.91794676677213,129.1809389482352,130.2138605898361,200.5130731145682,207.9841906018242
0.3003003003003003,30.94374508929235,37.6405071306825,158.1986991462401,166.3337737768764,129.40190021831526,130.15364641255437,200.1525972257324,208.1574344578177
0.333667000333667,31.074962277848208,37.96751678471785,158.7707525548821,166.75052453378603,129.66759676574824,130.06969056845156,199.7118846099347,208.3253997302029
0.3670337003670337,31.299722507616032,38.315542045636704,159.42371267880296,167.16106513130893,129.97029375630925,129.96982368553054,199.2070385448912,208.48292695268788
0.4004004004004004,31.60496654834403,38.67183852036985,160.14813721177038,167.55826166325298,130.30225635577352,129.8618763917941,198.65416230831764,208.6248566589809
0.4337671004337671,31.977635169780395,39.02366181584809,160.93458384755206,167.934980223426,130.65574972991615,129.7536793152451,198.06935917793004,208.74602938279017
0.4671338004671338,32.40466914167332,39.3582675390022,161.7736102799157,168.28408690563597,131.02303904451233,129.6530630838863,197.46873243144427,208.84128565782373
0.5005005005005005,32.87300923377099,39.66291129676298,162.65577420262898,168.59844780369062,131.39638946533725,129.5678583257206,196.86838534657616,208.90546601778985
0.5338672005338673,33.369596215821616,39.92484869606122,163.5716333094596,168.87092901139795,131.76806615816605,129.50589566875078,196.28442120104168,208.93341099639656
0.5672339005672339,33.881370857573685,40.13133534382808,164.51174529417654,169.09439662256727,132.13033428877495,129.4750057409807,195.7329432725583,208.91996112735384
0.6006006006006006,33.99589222544577,39.98841484446773,164.80996393269513,169.04665337904478,132.3110257326699,129.52853407090078,195.5808046667658,208.8941106409357
0.6339673006339673,34.312878308839785,39.787866899192224,165.54394093385878,169.00569903823882,132.52566022745685,129.64644406254658,195.39547659377192,208.78753735523188
0.6673340006673341,34.6163288066207,39.81187206149409,166.24911584748935,169.57083186283126,132.74485785809696,129.83123318764416,195.27357478539804,208.61735196118065
0.7007007007007008,34.93379746480043,39.6853257683628,166.98694319690674,169.9018222676829,132.92345035895252,130.11475059416725,195.2804713805168,208.33752331301628
0.7340674007340674,35.32113750609947,39.36499958948151,167.74676500148897,169.8091345946471,133.1136775682103,130.53073420688597,195.3314635823682,207.9099348284161
0.7674341007674341,35.70387448492176,38.96794123646164,168.47789420251686,169.6261655084688,133.25148115390152,131.05206250725573,195.44897179487168,207.3429448727508
0.8008008008008008,36.16506039643322,38.22754909826701,169.5995857463819,169.10570379934947,133.33419622366577,131.66708961122526,195.69274032497407,206.6681826187917
0.8341675008341676,36.49575660882257,37.22384573726366,170.74815934761517,168.44620192545395,133.33187082925272,132.3156049310712,196.05427821062483,205.95914281711595
0.8675342008675342,36.819708456055885,36.022450910300286,172.08954389728254,167.77565888720852,133.2629243342881,133.01527812209122,196.53919938116127,205.18322685854977
0.9009009009009008,37.06764592904898,34.71369400017795,173.50854426432767,166.97774717838612,133.11382736837768,133.76760635791032,197.11132677564612,204.33724891658684
0.9342676009342676,37.2536114075028,33.430968105669386,175.03419287254331,166.59876892294696,132.90326783459793,134.55585012223872,197.7581290504396,203.45056999477563
0.9676343009676344,37.1934636442762,32.1031043028299,176.2860299731187,165.87842599215563,132.61208000539693,135.3852447230249,198.4631515031,202.53447226088463
1.001001001001001,37.08857599934019,30.582450505072817,175.4503012687371,164.28587155935284,132.2545056514409,136.24060753914844,199.1729051500151,201.59040837154024
1.0343677010343677,36.74435768114741,28.972274502853004,175.96501787054578,162.19714538989678,131.84228415108123,137.1110410929218,199.93438448675096,200.63334481109425
1.0677344010677343,36.02960653362088,27.369717702437534,177.230997856681,160.0012469034902,131.3801344333477,137.9950741792354,200.7153971367325,199.6679493793084
1.1011011011011012,35.21752774474677,25.862453474097894,179.1196751707462,157.9042528016551,130.87700703387424,138.88632039980703,201.46338285138708,198.69657026558195
1.1344678011344678,34.23867703753192,24.29857132517409,181.6285360521593,155.2633410163069,130.30954198098817,139.7806904762893,202.2210644432962,197.74525003083585
1.1678345011678346,33.01566258145801,22.68192678224409,183.8749445664149,152.06119449016344,129.71884764665523,140.65251921331492,203.00748689542624,196.82636611207383
1.2012012012012012,31.910881061393773,21.367500512389025,185.6335668019582,150.4547430342513,129.09846086134655,141.4773691558796,203.7907209833218,195.96315558356665
1.234567901234568,30.84088937540291,20.312282313461782,186.70605433551896,147.92961269954964,128.53245797628838,142.2689598157696,204.48978578726536,195.176236381108
1.267934601267935,29.4532150042283,19.755239246844862,187.53782911784475,146.37359740703218,127.9915452824838,142.99646534186877,205.13162557786865,194.47676164742944
1.3013013013013013,27.775650851169363,19.445811054241265,187.32686551019407,144.62115147466554,127.5072840009244,143.65006149045217,205.71222381887773,193.84315836262363
1.334668001334668,25.87972241333616,19.222929581787422,191.3788960884661,141.76455920947123,127.05673581656605,144.22900892320234,206.210734505882,193.29735414671345
1.3680347013680347,24.069611456752,19.137944145128746,194.5925611458008,139.0028839902894,126.66802835919724,144.74835398026516,206.643517448542,192.81513574110505
1.4014014014014016,22.116707411632333,19.585054811548105,197.22246769558484,137.11433110486598,126.36266381002842,145.18488570628915,206.99826770365584,192.43027080608977
1.4347681014347682,20.24592692618847,19.644483134151034,198.46211497792865,135.17778019758936,126.09002344907604,145.53687986330954,207.270945987548,192.12069842776543
1.4681348014681348,18.688185329480547,19.295550963210847,198.78767901168348,133.27673077676766,125.8447815227902,145.78053560091894,207.4628315350644,191.89888871542465
1.5015015015015016,17.121778646021326,18.79064551881204,198.3831800844765,130.78532772221303,125.65534360232635,146.02358052013653,207.5287251011197,191.6047482871992
1.5348682015348682,15.213955881291447,17.86644914449951,197.57979739943625,129.14272621273133,125.55625751536267,146.20215894408054,207.46473469489183,191.33471689785355
1.5682349015682349,13.551742058033314,17.065239689087715,196.1425097683432,126.74698753385844,125.43557066633132,146.3487923564547,207.6430587250878,191.12748354684084
1.6016016016016017,12.097653900605364,16.938955447526208,194.0212410972392,123.22468718509798,125.33900488512108,146.39663995910144,207.88765149457907,191.01779032066744
1.6349683016349683,10.676301939204212,16.505507381677386,190.8246625520199,119.54996336300916,125.2646875290862,146.3937633110991,208.18871190856868,191.0085046810236
1.6683350016683351,0.406328077104821,16.721617791717442,186.55098356202345,115.69193072583823,125.26557407079233,146.3319991210281,208.5200908906348,191.0928412884759
1.7017017017017018,0.406328077104821,17.316803924391817,182.24549179287703,111.56958560595052,125.37607273106345,146.27409796368477,208.7715217872025,191.1504718403612
1.7350684017350684,0.406328077104821,18.272223396494937,177.8895383092464,107.10435242356132,125.56983618476418,146.20514010727396,208.9739610375812,191.2495802574581
1.7684351017684352,0.406328077104821,19.52555241090245,173.48649762442787,102.05866704865215,125.7913883713061,146.17526928220346,209.2397332893564,191.30276260252367
1.8018018018018016,0.406328077104821,19.82042032710416,169.04445491313035,96.05185127991588,126.04139880396248,146.13274724840286,209.5139034219957,191.35926663785452
1.8351685018351689,-6.615591970566459,19.50035711508553,164.76606798488083,89.50858929244569,126.29636823708132,146.13386262921156,209.74533546072115,191.3599342243335
1.8685352018685355,-10.496645128205996,19.38899689648428,160.35794597153574,83.68083737136544,126.53201661734246,146.15831320541744,209.9443917848469,191.3458431792324
1.901901901901902,-11.381796243547926,20.329404944737067,156.286332846807,79.96777405007717,126.70240804239351,146.16228165907705,210.1617641352668,191.34669563700595
1.9352686019352687,-9.448253091130423,19.332895952400843,152.69030290142413,77.80966922051041,126.85205957003048,146.13582892491928,210.3955940775935,191.3752165505136
1.968635301968636,-4.979370780938722,18.474794430805613,149.2202722328685,75.70047182654196,127.01475333439387,146.107609863741,210.6226891674028,191.41552031741747
2.002002002002002,2.051541361516997,17.927709440477344,146.2140952707229,74.07374021968602,127.2126621209973,146.098622286672,210.82122663248813,191.42892447061269
2.035368702035369,2.051541361516997,18.282257509056866,143.2336825572536,73.86089345862189,127.40780918161124,146.129327536485,210.99616065961723,191.44028881583
2.0687354020687354,2.051541361516997,19.28126863686148,140.48829926003583,73.46143657593247,127.54323527481812,146.18259201282984,211.13010462686665,191.45237882997696
2.1021021021021022,2.051541361516997,20.501016823892613,137.92036074077035,73.3590356252802,127.66337134855632,146.26251708357424,211.2273749000489,191.4419938024332
2.135468802135469,2.051541361516997,21.55541889750136,135.894946603999,72.75490274694265,127.82057296538332,146.36724942491716,211.26482123592115,191.40379162440013
2.1688355021688355,2.051541361516997,22.726372845055213,136.7057259795492,72.08654282243637,127.98552338458067,146.49296821546002,211.2970412315761,191.35372250273468
2.2022022022022023,2.051541361516997,23.462332032544463,137.42469491997144,70.28976879089672,128.14799633160493,146.64148512462077,211.3164372342156,191.2929994594816
2.235568902235569,2.051541361516997,24.423943058835185,138.17572516955863,68.81262136342802,128.2996061766619,146.80181575518105,211.3246402815687,191.23090877683583
2.2689356022689355,2.051541361516997,25.047262486940184,139.04730810251394,66.04574169583768,128.41514717689543,146.96407199769783,211.34409232941653,191.17688141699216
2.3023023023023024,11.26741525463947,25.711529401450743,139.57119971625977,63.54128899652119,128.5179856823513,147.1187951828303,211.35840917444963,191.125686784161
2.335669002335669,22.42594778464961,26.78283029767849,140.087347961322,62.142134383403366,128.61364305767043,147.28006311562132,211.36053914504936,191.07461938005625
2.369035702369036,35.25618255203256,27.928688461982983,141.27525569282142,59.56186547456755,128.71997434165016,147.4336383006508,211.34214749388605,191.01766441984003
2.4024024024024024,49.50486880956496,29.3144883946084,143.6639481450952,58.443566427520686,128.8168961632256,147.5871436883009,211.3107880287548,190.9406424629276
2.4357691024357693,64.81632350136229,30.58674244003044,146.96327710926818,56.75499551887292,128.89703622503188,147.7457221752788,211.27497203959976,190.84966157214416
2.469135802469136,81.23907199920507,31.81804777456304,152.4211187414827,55.51933765088837,128.9508821264395,147.90016824594412,211.226093387853,190.74212471348173
2.5025025025025025,98.30227927090549,33.0881481303585,153.8148091236945,55.7714382324244,129.00790677963826,148.04028020833545,211.16991160182656,190.628398627734
2.5358692025358693,115.83379056338693,34.229160605772464,155.1712889073524,56.70416826570627,129.0398524557956,148.16862356450915,211.1103290722101,190.5195005812492
2.569235902569236,133.40541812935246,34.739250132606315,155.98226472049106,57.28520860787948,129.03162961630173,148.26362213259168,211.05273439990484,190.41287510443
2.6026026026026026,150.94964261430346,35.21519462442305,157.09122031564902,57.79534334297492,128.9957219353723,148.33033485029924,211.0057956315129,190.3186153069907
2.6359693026359694,168.4297651057184,35.99398367190702,158.22428736071186,58.13712229173005,128.95827986451914,148.3757239737821,210.9627950083201,190.2373612957889
2.669336002669336,185.6230692010093,36.82664179707922,159.09742454369237,58.62567438171829,128.91401762089734,148.395883848401,210.9091874017492,190.15951352811692
2.702702702702702,202.328274581441,38.280892228294114,159.36887436096376,57.60899067786667,128.8472692329692,148.40318518952446,210.8402901354884,190.08542758701165
2.736069402736069,218.48169863273864,39.98618781648096,159.28358081338206,56.39272928545034,128.7708439741073,148.3956126079496,210.7545846821629,190.01765421789725
2.7694361027694363,233.57077518646344,41.397262139124,158.91866101273652,55.78355154177317,128.68888283614322,148.3718398231522,210.6630685858767,189.96658746838617
2.802802802802803,247.3088539469772,43.341392453376045,158.81945164924704,54.9540049946766,128.61514638236002,148.35549402364995,210.58679244852172,189.8976695407554
2.836169502836169,259.8247749390616,44.82787780611061,159.370473108289,53.89487606572422,128.50173157796954,148.34899572899204,210.5368893351122,189.83708283699883
2.8695362028695364,271.0651469843875,46.07756769267412,159.8063484636909,53.00229140256731,128.33972399519465,148.33078393662137,210.51451797047645,189.8068735547253
2.902902902902903,280.8968225247486,46.93094776349387,160.1236936020769,52.435549970874845,128.14256616970562,148.29117162216707,210.53174091800125,189.8013365318192
2.9362696029362696,288.9395687198235,47.34362258038972,160.5574494982596,52.9319648297833,127.92003008666526,148.22651887750376,210.5678778794954,189.83366666530588
2.9696363029696364,295.2934039953846,48.56900100647756,161.01714337125154,55.41735447906202,127.6867889441296,148.16629268271095,210.62027988310112,189.8990376981506
3.003003003003004,299.7059792808149,50.10853236834258,161.56576049293773,59.12146994646882,127.44068877077784,148.09780974977065,210.7038439741396,189.9972747857896
3.0363697030363697,301.7379665879897,51.41951913371025,162.30476360979708,63.65985176608828,127.23051331175338,148.01634633962607,210.8110347345414,190.124120489696
3.0697364030697365,301.42627816802894,51.284374797622654,162.9272510809514,67.63102279999804,127.04739685227264,147.9360170975159,210.9506418875957,190.273874193938
3.103103103103104,299.1290269168393,52.73876033122883,163.340005787517,70.62732002344188,126.86536834837938,147.86096842656187,211.1190998699045,190.43738613381
3.1364698031364697,294.25437696393,54.47439213902794,163.61320155368824,74.10191405082902,126.70146362982096,147.78602299608136,211.30359165146453,190.6152194137021
3.169836503169837,286.74254648109195,56.39191724818214,163.71150147285326,77.5557203363814,126.53369517415014,147.72880699802,211.49175523293897,190.8081237467712
3.2032032032032034,276.68177269084475,57.68215650311363,163.8145300937264,79.34955863061693,126.40350838117452,147.65668753818758,211.6678338368125,191.01989892748216
3.2365699032365702,275.9926630783682,50.2214250248329,163.808017002135,80.63847242145103,126.3700074853226,147.59774502836834,211.8211386222013,191.22998708635728
3.2699366032699366,275.47163315908983,44.89198876110828,163.62595042521846,80.17777902599781,126.40814165559458,147.5674232358759,211.9520561413564,191.40908243276132
3.3033033033033035,275.0730476923612,41.81655991419507,163.18603453561445,78.9236504965435,126.45457749959294,147.53999908225052,212.09974696406428,191.5852804283253
3.3366700033366703,274.68030379202804,40.93099026505504,162.54365619971506,76.83932202912601,126.5391286497604,147.5132320714591,212.26207771193907,191.74633100765885
3.3700367033700367,274.3127779803311,42.4913183426738,161.88574206485106,75.47619227361774,126.63151920358531,147.4796709110174,212.45251010561367,191.90210853439612
3.4034034034034035,273.98394574870423,45.184039469862846,161.35880134317654,73.84878792489096,126.78394257978172,147.4978675034445,212.64829998788028,191.95651767325649
3.4367701034367704,273.5559715707318,58.17036435037674,160.8558404095631,73.16541558512347,126.96095573984609,147.52499595234687,212.8520588731388,192.00613180577216
3.4701368034701368,273.2599106293872,70.4354881742083,160.27532849991496,72.938245944912,127.1251003956194,147.53956145855713,213.0765881676789,192.0580425630796
3.503503503503504,273.0866171273693,81.8433907604215,159.84538629967656,72.9544282062835,127.2494603236442,147.51452436321674,213.32461256423127,192.16370367004043
3.5368702035368704,272.9664911510307,92.4744505411316,159.5700114156785,73.18465230879731,127.35632959177993,147.4985224941868,213.6150473828518,192.2615820469798
3.5702369035702373,273.0028101659285,102.14587655045769,159.32692384513896,73.37890675377832,127.43372694749084,147.4541108500876,213.94054583606635,192.41689528200783
3.603603603603604,273.1290412616058,110.99119568275452,159.15463669819576,73.57517560171347,127.48022914075422,147.37991575764357,214.26775057719263,192.60372565936183
3.6369703036369705,273.0845202045608,118.80490703956742,159.13729592128047,73.63526205713413,127.47914533417884,147.2732447112983,214.60087310476052,192.85224966927683
3.670337003670337,273.0582996395149,125.4429015982568,159.120198522758,73.32516599435137,127.33644625290408,147.18395362380704,214.9598005978248,193.016694823152
3.703703703703704,273.0750770287618,131.1070835182366,158.99474578714535,72.94484643085138,127.11878408737302,147.02629748168755,215.3401337280736,193.32356410379347
3.737070403737071,273.1990616583283,137.0383816384428,157.46435501315398,74.63581718692366,126.7525530858506,146.84114732178463,215.7351358022947,193.6929564220681
3.770437103770437,273.34349056752774,142.01070505508363,157.1914900428791,75.25006205770146,126.36860060592016,146.64477630931668,216.0836549265955,194.1364984405757
3.803803803803804,273.31290268250393,146.0862799107092,162.738666516968,74.20500491667897,125.86718715073496,146.41608980405508,216.6997188356353,194.6886116285609
3.8371705038371706,273.2402995870769,148.10557527611283,166.86776860409424,73.71681223859949,125.44574657091384,146.28323881224867,217.2661126482571,195.33151417858497
3.8705372038705375,273.22171786226306,149.07528305996712,163.65216463516182,74.93105127365617,124.9252324153105,145.83225191078438,217.99991678154788,196.21826027177812
3.903903903903904,273.125151344888,148.63174733495745,160.1020981154421,75.4631922899724,124.52511376329204,145.30529139636266,218.5363711052688,197.2104768863113
3.937270603937271,272.8660949555478,146.64843184293397,154.654954872527,74.45378457145638,124.27969658448072,144.87308769575975,219.01617551974024,198.2445380877712
