Time,Left Shoulder Angle,Right Shoulder Angle,Left Elbow Angle,Right Elbow Angle,Left Hip Angle,Right Hip Angle,Left Knee Angle,Right Knee Angle
0.0,23.71363454665336,33.11655754058173,161.17792853893127,167.36191449151713,154.7329346577821,155.33095317860423,183.36771211531376,181.97195430734035
0.0333667000333667,24.48511963362652,33.369876380077166,161.2588030283091,167.2922985194884,153.33947395488966,154.2851762386259,183.77185713066933,182.8799631843873
0.0667334000667334,25.16865114433621,33.61984494992415,161.31815839886113,167.23886402313946,152.12928484512634,153.36960329385295,184.09459393955217,183.6421787566724
0.1001001001001001,25.769317610525228,33.86619087132082,161.35858947594832,167.2016772798768,151.09117155928112,152.57734445730745,184.3414814602945,184.26756628258684
0.1334668001334668,26.292207563936355,34.10864176546529,161.38269108493162,167.180804567107,150.21393832814306,151.9015098420114,184.5180786112284,184.76509102052185
0.1668335001668335,26.74240953631238,34.346925253555696,161.39305805117198,167.1763121622366,149.4863893825012,151.3352095609868,184.62994431068608,185.14371822886864
0.2002002002002002,27.125012059396088,34.58076895679016,161.39228520003033,167.1882663426721,148.89732895314455,150.8715537272557,184.68263747699967,185.41241316601847
0.2335669002335669,27.445103664930265,34.8099004963668,161.38296735686762,167.2167333858201,148.43556127086214,150.50365245384003,184.6817170285013,185.58014109036245
0.2669336002669336,27.7077728846577,35.034047493483754,161.36769934704483,167.26177956908714,148.08989056644305,150.22461585376186,184.63274188352327,185.65586726029184
0.3003003003003003,27.918108250321183,35.252937569339146,161.34907599592287,167.32347116987972,147.84912107067623,150.0275540400432,184.5412709603976,185.64855693419784
0.333667000333667,28.08119829366349,35.466298345131094,161.3296921288627,167.4018744656044,147.70205701435077,149.905577125706,184.41286317745647,185.56717537047163
0.3670337003670337,28.202131546427424,35.67385744205773,161.31214257122528,167.4970557336677,147.6375026282557,149.8517952237723,184.25307745303203,185.42068782750445
0.4004004004004004,28.28599654035576,35.875342481317176,161.2990221483715,167.60908125147623,147.64426214318,149.85931844726414,184.0674727054565,185.21805956368752
0.4337671004337671,28.337881807191284,36.07048108410756,161.29292568566242,167.73801729643648,147.71113978991278,149.9212569092035,183.861607853062,184.968255837412
0.4671338004671338,28.36287587867679,36.259000871627,161.29644800845892,167.88393014595496,147.826939799243,150.03072072261236,183.64104181418065,184.6802419070691
0.5005005005005005,28.36606728655505,36.44062946507364,161.31218394212192,168.0468860774383,147.98046640195972,150.18082000051277,183.41133350714463,184.36298303105005
0.5338672005338673,28.35254456256888,36.61509448564559,161.3427283120124,168.22695136829296,148.16052382885198,150.3646648559267,183.1780418502861,184.02544446774607
0.5672339005672339,28.32739623846125,36.78212355454125,161.39067594349277,168.42419229592682,148.35591631071006,150.5753654018774,182.94672576193875,183.6765914755499
0.6006006006006006,28.303585095431625,36.871304519083935,161.44991301149227,168.64974629238338,148.61663957182353,150.89216040893666,182.6074116605758,183.35631467010887
0.6339673006339673,28.37925026500056,36.98927466673775,161.62554094137053,168.9358732732719,148.7328089010963,151.15356031799837,182.36436612795788,183.08661534645907
0.6673340006673341,28.56951057713211,37.1851685060588,161.9152229875129,169.32834328734194,148.77529060108347,151.35517729207302,182.16220782177143,182.87688189327488
0.7007007007007008,28.7174410202882,37.38969380301428,162.16020649116587,169.72468880404534,148.78579729003923,151.51951335030148,182.00192460298652,182.70601760070588
0.7340674007340674,28.52744092937732,37.71862358703889,161.54013178530676,170.26770203871936,148.74017580831608,151.59206343167628,181.8958952045888,182.5597873374548
0.7674341007674341,28.1215845468501,38.005969869880495,160.54744767759797,170.60333716317885,148.62810684741123,151.64699198129148,181.9070950221392,182.44146935410748
0.8008008008008008,27.17915722854297,38.36252038342133,158.76917440158488,173.7654982413556,148.43280649863323,151.66338821467096,181.9667090180073,182.34976390807543
0.8341675008341676,26.9578833604122,38.6345853167596,158.7031676783253,175.2044126952641,148.1772268994523,151.68542634868075,182.11721183209127,182.3041649414511
0.8675342008675342,26.546399602971743,38.900819028744095,158.15073924503773,175.49097976468784,147.83648155920304,151.7278023498099,182.37951330972336,182.298305629836
0.9009009009009008,26.32071466147928,39.117340300887705,158.18628529353035,175.32480963642394,147.44913666110708,151.7894197812522,182.72905607798447,182.3110143438997
0.9342676009342676,26.92338120055127,39.47003108644878,159.07538038243433,174.97720785991677,147.06017430543972,151.83906227810022,183.1097801078886,182.3563988630048
0.9676343009676344,28.119926282285967,39.63940728085719,161.18035110215988,174.2729249203279,146.68211895773285,151.91193764261237,183.49911181701964,182.42636083487383
1.001001001001001,29.900223032128828,39.42324058538106,164.62987040365212,174.2294610261494,146.21836471440238,152.04233940252493,184.0820399500807,182.5151573395828
1.0343677010343677,31.73529966578013,38.9065391680127,168.40319885755983,173.58745544830057,145.71747882782327,152.223933579903,184.76050485208583,182.60080957063545
1.0677344010677343,33.73135287989278,38.41377010843624,173.47564323210852,170.41390825643217,145.6927698730551,152.5138341256874,184.8477394349129,182.64091452699168
1.1011011011011012,35.376830787273484,37.733091514797565,178.368887321543,167.2498670801438,145.80145107614328,152.84427021169597,184.83989566158067,182.67841703589727
1.1344678011344678,36.1265376849617,36.28950623739647,182.48264719156188,166.40530157411442,145.8293639937267,153.11003928187532,184.9781707475181,182.75181287630988
1.1678345011678346,36.01318383993999,34.50598844296314,184.92919478452052,164.6798976210605,145.7346824107566,153.3442882892981,185.28189726875164,182.84481741823083
1.2012012012012012,34.048980811369965,32.30952665797023,194.4237585591381,162.05067702393038,145.39541787297495,153.53083531934882,185.78712067009525,182.97269437204977
1.234567901234568,32.391438791666054,30.29747868401065,201.4317459309084,158.91476902367882,144.92198756312618,153.62940637947267,186.3853907340124,183.14421122393355
1.267934601267935,31.986167592478463,28.776339695706763,207.7088700376343,155.7377613977079,144.45786956511222,153.67712654601672,187.0430081980033,183.36534470889777
1.3013013013013013,32.173219698998814,28.02298895106536,210.566694103474,152.93338484750566,143.97320840537455,153.74218105822678,187.7500059862309,183.5438481086872
1.334668001334668,32.583969190747176,28.837139416265725,212.1595651407881,151.17913143374264,143.5094361406404,153.79456174662508,188.47128135284743,183.7013920865416
1.3680347013680347,33.29230765522553,29.3734909858516,212.0667492940773,148.86718856476944,143.0810711732325,153.8624187114003,189.20951135675173,183.8454789405244
1.4014014014014016,34.44665270876812,29.460700694402373,209.7975532004513,146.2080428251517,142.75230386382995,153.96246537435638,189.8795950743772,183.96150234683927
1.4347681014347682,35.9618963491051,29.23907911415596,205.96705844821005,143.05098666972108,142.455922298263,154.0714209683335,190.5410283160417,184.04356388591145
1.4681348014681348,37.67033891827049,28.37570363984717,200.5836158289229,140.1623812573918,142.23796685363422,154.19134790172254,191.134977127249,184.0847951287446
1.5015015015015016,39.74216079728178,27.43062054247274,194.21715852626983,136.96608535649375,141.96531293073448,154.30164242155993,191.7179837515745,184.12490190059003
1.5348682015348682,41.91390215809862,26.039839530514065,186.71461245075747,134.0948781838213,141.6602202118503,154.39489413344296,192.2909162259897,184.1644358842036
1.5682349015682349,44.47856241672355,24.7662638538647,178.32780899050903,130.584233380236,141.34161921313608,154.47192287574572,192.8189434914699,184.20943465178385
1.6016016016016017,46.88389949871541,23.612855131918945,169.23173744164055,126.94950820649736,141.03622195128693,154.5660980810224,193.30530875362672,184.2428381807488
1.6349683016349683,49.475039012533685,22.74900966905955,159.43522756004555,122.99968331403645,140.6923080110241,154.63204711258118,193.76801830037533,184.2725375455868
1.6683350016683351,52.045684606788384,21.86733074179657,149.07567274277363,119.21402061350392,140.31909709354508,154.66504872740154,194.2331369863392,184.316059444948
1.7017017017017018,54.45655288311129,21.392441301609374,138.13145637007656,115.2557309208986,139.8638052944918,154.70021722058425,194.8286153832628,184.3855902826385
1.7350684017350684,58.962005461671055,21.05283741024335,122.7889234932469,107.9443962356996,139.3924320019339,154.70466641474303,195.4800760706981,184.4477581055759
1.7684351017684352,62.32068167747466,21.100650560630665,107.55613283356575,101.03558951406896,138.9008510947793,154.68933535376797,196.1530721892129,184.47541598779048
1.8018018018018016,55.50246046625101,21.56400118578037,92.2077479613467,95.00604607305024,138.38463697564433,154.6654314970756,196.8637109773345,184.4779270949892
1.8351685018351689,51.17550016283116,22.39041891582576,77.77260009224055,89.79626550970073,137.84972973796604,154.6240489263109,197.63917470065203,184.452001331693
1.8685352018685355,49.14022745242147,23.676954331287348,64.39708427430365,86.45926681533045,137.29928219126555,154.5615618698285,198.44423346314903,184.42268509430872
1.901901901901902,49.43254361438109,25.31302978445288,53.24858868864629,84.00370602140244,136.74072940542982,154.5221969550104,199.2674483425539,184.4070425193102
1.9352686019352687,51.98432092033407,27.29599588062216,44.57936215759787,82.01349299246395,136.21457891232114,154.45768872658417,200.05649268866912,184.37761864853672
1.968635301968636,57.222770228531104,29.40169836858362,39.25885560121441,77.2328481742184,135.7030438620337,154.43153693334244,200.9033112782671,184.31660348819008
2.002002002002002,63.70377538615455,31.919361547710093,34.95418612221181,74.14115398800698,135.28580826470647,154.42353680708425,201.63354054374585,184.2130711386341
2.035368702035369,72.18489700142982,34.48509461235831,33.877451446745845,72.10651758240394,134.94627308771956,154.43056559598466,202.28642177393888,184.06287981050627
2.0687354020687354,82.38328153762572,36.96411501341177,35.455043800362795,70.53716929452081,134.67431796355294,154.49349016723423,202.9002900411345,183.8747081112121
2.1021021021021022,93.2960497876705,39.01644907712336,39.204268517078,69.15281924000703,134.43925367227527,154.6637909810335,203.5211331993415,183.63060900228515
2.135468802135469,104.84119343947296,40.86972606873528,44.799256978149145,68.27505445244643,134.2982465260612,154.9129605343889,204.1027700457214,183.35179358144543
2.1688355021688355,116.26733966354251,42.73417341841272,51.57195786703048,66.57598696189777,134.36706004027516,155.193377628073,204.4185099104212,183.04993577539284
2.2022022022022023,127.65168784328893,44.57232039943123,60.299624432543226,64.97416441286117,134.62643114112635,155.50166420031778,204.4682877546391,182.72464788400825
2.235568902235569,138.5376759707969,46.01536629708837,69.37522475745133,66.10996739865143,134.4621387472501,155.72883704662098,205.0081645450828,182.45269122732208
2.2689356022689355,149.04145799926667,47.16127321328226,80.06846457678137,68.17197729188345,134.09162987368782,155.8933564831138,205.7291093207386,182.2138928288004
2.3023023023023024,159.64969028322955,48.75590619764677,92.64529231493547,68.14661580613097,133.66705790771164,156.07625004305137,206.49864998934865,181.98302087981224
2.335669002335669,170.84614308187554,50.70977355134149,108.27479403124909,68.7302139141386,133.21731823003634,156.2444408541366,207.2680209876824,181.7793996260284
2.369035702369036,184.01827117031155,53.34853994334439,116.622572314191,70.18891506131182,132.9029870506917,156.44082090284007,208.0001945174264,181.56154061829727
2.4024024024024024,197.66704978315167,56.30325455919506,125.09575435019748,72.42104253115873,132.68858706003192,156.7059898818318,208.63517352111128,181.2644959792921
2.4357691024357693,210.50289671692025,59.3353489679432,131.84587997672114,75.1873952120905,132.49992362301123,156.98376728369365,209.23268326750292,180.9282764193848
2.469135802469136,222.7180999199654,61.94141732987569,139.42188386401676,78.01719629626925,132.3456990839321,157.24187742913662,209.8065344499225,180.6164845615394
2.5025025025025025,234.5629174009603,62.66738720263179,145.91622365708625,79.70217616022202,132.222589733474,157.48325311334995,210.35742799664044,180.3400548286256
2.5358692025358693,245.91753950795075,62.92313609381215,151.6818648406239,81.67194374209907,132.17123025996784,157.656916222841,210.810400308534,180.11676245482167
2.569235902569236,256.4576594214234,62.90375838257775,157.31507085781004,83.70633565029239,132.08037209973284,157.79399986496048,211.3092259145951,179.93265711392775
2.6026026026026026,265.97413777929785,62.50895123337644,162.25841376255593,85.90671609548491,132.02069348835718,157.9312930616127,211.7627887900559,179.76243655735342
2.6359693026359694,274.4387057493992,62.24338829312191,166.5599796654659,87.40072752099417,131.88697623825817,158.06617800583308,212.29887097879816,179.61252076654648
2.669336002669336,281.6692378179277,61.76812172106842,169.8424815714914,88.86584362984837,131.71727939277525,158.21207211022357,212.84798003946312,179.47503210842942
2.702702702702702,287.6616278621696,61.62638291028844,172.34192147315838,89.29510033316117,131.52369072815463,158.3819617826022,213.4401598852124,179.33728131802067
2.736069402736069,291.87733927490666,61.32018259763719,173.74458360553334,89.13364933921976,131.26195715927025,158.61328630753474,214.12562494468887,179.1560010572377
2.7694361027694363,294.71776614176696,60.86665043701005,173.7871368720286,87.90960541264734,130.93858169528193,158.82582703208806,214.8892017365469,178.97824315570637
2.802802802802803,295.7819176343113,51.96625605230798,172.24693741071474,87.50223745037526,130.5719193371653,159.04858357984506,215.70371757139827,178.800366613311
2.836169502836169,295.0581504661322,45.95745734440791,169.12776935254283,84.35474455137553,130.180285856568,159.2700784012696,216.5299981130452,178.62728688000684
2.8695362028695364,292.4403145142684,42.11268631007651,164.50422051883257,79.06914554658053,129.82338741181923,159.48952131174275,217.3712599841721,178.40645448786373
2.902902902902903,284.9048732482372,40.81665740688639,163.12555484187908,77.05386881337058,129.43429471640198,159.69486573696565,218.23500925277867,178.1870958076026
2.9362696029362696,275.0273886327085,50.01977248319692,162.12067101610813,75.5788126422099,128.98800363276314,159.9091983461418,219.0974842366956,177.92635717590807
2.9696363029696364,274.9510658317903,58.82097166073286,161.92777416377723,74.83233198554655,128.52174357827437,160.05224586960512,219.9296510823304,177.75073901226972
3.003003003003004,274.8557248639355,67.38432043794677,161.7231444392859,74.40163993772117,127.9945470691328,160.127897476958,220.7875476660309,177.66957869125935
3.0363697030363697,274.73602118655145,75.38236317545972,161.69308467951532,73.23088704441099,127.44040560345576,160.09190327216814,221.6447203767315,177.7096939079946
3.0697364030697365,274.6020195263923,82.77519558425129,161.8794688837035,71.99145840657708,126.90570014263008,160.0929415131123,222.4346390924373,177.69170686416317
3.103103103103104,282.2721113987083,89.62516645888016,167.52296979198323,71.65965840428257,126.41711775378047,160.05008945291064,223.1081004245598,177.7535554502748
3.1364698031364697,285.8144385493709,96.31144371958796,166.5353893361238,72.06292717280996,126.0540182669955,159.95451106345487,223.6673533724377,177.9226972599311
3.169836503169837,288.00786825704114,101.99037825100842,169.92554320139791,71.95219104298967,125.7201724303214,159.76632163652053,224.23704840545312,178.26125090270932
3.2032032032032034,288.90195327254327,106.91277689933034,172.15333336666544,71.12431772551454,125.33731917903889,159.58731492483855,224.92331126048828,178.6024156440105
3.2365699032365702,288.26872250447974,111.05275304808458,173.0872882088419,70.36535275368371,124.95409334822617,159.2976214567073,225.55550725610223,179.09160494002867
3.2699366032699366,286.5709536523805,115.03983633470884,173.22143435680195,71.84709337075395,124.55762396088195,158.91425229770397,226.0322654769194,179.63098994642152
3.3033033033033035,283.16946395638735,118.31540637338269,172.25281311792162,72.8846420679322,124.15849938786334,158.3881649929076,226.40085308235405,180.3264387546089
3.3366700033366703,278.785360800808,120.88821507989428,171.11124882034582,72.74270634575355,123.6521145728628,157.7686272488127,226.87522907697607,181.0688709127136
3.3700367033700367,273.1634659521326,122.3139561347536,168.26194093047377,71.75956448562292,123.1952730064836,157.0215003016794,227.1866029369557,181.98914973812109
3.4034034034034035,266.36998184736314,123.30730618157482,164.85215206885024,71.73252072767588,122.80669837909348,156.1795411183389,227.199887289936,182.98310612696483
3.4367701034367704,258.3416477060391,122.91718042685262,159.51762326452416,71.26389256694912,122.54755979473867,155.2494944634548,226.9915526800451,184.13110204870685
3.4701368034701368,248.9260352885464,121.29964590243516,153.51314702067552,70.16983272186334,122.44163366162148,154.39325574257802,226.52901876166888,185.3415258431368
3.503503503503504,238.5333308153848,118.616038262186,146.83159012605435,69.07600245480747,122.47353662425422,153.48686284589627,225.9033475943963,186.69694986166604
3.5368702035368704,229.2364436661486,114.5593722572935,131.16217558624507,65.9483332819632,122.73855535525304,152.5126404742857,224.9953603054302,188.155450132291
3.5702369035702373,219.1390439894326,109.91376314657026,117.62460439644651,63.78019769063063,123.1683414794986,151.40304476570756,223.951153386938,189.80934362280968
3.603603603603604,208.6745238027821,104.82041558896276,107.3348905276783,63.17636899340256,123.79978384206234,150.21765551734867,222.8876215164061,191.6234574641161
3.6369703036369705,197.5190994498051,99.0091885651364,98.60547139464038,63.54129283110748,124.55144534905683,148.94975632316107,221.7425943661369,193.5659659283465
3.670337003670337,185.61695513841943,92.41347368661958,90.66036664104334,63.78891311249637,125.32800969884129,147.52759057810724,220.50381737241915,195.6351734477247
3.703703703703704,173.32685388001985,85.04023662096307,83.87578872679859,64.58578675898916,126.08429992359454,146.1117099443847,219.24680446023604,197.72546069644707
3.737070403737071,160.72006786729116,77.00131630782636,78.07815434642733,65.52611087968154,126.65563038285887,144.5884896347669,218.32017658838907,199.93073058624688
3.770437103770437,148.01280001531666,68.24900615382309,73.36849405866423,66.9236637277019,127.14467726450432,143.08178224609244,217.4717101763945,202.12634575737303
3.803803803803804,136.58632002901223,57.89450175365386,71.41048273749536,66.83411032744561,127.76841075213852,141.4427422039098,216.50269806931675,204.5044294885662
3.8371705038371706,124.78000667446688,47.32946339889622,69.76152860363322,67.95483737171699,128.3681009780362,139.92849155578978,215.5554847379416,206.77922443923936
3.8705372038705375,113.57619623786624,36.35937714204874,69.1034899437574,69.83957484555627,129.05116712346256,138.4702452685627,214.3806849045208,209.0246536893564
3.903903903903904,102.62451456976947,24.904644418616503,69.1737497160056,72.38595437531274,129.76615211569205,137.2249700328796,212.9772007942231,211.0121963751218
3.937270603937271,92.1107957915927,13.08044777372535,70.32002432483807,76.50826123067468,130.59972247047577,136.2904548946227,211.34634332626052,212.7099730425845
