Time,Left Shoulder Angle,Right Shoulder Angle,Left Elbow Angle,Right Elbow Angle,Left Hip Angle,Right Hip Angle,Left Knee Angle,Right Knee Angle
0.0,5.910751797260229,43.184064129775685,168.26375867678354,151.49644182532995,125.18195439036135,134.12786690298964,222.1090711597856,199.1883140133465
0.0333667000333667,6.160550444851874,42.81105128876675,167.43143970780127,152.5883400844342,125.43106791739022,135.12227332594716,222.0848421996855,198.7859077650589
0.0667334000667334,6.5457274355959445,42.46239912704735,166.7011740765505,153.6275411204492,125.70390761928944,135.97607197509595,221.9731293501148,198.45580543931104
0.1001001001001001,7.055914684970282,42.13676182725271,166.07040935526047,154.61600449781574,125.9965616011793,136.69721862219222,221.7823440068683,198.19404911958324
0.1334668001334668,7.680744108452725,41.832793572018055,165.53659311616047,155.55568978097463,126.30511796818014,137.29366903899222,221.52089756574088,197.9966808893559
0.1668335001668335,8.409847621521115,41.54914854397863,165.0971729314799,156.4485565343667,126.62566482541231,137.77337899725222,221.19720142252743,197.85974283210936
0.2002002002002002,9.23285713965329,41.28448092576965,164.749596373448,157.29656432243274,126.95429027799612,138.14430426872843,220.8196669730228,197.779277031324
0.2335669002335669,10.139404578327095,41.03744490002636,164.49131101429404,158.10167270961358,127.2870824310519,138.4144006251771,220.39670561302185,197.75132557048016
0.2669336002669336,11.119121853020363,40.80669464938399,164.3197644262474,158.86584126035,127.62012938969998,138.5916238383545,219.9367287383194,197.77193053305825
0.3003003003003003,12.16164087921094,40.59088435647775,164.23240418153733,159.59102953908285,127.9495192590607,138.68392968001683,219.4481477447104,197.8371340025385
0.333667000333667,13.256593572376664,40.3886682039429,164.2266778523932,160.27919711025285,128.27134014425434,138.69927392192034,218.9393740279897,197.94297806240144
0.3670337003670337,14.393611847995375,40.19870037441464,164.30003301104426,160.9323035383009,128.5816801504013,138.64561233582128,218.4188189839521,198.08550479612728
0.4004004004004004,15.562327621544911,40.01963505052823,164.44991722971983,161.55230838766778,128.87662738262188,138.53090069347593,217.89489400839247,198.2607562871965
0.4337671004337671,16.752372808503118,39.85012641491888,164.6737780806492,162.14117122279427,129.15226994603637,138.36309476664044,217.3760104971057,198.46477461908933
0.4671338004671338,17.953379324347836,39.68882865022184,164.9690631360617,162.70085160812118,129.40469594576516,138.15015032707117,216.8705798458868,198.69360187528628
0.5005005005005005,19.15497908455689,39.53439593907232,165.33321996818665,163.23330910808934,129.62999348692853,137.90002314652423,216.3870134505304,198.9432801392676
0.5338672005338673,20.346804004608146,39.38548246410555,165.7636961492533,163.74050328713955,129.8242506746468,137.62066899675594,215.93372270683145,199.20985149451369
0.5672339005672339,21.51848599997952,39.24074240795712,166.2579392514923,164.22439370971395,129.98355561404142,137.32004364952363,215.5191190105866,199.48935802450643
0.6006006006006006,22.875955771371693,39.22527413474152,166.8747582188785,164.8956079442978,130.058009761348,137.08906979135904,215.0660595483391,199.71254364557868
0.6339673006339673,23.981942412811755,39.24988767121162,167.5384076180601,165.6380028372424,130.11454530071208,136.84810366378647,214.7605307890221,199.9548856587212
0.6673340006673341,24.96143251948208,39.331604569875495,168.3688698331734,166.4117922810895,130.1719884825816,136.590757123327,214.56958818886247,200.2111770318996
0.7007007007007008,25.771871534953288,39.31840254773377,169.20824995621638,167.0260082950644,130.1796718133793,136.34302245272448,214.51242824201108,200.4762031745144
0.7340674007340674,26.450444990718584,39.214329445048406,170.1375055602352,167.4912939134571,130.1901088163707,136.11585187389628,214.5134250879092,200.72902494809125
0.7674341007674341,26.92916528850664,39.01743881814321,171.08471027784526,167.83573486815422,130.1511981451036,135.9184424099753,214.62959617000064,200.98422395790843
0.8008008008008008,27.467400646412564,38.87892508806436,172.1312719965792,168.15061497029416,129.67765304126644,135.6853128611145,215.1225393213373,201.25126462786244
0.8341675008341676,28.17280674225978,38.6388798310038,173.35594829759475,168.4138813330221,129.21555783033827,135.48020497915883,215.6559358382644,201.5229852830093
0.8675342008675342,28.899987021382408,38.356816758184735,174.42332097309992,168.54546136126987,128.40554672019627,135.30522312064352,216.50704085561784,201.7884107028054
0.9009009009009008,29.520871667106164,37.97125933149598,175.41842468533687,168.57680198435074,127.64649414703965,135.18621449802225,217.3668172067417,202.03242857413235
0.9342676009342676,30.02667841832627,37.50085352823622,176.36590368622143,168.40771453881493,126.88503669605038,135.12783240927772,218.545653706865,202.2569062875469
0.9676343009676344,30.337823678955083,36.92143766365826,177.33263090738706,168.12524226391903,126.2451226583882,135.1309618228232,219.65465961065905,202.45333234367865
1.001001001001001,30.536283251345044,36.47933808683583,178.31868860213706,168.0754076164879,125.72510597876186,135.16384698395944,220.5708358257613,202.6279404865056
1.0343677010343677,30.377888921213867,35.89605996565715,178.64750804062132,167.9643981043921,125.26946222529088,135.26546892356717,221.2914407623456,202.76957985721347
1.0677344010677343,29.91289115129221,35.26313723714415,178.5798873980758,167.79553474416693,124.83531185285624,135.44257604423964,221.8774416844868,202.8607099991045
1.1011011011011012,29.38643880237828,34.480928233904585,178.69445463012948,167.4657181240829,124.4492442721336,135.6884911897339,222.3034519551537,202.9166840520993
1.1344678011344678,28.83216845329478,33.70074476098355,178.82517887402287,167.176623311477,124.22226730180948,135.98479761692244,222.2067223456432,202.94241098043344
1.1678345011678346,28.358244496741776,32.74433155121199,179.0730128227757,166.66799850918716,124.1248852071652,136.34659307515406,221.77175312156228,202.9295346639893
1.2012012012012012,27.844145359022164,31.610237566351937,179.35777117648036,165.91070658556907,124.15285851416044,136.7629287433739,221.2434422810308,202.9904380982348
1.234567901234568,27.31912507294815,30.24676385870641,179.57454481162037,165.02033443435027,124.11158335003972,137.1555312886678,220.79380910051327,203.05675876701105
1.267934601267935,26.88005470908842,28.65382955267012,179.6666076009837,163.85757122026615,123.75780437355328,137.37040933414963,220.69415087904565,203.18124143161688
1.3013013013013013,26.4155843692238,26.897700409038308,179.853655468888,162.5272217496708,123.31322826508072,137.57344976292043,220.74386971544263,203.2771177835332
1.334668001334668,25.95877663846116,24.93678637132217,180.0464020016805,161.2695919900536,122.72545297593184,137.83918807713874,220.91955456013,203.29362110518872
1.3680347013680347,25.3773150480006,22.97046423905593,180.28542493640143,159.91910596810942,122.12030590289942,138.13951200063588,221.15490676565423,203.2456922072552
1.4014014014014016,24.63386497533707,20.99279016958528,180.3768044253516,158.23988049455892,121.6649686663265,138.5193460520406,221.33838929702844,203.11249850466808
1.4347681014347682,23.71592034333696,19.08821130867342,180.4408625830348,156.37488269098577,121.3362138816152,138.95484915526333,221.46408987200772,202.90992455547536
1.4681348014681348,22.492240551240144,17.152205016366057,180.2914163977764,154.45645322849683,121.08423031330264,139.4353178540704,221.54918370799007,202.6396309154314
1.5015015015015016,21.114323243804527,15.33838107679144,180.18797659840268,152.55338298947902,120.88473591658084,139.96704772082362,221.58614236886712,202.30849339675825
1.5348682015348682,19.61587754436521,13.667413655390233,179.98689677207818,150.48175402542049,120.72398010942022,140.50621016133394,221.6040671165569,201.9524485725585
1.5682349015682349,18.216839163115225,12.04092759957496,179.81712825514785,148.482239741987,120.65662946248472,141.0783190032369,221.47232217465435,201.5650977279777
1.6016016016016017,16.89475949198211,10.454737799645818,179.39659823581508,145.66854135847692,120.80747895026148,141.64523488591337,221.10450326836792,201.15586388687944
1.6349683016349683,15.61186001225778,9.087765243799266,179.16131818671337,143.3026195404189,120.89809835183102,142.21450669436604,220.87333794445183,200.73418876013403
1.6683350016683351,14.1704401988018,7.724016806871772,178.93360124031747,141.98628224092624,121.02144592887532,142.76052327084307,220.71287540576003,200.3114530673529
1.7017017017017018,12.76965754396132,6.612546286870385,179.06646075242077,141.10926382703923,120.94836943244675,143.2703161774737,220.8154311087856,199.8879962353335
1.7350684017350684,11.347586784420976,5.648266091096504,179.23144883432386,142.2574836102788,120.77351869470924,143.75357483081496,221.0621755648219,199.45693137740324
1.7684351017684352,10.073924422275534,4.900423524213075,179.7769484940698,141.219525100883,120.57470001894542,144.24624772782883,221.380848595791,199.0293349945796
1.8018018018018016,8.962843687592684,4.23190733139229,183.13119771823287,144.3672290260909,120.35657217679068,144.7551077391298,221.74405494799305,198.60547263459307
1.8351685018351689,8.098613253379787,3.800352680529966,185.97762229078845,146.6222015859993,120.08973755929507,145.27559145188627,222.19583772297744,198.18803569035936
1.8685352018685355,7.25535934337931,3.770037998138133,188.3642957015222,148.6401037949609,119.75752691336967,145.76348417232273,222.7520463814083,197.77512918535032
1.901901901901902,6.599908981125738,3.770037998138133,190.04087501028368,147.23251970392016,119.3583510599288,146.20612684280113,223.46972917511613,197.4049833360912
1.9352686019352687,6.127669167956092,3.770037998138133,191.27973297508493,148.5609123721852,118.92053528069808,146.60126937932193,224.35074604873407,197.0691569327937
1.968635301968636,5.827986824448649,3.770037998138133,191.82003255321413,148.4425280622821,118.471538198644,147.02506148979828,225.34646256823768,196.75081237332867
2.002002002002002,5.755832369815634,3.770037998138133,191.8547599144944,146.95069965425276,118.05325847046886,147.43261071207158,226.38549037890127,196.4621103157232
2.035368702035369,5.755832369815634,3.770037998138133,191.3746147850776,145.72006171276186,117.73008749336108,147.83708018336944,227.382258569168,196.2079088296755
2.0687354020687354,5.755832369815634,3.770037998138133,190.3002474290473,142.39708686670846,117.5013595128073,148.21743007902256,228.29858028164807,195.9959181443237
2.1021021021021022,5.755832369815634,3.770037998138133,188.78639387517168,138.8513345592499,117.42624187337502,148.56802823014553,228.7315997847226,195.8251104265999
2.135468802135469,5.755832369815634,3.770037998138133,186.9469291248816,135.0774323285341,117.44534874838205,148.8996323039785,228.91100331336332,195.69937810540904
2.1688355021688355,5.755832369815634,3.770037998138133,184.7407171046546,130.78377319577885,117.51993543487814,149.22434352402246,228.9415920701118,195.6089204213146
2.2022022022022023,5.755832369815634,3.770037998138133,181.93821895458893,126.6543057827016,117.68633679507474,149.51503378459338,228.8102353589229,195.5557185545371
2.235568902235569,5.755832369815634,3.770037998138133,179.12897218639355,122.25869040798008,117.94872763189407,149.75735281852835,228.49536431102047,195.571343054017
2.2689356022689355,5.755832369815634,3.770037998138133,177.15536736829077,117.64410185984954,118.2912262286268,149.94335942335536,228.00070007469805,195.6577276202304
2.3023023023023024,5.755832369815634,3.770037998138133,175.02012166496309,112.68829111334884,118.57984805544992,150.08137930164514,227.793221739882,195.8113951087604
2.335669002335669,5.755832369815634,3.770037998138133,171.0059045977618,107.30548360995586,118.748837208363,150.18308405671547,227.89349278028573,196.04004293398967
2.369035702369036,5.755832369815634,3.770037998138133,166.72666293952017,101.97178962947612,118.72455639169786,150.22362950914027,228.19398343969388,196.19974595350223
2.4024024024024024,5.755832369815634,3.770037998138133,162.74936614350585,96.88743146884158,118.55726046235849,150.1231046187941,228.7083664640319,196.40519984300172
2.4357691024357693,5.755832369815634,3.770037998138133,158.96758867178764,92.14394815864364,118.54447096944502,150.11617847296455,229.1234741228245,196.54629437032509
2.469135802469136,5.755832369815634,3.770037998138133,155.4892904424779,87.61441459904279,118.56210269685488,150.1298976616809,229.5149016919966,196.6619861152265
2.5025025025025025,5.755832369815634,3.770037998138133,152.29252355793363,83.05575209497566,118.7205584997936,150.12916877341857,229.8490270527957,196.77600190839755
2.5358692025358693,5.755832369815634,3.770037998138133,149.2522448599245,78.7175837517762,119.02134700411732,150.12556234429667,230.04515196173853,196.88138324090903
2.569235902569236,5.755832369815634,3.770037998138133,146.4620174214188,74.7308572583352,119.28376888572596,150.08485765338955,230.24730499708784,197.00191562963235
2.6026026026026026,5.755832369815634,3.770037998138133,143.84512055686315,71.1471480418575,119.50435796335424,149.99769990654468,230.4624498274368,197.13996820064727
2.6359693026359694,5.755832369815634,3.770037998138133,141.6494587240783,67.93979436188916,119.69418807462088,149.8658189473243,230.68544824475657,197.30842556898872
2.669336002669336,5.755832369815634,3.770037998138133,139.64839033185774,65.1885164505285,119.8653347381503,149.69520998111852,230.91653566554345,197.49890557591945
2.702702702702702,5.981497697280298,3.770037998138133,138.02137981049265,63.17182614325212,120.0216225405335,149.49640622540122,231.09837097611705,197.6838200326698
2.736069402736069,6.449382920221738,3.770037998138133,136.829315371848,61.84940821809052,120.17433241971833,149.2408285085019,231.2737390608581,197.894211662952
2.7694361027694363,7.198159620134412,3.770037998138133,136.52691467803558,62.477030687845385,120.16421806412892,148.98471316354593,231.5236598685424,198.0987017715739
2.802802802802803,8.328137847397528,3.770037998138133,136.92877595693722,64.41174227067918,120.09643730770163,148.7321898040958,231.6870829629193,198.2926007718464
2.836169502836169,9.672994464552549,4.129322145565683,138.24392547374487,66.87523215618458,119.86783748833808,148.50459364399953,231.87557766732544,198.4661165883259
2.8695362028695364,11.104919323703482,4.899965366457777,140.18326599426732,70.19457847180144,119.66335830706,148.3023665508177,232.0213836712994,198.61383058592085
2.902902902902903,12.856591291976676,5.856414961890985,143.12438991385764,72.26799113277345,119.41777777061158,148.1042365239557,232.18161646891912,198.7667216586784
2.9362696029362696,15.331298369996532,7.0051617464228695,146.6094561975881,77.51457528438854,119.10078088924683,147.92493673127166,232.5238666709826,198.90281547350992
2.9696363029696364,17.96583159042886,8.30247437301951,147.63104033604446,78.713264983532,118.71489884891795,147.72397979521506,232.9757923565923,199.0504202748804
3.003003003003004,19.57090295439384,9.605680784454767,148.69344181988794,79.6695197004945,118.2116914746268,147.5205933443336,233.5061584308617,199.16810331516385
3.0363697030363697,21.18713503896221,11.11569668148238,149.90082777092888,79.69271263176455,117.69296557958188,147.3211419341575,234.08469432392928,199.30842654793628
3.0697364030697365,14.45859022720884,12.711881751828148,152.515265965967,82.54373513791734,117.03584098428188,147.08774322515444,234.83727467010868,199.4606176453084
3.103103103103104,10.593650209868192,14.25331009510498,154.80235990503962,82.12762727554592,116.39835436541875,146.85829699389356,235.608832687158,199.63316223237592
3.1364698031364697,9.524751796630705,15.975588733770694,156.34273132756238,82.71409383131305,115.66794751279808,146.7221161845328,236.50823440589727,199.75132413531887
3.169836503169837,10.764365379227312,17.718440113213212,157.37718614578293,83.11703347888734,115.009192057205,146.5799310142948,237.39418937104787,199.91392408037424
3.2032032032032034,14.26151527319551,19.431531465066545,154.90629655144335,81.78408902447785,114.28508379341984,146.4248864188153,238.16027809490896,200.13283969529863
3.2365699032365702,19.64823659653261,21.029760235340124,153.41258788309963,81.45311301253606,113.67214699384056,146.2489279714249,238.9571161451325,200.3746347978685
3.2699366032699366,26.72910284703279,22.359882578268543,153.2452638287294,80.58353150000998,113.18715424571548,146.03283156438627,239.74097470152003,200.6732415367944
3.3033033033033035,35.50981904917397,23.73893983740493,153.3645576147937,79.68604902879913,112.85751304781392,145.76016709464648,240.395772966556,201.0521376848393
3.3366700033366703,45.74849735588285,25.27162870508812,153.83527740357303,76.2224347120765,112.66580867665051,145.57294037052404,241.0063065220185,201.4115492551805
3.3700367033700367,57.2620757459129,26.999741187801785,154.57713684135328,72.59917160749075,112.6434042069467,145.3922369166171,241.37333312253887,201.82444504638056
3.4034034034034035,69.71340469514203,28.751595225829632,155.52199495074382,69.82061683127344,112.65183495494756,145.2045447595611,241.7332205205006,202.3135889581945
3.4367701034367704,82.90108739284554,30.658857046324705,155.31213767616245,67.82926750023096,112.79110770676024,144.9989518653561,241.89449350552047,202.875699632434
3.4701368034701368,96.66616101381771,32.62620436000679,154.91343006464228,66.76436459484023,113.09369815835704,144.70260724088274,241.74613926172967,203.5017893662144
3.503503503503504,111.10879247867376,34.57281177881326,156.0384449703547,66.62702359992092,113.5907194304139,144.34908809739852,241.24243217990687,204.1951606693846
3.5368702035368704,125.95128122003116,36.394071331678745,157.7551538698723,66.98019519126373,114.20788071599996,143.91498468990272,240.51773470590612,204.95513425480777
3.5702369035702373,141.1938294453684,38.25288921290131,159.45645958638872,67.60658863163428,114.97116908038817,143.4598872021729,239.4150939684308,205.7647478016088
3.603603603603604,156.52651082063397,40.037834565433016,161.55392321418023,68.56170530518894,115.89401574914538,143.15502203804493,238.09036400812272,206.5745297629034
3.6369703036369705,171.80954089620454,41.71083531007682,163.4711536784547,69.99031923656379,116.92651780013064,142.8911014486981,236.48000869554136,207.38156400480244
3.670337003670337,186.6794941088283,43.2449975144997,165.48093516999344,72.35639676046785,118.02845601298596,142.59554803794046,234.5885197016653,208.21570511336563
3.703703703703704,201.4131146890003,44.70459292299557,167.3547058676899,75.05821299415895,119.1966155196659,142.30828807548895,232.5283692446516,209.0769286798558
3.737070403737071,225.59263295089872,46.02912849645318,169.68327720212173,77.84758843750333,120.42223635831922,142.05426205193888,230.38040009559,210.04662974053485
3.770437103770437,246.54555371627583,47.4454594475804,172.20878047469543,80.75865599371693,121.80842857810994,141.78956298995536,228.03928481331053,210.97614790272127
3.803803803803804,264.19526243705366,48.77808138237321,175.097789569517,83.98466471496226,123.7193936746159,141.60796467512836,225.191554419018,211.9256461400398
3.8371705038371706,278.2027277445208,50.16949103079048,177.65357785325548,87.2042610847257,125.67604287469337,141.41211493697477,222.2078531661716,212.76676636835708
3.8705372038705375,288.53301206581045,51.66199814845497,180.06237860118424,90.77861918918312,127.66750406457648,141.30873872481138,219.12988174111447,213.5045198171288
3.903903903903904,295.23835463192336,53.24099888239249,181.84838381154867,94.1388545564036,129.52062844176058,141.25904216249123,216.0709320839717,214.0194519363873
3.937270603937271,298.8897200672976,54.86038089545015,183.1025117995519,98.11813511900522,131.21278751813034,141.1417856394646,213.07490262070056,214.366173273368
