Time,Left Shoulder Angle,Right Shoulder Angle,Left Elbow Angle,Right Elbow Angle,Left Hip Angle,Right Hip Angle,Left Knee Angle,Right Knee Angle
0.0,5.993908421440676,5.701165788936309,196.40485079033172,123.5613233990948,168.1035467459065,205.1165970192654,180.00946219700205,185.1100372489336
0.0333667000333667,5.524308609301017,4.884824759166502,195.20175939116024,129.24815337822642,167.7941621104557,204.6482632366304,180.33168759316092,185.0911648500768
0.0667334000667334,5.1007431057630725,4.16745289633946,194.11934081692937,134.81144605353617,167.5426290758246,204.2318788745665,180.60306744063888,185.13303102185165
0.1001001001001001,4.720548247190044,3.5436292357001955,193.153317737598,140.22467989865157,167.34564106316134,203.8659981112658,180.82615973511943,185.22912514670463
0.1334668001334668,4.381060369945136,3.007932812493725,192.2994128231248,145.46133338720017,167.199891493614,203.54917512492025,181.00352247228625,185.37293660708224
0.1668335001668335,4.07961581039155,2.5549426619650624,191.55334874346872,150.49488499280952,167.10207378833076,203.2799640937216,181.13771364782292,185.55795478543084
0.2002002002002002,3.813550904892492,2.179237819359222,190.91084816858853,155.29881318910716,167.04888136845966,203.05691919586184,181.2312912574133,185.77766906419689
0.2335669002335669,3.580201989811164,1.8753973199212195,190.367633768443,159.84659644972072,167.0370076551489,202.87859460953288,181.28681329674075,186.0255688258268
0.2669336002669336,3.3769054015107693,1.6380001988960693,189.9194282129909,164.11171324827765,167.06314606954658,202.74354451292652,181.30683776148905,186.29514345276692
0.3003003003003003,3.2009974763545115,1.4616254915287854,189.5619541721912,168.06764205840557,167.12399003280078,202.65032308423488,181.2939226473418,186.579882327464
0.333667000333667,3.0498145507055936,1.3408522330643835,189.2909343160025,171.68786135373202,167.21623296605964,202.5974845016497,181.25062594998263,186.87327483236413
0.3670337003670337,2.920692960927219,1.2702594587478782,189.10209131438376,174.94584960788453,167.3365682904713,202.5835829433629,181.17950566509523,187.1688103499139
0.4004004004004004,2.810969043382591,1.2444262038242817,188.99114783729368,177.81508529449067,167.48168942718385,202.6071725875664,181.0831197883632,187.45997826255976
0.4337671004337671,2.7179791344349136,1.2444262038242817,188.95382655469112,180.269046887178,167.64828979734546,202.6668076124521,180.9640263154702,187.74026795274813
0.4671338004671338,2.6390595704473885,1.2444262038242817,188.98585013653488,182.28121285957403,167.83306282210418,202.76104219621195,180.8247832420998,188.00316880292544
0.5005005005005005,2.5715466877832207,1.2444262038242817,189.0829412527837,183.8250616853064,168.03270192260817,202.8884305170378,180.6679485639357,188.24217019553805
0.5338672005338673,2.5127768228056127,1.2444262038242817,189.2408225733965,184.8740718380026,168.24390052000555,203.0475267531216,180.4960802766616,188.4507615130325
0.5672339005672339,2.4600863118778054,1.2444262038242817,189.45521676833349,185.4017217912917,168.46335203544575,203.2368850826568,180.31173637596245,188.6224321378568
0.6006006006006006,2.430104114238553,1.2444262038242817,189.82817653692567,178.2015710776963,168.61955008658978,203.4141770948132,180.1451920836024,188.6905090158416
0.6339673006339673,2.419996289094628,1.2444262038242817,190.32566485624056,173.68213206530143,168.79487426870702,203.64085900602413,179.9580801509801,188.6696915754645
0.6673340006673341,2.406874305498374,1.2444262038242817,190.93816405537444,170.13389197856827,168.98481607232029,203.9317667290124,179.75910245066265,188.54985171970543
0.7007007007007008,2.333391638193321,1.2444262038242817,191.44028841248692,167.40589621676224,169.17236592946023,204.2714205912584,179.55816262854836,188.3390010940138
0.7340674007340674,2.210100888117173,1.2444262038242817,191.93074295886285,164.8677952698779,169.38435507527157,204.7154159430483,179.35373551365518,187.95946926444103
0.7674341007674341,2.054465003603572,1.2444262038242817,192.38074978673075,162.64677292193244,169.59562606440988,205.2136970207601,179.15714321127692,187.48354483404225
0.8008008008008008,1.8819739511655589,1.2444262038242817,192.7993721020295,160.70319339430625,169.7965763931506,205.732688558536,178.96847395078382,186.9519725575105
0.8341675008341676,1.7000248984311022,1.2444262038242817,193.152739852056,159.1329979464187,169.9796543705382,206.20544252049228,178.79156372131874,186.4354063240452
0.8675342008675342,1.5737726920718926,1.2444262038242817,192.7590370981873,157.86955913655598,170.10200390408147,206.53223491217224,178.64427587390438,186.03083581477864
0.9009009009009008,1.4333600844608476,1.2444262038242817,192.3035775111969,156.78151526244432,170.20431277323698,206.83789241048632,178.51499874181138,185.6369290272061
0.9342676009342676,1.2700006776925437,1.2444262038242817,191.975174636074,155.881518775922,170.2716977056778,207.10834157790268,178.38109394399288,185.24833195094337
0.9676343009676344,1.0943823183097847,1.2444262038242817,191.852055841211,155.2380850923678,170.3228763027768,207.3807820103776,178.28383219408576,184.83185976744463
1.001001001001001,0.7594817201805278,1.2444262038242817,191.99930555833896,154.5665954696346,170.35164983068833,207.61031127442072,178.22853479469646,184.4662874279787
1.0343677010343677,0.4743388983720321,1.2444262038242817,192.27962678708525,154.03334865961693,170.36566760342353,207.80600788301123,178.20832944509942,184.098783742076
1.0677344010677343,0.2433835758750105,1.2444262038242817,192.6878197838469,153.6159074491517,170.3709458921442,207.9746719393567,178.21689260962845,183.70910896354115
1.1011011011011012,0.0924444303593378,1.2444262038242817,193.35506123092028,153.44718432626092,170.3992517872384,208.1517402739904,178.20562234076962,183.29790641820608
1.1344678011344678,0.0115745761934096,1.2444262038242817,195.0428019514661,153.69376749982277,170.5153529173923,208.5032489090502,178.15835288930816,182.74692345879745
1.1678345011678346,-0.1174347795724313,1.2444262038242817,196.41716619541504,154.1534861390498,170.64837745250318,208.82148106439703,178.10333747295616,182.2020847585368
1.2012012012012012,-0.1506385038568173,1.2444262038242817,197.54330149927688,154.77387015437208,170.7820620552255,209.0877537902905,178.05277598867298,181.6828982585634
1.234567901234568,-0.0443288226448123,1.2444262038242817,198.5037391614809,155.77656007868637,170.90990593652035,209.329311699648,178.01836959950165,181.19272146286727
1.267934601267935,0.2003131134587132,1.2579315035386127,199.26290584497605,156.69957529833863,170.98467594127888,209.47753931546544,178.00576783087294,180.784718417624
1.3013013013013013,0.5722096653138405,1.3053543931358842,199.78667015985263,158.00199148638046,171.02831298051282,209.5874670160299,178.01333949068191,180.4288522113278
1.334668001334668,0.97760165590801,1.3053543931358842,200.1755714772892,159.68186750578496,171.07097458576337,209.69003904500084,178.0398656997124,180.09065827043082
1.3680347013680347,0.97760165590801,1.38127390786111,200.5375266645606,161.68290520752416,171.14387302571717,209.751162576079,178.0462894564686,179.79075219911718
1.4014014014014016,0.97760165590801,1.38127390786111,200.9230468983004,163.98181094297874,171.30960771685886,209.8836042602849,178.0050354131945,179.48145474444942
1.4347681014347682,0.97760165590801,1.480269082959306,201.07323522155107,166.646623693578,171.52391979740963,209.9936787914669,177.94071056446188,179.22060303331298
1.4681348014681348,0.97760165590801,1.480269082959306,200.97053795503592,169.7052933070089,171.72275383286575,210.0388736853658,177.86862762860602,179.03263316243456
1.5015015015015016,0.97760165590801,1.480269082959306,200.92263213322963,173.142200070995,171.92310200208058,210.07575669314127,177.79156450485507,178.91184647697162
1.5348682015348682,0.97760165590801,1.480269082959306,200.4462710500977,176.3281919023438,172.10069563365215,210.0465529096432,177.7338937068449,178.8787306535032
1.5682349015682349,0.97760165590801,1.5969189536755022,199.5251725571165,179.96974105832328,172.2581636616938,209.94511457346547,177.68979349175723,178.94205289488127
1.6016016016016017,1.3864489493422982,1.5969189536755022,198.5835363885641,184.13593661242345,172.3995299108023,209.7751361986648,177.65900761646398,179.10269168708518
1.6349683016349683,1.3864489493422982,1.741090358845647,198.03461026455616,182.5735176915624,172.50950780441048,209.58172907084625,177.65899033981773,179.17627091413644
1.6683350016683351,1.3864489493422982,1.8396295316671687,198.800442231948,179.77232298457633,172.59391872670793,209.3518404181927,177.68122085972212,179.21944086519372
1.7017017017017018,1.3864489493422982,1.860708697022212,199.2892106124989,177.09829976477326,172.67222493300088,209.1036664835777,177.7176875469957,179.2426692319905
1.7350684017350684,1.3864489493422982,1.8750206609716515,199.366350038809,175.10773965410078,172.74094247046725,208.8300177036241,177.77022963965564,179.24615863552702
1.7684351017684352,1.3864489493422982,1.762896586266789,198.76394105314608,175.47154901244326,172.809022228977,208.55599759894628,177.83886710990953,179.2386500142559
1.8018018018018016,1.3864489493422982,1.6716586314545048,195.31263837397069,175.8558212725441,172.82266339171838,208.2645805647508,177.95913029445103,179.23061975137594
1.8351685018351689,1.3864489493422982,1.649290553563115,191.58759330665785,176.2613459308286,172.81363474921682,207.9669189181244,178.09863681018737,179.236650829643
1.8685352018685355,1.3864489493422982,1.60812582603827,188.47130377698176,176.76274448304602,172.79185932134502,207.6615622282904,178.24042056335028,179.25975147977147
1.901901901901902,1.3864489493422982,1.5607972577581797,185.49367885064083,177.52726836803845,172.74605382346667,207.2707633806652,178.38206518570266,179.40497046851212
1.9352686019352687,1.3864489493422982,1.5703989018544933,184.40666802077973,178.3671670066014,172.7498008978459,206.8598821029768,178.4937748577581,179.56719531742445
1.968635301968636,1.7473611948255623,1.6212994989626717,182.9423364612716,179.3400569446897,172.7664941237505,206.39747191032583,178.58495670309338,179.79135619268723
2.002002002002002,1.7473611948255623,1.7173361024669236,181.27534502650985,180.46960344604344,172.78532331107624,205.89565311713952,178.66052981092022,180.08759862023504
2.035368702035369,1.7473611948255623,1.7173361024669236,180.41955635350828,181.6456836817592,172.83989913376664,205.4631208527909,178.70358276968153,180.3676499235788
2.0687354020687354,1.7473611948255623,1.7173361024669236,180.79919064442075,183.22972009045964,172.87791641805327,205.0294441603224,178.70903538725912,180.69497303066728
2.1021021021021022,1.7473611948255623,1.8323337754180984,181.41205098258405,184.92151496368453,172.9558061408374,204.61481183682008,178.6998721786103,181.0501533172377
2.135468802135469,1.7473611948255623,1.8323337754180984,182.2594541189665,186.55432268505112,173.06066757768116,204.1798226090893,178.67933052829224,181.45418803828213
2.1688355021688355,1.7473611948255623,1.8323337754180984,182.92414327645469,188.3118747949437,173.18863275093958,203.7859342193635,178.63459850510313,181.79679900568425
2.2022022022022023,1.7473611948255623,1.8323337754180984,180.99496529646703,190.32328835722976,173.2794313931402,203.3978977714856,178.5788924811319,182.10641913623164
2.235568902235569,1.7473611948255623,1.8323337754180984,180.23791439149576,192.2281655166659,173.34551436698032,203.092020531784,178.50871560749144,182.3504531366983
2.2689356022689355,1.7473611948255623,2.0606386470275195,180.48199149003537,194.00573856571472,173.4530779328736,202.86319770548675,178.4104887555781,182.552057466992
2.3023023023023024,1.7473611948255623,2.0606386470275195,179.92742210494478,195.34614098901392,173.50119261919394,202.49051503185828,178.3310848645388,182.88628727547035
2.335669002335669,2.1200828060904646,2.0606386470275195,179.78781648731774,196.48872671113747,173.49938834163325,202.18428915929388,178.27418548090293,183.2314347209345
2.369035702369036,2.1200828060904646,2.0606386470275195,180.1546705622175,197.3837451483204,173.48467224214173,201.9140836266433,178.21710422563785,183.57748289634912
2.4024024024024024,2.1200828060904646,2.0606386470275195,180.8387285242981,197.93263077256205,173.478569664306,201.67570869172732,178.1467545364275,183.9114979209473
2.4357691024357693,2.1200828060904646,2.0606386470275195,181.9286247050113,198.391812302557,173.54065529156512,201.5314031215377,178.04767901502166,184.17256179459147
2.469135802469136,2.1200828060904646,2.0606386470275195,184.31719401368773,204.58579807161053,173.62341981279863,201.56806485179567,177.91590821217594,184.37372332789784
2.5025025025025025,2.1200828060904646,2.0606386470275195,186.77284552275515,208.12754588299853,173.76405846462103,201.67200038480289,177.7516008629217,184.53592129522752
2.5358692025358693,2.1200828060904646,2.0606386470275195,189.1720554508546,208.2446159345436,173.98689857293235,201.817343123398,177.56412234293555,184.64856005342224
2.569235902569236,2.1200828060904646,2.412410090478717,191.1018653519084,205.98354219951864,174.17808088206056,201.84752307094243,177.3870270493662,184.7864433378193
2.6026026026026026,2.1200828060904646,2.412410090478717,192.70873495886187,202.05884218583887,174.4193264664634,201.80190058951143,177.2327135823563,184.92707618684483
2.6359693026359694,2.1200828060904646,2.412410090478717,194.1642222307364,200.29663773980857,174.7094206849208,201.6727141928064,177.09503044271273,185.0723879625128
2.669336002669336,2.1200828060904646,2.412410090478717,195.33228505811607,192.70630677212844,175.02928489437855,201.48074199490145,176.95273534795638,185.1933760840622
2.702702702702702,2.1200828060904646,2.412410090478717,196.68850085193068,182.63546328880847,175.3895013222815,201.27301222338983,176.78191089623792,185.2780921453653
2.736069402736069,2.4961723460706846,2.412410090478717,200.3320796000189,173.59420626726606,175.83723334840036,201.0745737755581,176.56741344037857,185.3188731217508
2.7694361027694363,2.4961723460706846,2.412410090478717,203.7314623679748,165.5973724652559,176.3266134693315,200.89797819884083,176.32294456159536,185.32223459391992
2.802802802802803,2.4961723460706846,2.412410090478717,202.90539420124404,158.44618703241585,176.80170704151715,200.69805796098265,176.07080430697232,185.2954917006216
2.836169502836169,2.4961723460706846,2.412410090478717,200.88822198952312,152.15031932310575,177.2492800808265,200.4953642039744,175.81774639879322,185.2337011845584
2.8695362028695364,2.4961723460706846,2.412410090478717,201.05411323714392,146.27400799335174,177.64742795205123,200.3309953510739,175.56270616870222,185.1238043379068
2.902902902902903,2.4961723460706846,2.412410090478717,200.0218469478208,141.12209556530604,178.01472025491648,200.17651254490613,175.30320482392824,184.97134819294573
2.9362696029362696,2.4961723460706846,2.412410090478717,198.63570743243253,136.93858754582297,178.3612469838128,200.02224741204148,175.04808340816462,184.7886785556101
2.9696363029696364,2.4961723460706846,2.9018439052173632,199.18069498253791,133.74318825387286,178.7394273450928,199.8917124384386,174.75434737035877,184.57633828384715
3.003003003003004,2.4961723460706846,2.9018439052173632,199.9802743093967,133.1974349095859,179.16816350660392,199.72411214750392,174.44046612552856,184.321555112425
3.0363697030363697,2.4961723460706846,2.9018439052173632,200.4969302830964,132.99993908082155,179.63166352220725,199.5707929657886,174.10925371760987,184.0168599652262
3.0697364030697365,2.4961723460706846,2.9018439052173632,200.782960265409,133.13642894481598,180.10390967884834,199.45257957176835,173.76710958828255,183.66894788470103
3.103103103103104,2.863230419489143,2.9018439052173632,198.8241143067598,133.73381124929446,180.49921481055395,199.31849461492936,173.44016942406097,183.3847348048032
3.1364698031364697,2.863230419489143,2.9018439052173632,196.0862045956208,134.6991699280268,180.7725515975021,199.1331667579896,173.13583035998704,183.1408129833348
3.169836503169837,2.863230419489143,2.9018439052173632,192.08460839761736,136.1492666483054,180.93151279758945,198.96050442268452,172.8600652794198,182.9437189556219
3.2032032032032034,2.863230419489143,2.9018439052173632,187.89983372991705,137.8390048177303,181.0130371265996,198.8019288480342,172.6103145523834,182.78671079200828
3.2365699032365702,2.863230419489143,2.9018439052173632,182.21635756204049,139.76604795295023,181.06673797495608,198.67329994489887,172.3923290417381,182.66202782874427
3.2699366032699366,2.863230419489143,2.9018439052173632,174.91123640289726,145.57030411837357,181.09553528143616,198.55732016474988,172.21455325610597,182.56802811676204
3.3033033033033035,2.863230419489143,2.9018439052173632,166.0909037777408,150.70244765111445,181.06414309099384,198.4751622326471,172.06329457271644,182.50297052162367
3.3366700033366703,2.863230419489143,2.9018439052173632,157.45736440435212,154.72017378853013,180.96085981548103,198.43552747306887,171.94573835317112,182.4582855081489
3.3700367033700367,2.863230419489143,2.9018439052173632,152.13179549755068,157.3973839657935,180.8522998320623,198.52430581645064,171.84418909894364,182.41224700493808
3.4034034034034035,2.863230419489143,2.9018439052173632,146.70487420053092,160.6189488171704,180.70897836123245,198.7139632015823,171.78895508057846,182.3964008414528
3.4367701034367704,2.863230419489143,2.9018439052173632,141.37968514986505,163.9366812800677,180.50803741884383,198.9916099757164,171.76856603388424,182.394375806192
3.4701368034701368,2.863230419489143,2.9018439052173632,136.85048951742,167.4661024420764,180.26753537440644,199.3265876323024,171.77467199566385,182.3897838953274
3.503503503503504,3.3160264786584146,3.489335957137808,132.99311806010525,170.7510816453824,180.04606310090256,199.63410426051536,171.76956426812913,182.39639219053
3.5368702035368704,3.3160264786584146,3.489335957137808,129.83067370553863,172.8158033450265,179.8255509145691,199.97359167283085,171.77146324643388,182.38653341795063
3.5702369035702373,3.3160264786584146,3.489335957137808,127.3759800630697,174.4029316801687,179.60202704685037,200.3375851151463,171.77473266008013,182.3751190707232
3.603603603603604,3.3160264786584146,3.489335957137808,125.57320789053156,175.94668248787582,179.3833504978428,200.73036331051,171.77459610581147,182.3665241375841
3.6369703036369705,3.3160264786584146,3.489335957137808,123.2437043321966,169.77543473143348,179.25060681500227,201.0091024137484,171.76764411645888,182.35976618881864
3.670337003670337,3.3160264786584146,3.489335957137808,117.17776103142651,159.47951014713425,178.14476963666394,202.0907731564356,171.54867864368626,182.7747965253454
3.703703703703704,3.3160264786584146,3.489335957137808,114.06717607245308,150.65294741854558,177.51516424320698,202.7246321356514,171.20847395468564,183.18898684726256
3.737070403737071,3.3160264786584146,3.489335957137808,112.19297837116396,142.292896965252,177.2708180347378,203.0472240604033,170.93721441480002,183.4796297270496
3.770437103770437,3.3160264786584146,3.489335957137808,111.60409928190532,134.80003600001314,177.31176253249393,203.1069570463453,170.74588598758515,183.59877063512667
3.803803803803804,3.3160264786584146,3.489335957137808,111.52754075826,122.77799842688891,177.55474359008286,203.0092205536188,170.55621530452115,183.64021521396063
3.8371705038371706,3.3160264786584146,3.489335957137808,112.86012550076369,115.24354870666568,178.0499798790934,202.7566253800269,170.43850787263068,183.54018053345857
3.8705372038705375,3.5804912909014988,3.489335957137808,115.94099797090782,112.11201133328493,178.77669119256768,202.35241116584115,170.4221048095112,183.31111712757416
3.903903903903904,3.5804912909014988,3.489335957137808,117.94988378960726,110.23174560014384,179.65772802881236,201.7667601121983,170.48531515226605,182.98181415886995
