Time,Left Shoulder Angle,Right Shoulder Angle,Left Elbow Angle,Right Elbow Angle,Left Hip Angle,Right Hip Angle,Left Knee Angle,Right Knee Angle
0.0,14.833005398781008,31.040625419650524,147.40354199615197,164.54296239394867,148.4946439003622,150.5931873100333,199.5132627005465,198.34433963362645
0.0333667000333667,15.337278304888155,31.29910922254924,148.32451825182812,165.11931194880083,148.38024871528333,150.84355248830792,199.68364387692003,198.33171970203568
0.0667334000667334,15.85580292650619,31.565507829200687,149.23362829038592,165.64636985311247,148.28368378273962,151.02247499893042,199.827519020455,198.33028410480264
0.1001001001001001,16.387836220738606,31.83839126054312,150.13303758972634,166.12568943730645,148.20307781059955,151.13573595023422,199.94701877488447,198.3391314357354
0.1334668001334668,16.93263514468891,32.11632953751477,151.02491162775027,166.5588240318056,148.13655950673157,151.1891164505527,200.0442737839414,198.357360288642
0.1668335001668335,17.489456655460604,32.39789268105391,151.91141588235865,166.94732696703284,148.0822575790041,151.18839760821925,200.12141469135884,198.3840692573304
0.2002002002002002,18.057557710157184,32.681650712098765,152.7947158314523,167.29275157341095,148.03830073528562,151.1393605315673,200.18057214086977,198.4183569356088
0.2335669002335669,18.63619526588216,32.96617365158759,153.67697695293225,167.59665118136283,148.00281768344453,151.0477863289302,200.2238767762072,198.45932191728505
0.2669336002669336,19.22462627973902,33.25003152045863,154.56036472469935,167.86057912131133,147.97393713134932,150.9194561086414,200.25345924110417,198.50606279616736
0.3003003003003003,19.82210770883128,33.531794339650126,155.44704462465455,168.0860887236793,147.9497877868684,150.76015097903428,200.27145017929365,198.5576781660637
0.333667000333667,20.427896510262432,33.81003213010034,156.33918213069876,168.2747333188896,147.92849835787024,150.57565204844218,200.27998023450868,198.61326662078213
0.3670337003670337,21.041249641135984,34.083314912747504,157.2389427207329,168.42806623736504,147.90819755222327,150.37174042519857,200.28118005048225,198.6719267541307
0.4004004004004004,21.66142405855543,34.350212708529874,158.1484918726578,168.54764080952853,147.88701407779595,150.1541972176368,200.27718027094733,198.73275715991744
0.4337671004337671,22.28767671962428,34.6092955383857,159.0699950643745,168.63501036580294,147.86307664245672,149.9288035340903,200.27011153963707,198.7948564319504
0.4671338004671338,22.919264581446026,34.85913342325322,160.00561777378385,168.69172823661106,147.83451395407403,149.70134048289245,200.26210450028432,198.8573231640376
0.5005005005005005,23.55544460112417,35.09829638407068,160.95752547878678,168.7193477523758,147.7994547205163,149.47758917237664,200.25528979662212,198.9192559499872
0.5338672005338673,24.195473735762228,35.32535444177634,161.9278836572842,168.71942224352,147.756027649652,149.26333071087626,200.2517980723836,198.97975338360703
0.5672339005672339,24.83860894246384,35.538877617308714,162.91885778717833,168.69350504046795,147.70236144935086,149.064346206726,200.25375997130345,199.0379140587069
0.6006006006006006,25.535931366177326,35.81307317927083,164.03658518165884,168.66510421590658,147.55973588560926,148.88785544322923,200.33229420358705,199.11642121943208
0.6339673006339673,26.21906020450204,36.05676274973423,165.14795036586293,168.61712426050104,147.3995717034465,148.75268082630117,200.4083313348389,199.1826093095653
0.6673340006673341,26.87903346234064,36.2342925114852,166.23643705555867,168.49045000069498,147.1886259458208,148.67725484377226,200.51042569459813,199.2416582185164
0.7007007007007008,27.546260873564147,36.35792859897106,167.37869482661955,168.33208050568803,146.97056008851052,148.6743903006908,200.6131250924768,199.29107268806968
0.7340674007340674,28.250471127810965,36.53288403494759,168.65446349553088,168.3145038875714,146.79384081008303,148.73578252439313,200.6931498337462,199.3119164531893
0.7674341007674341,28.951709694622163,36.6865991802984,169.98969993896168,168.3129470702487,146.63287671715048,148.86549358084147,200.77076543127288,199.3089621705828
0.8008008008008008,29.65285925113757,36.89908061644127,171.3633711842176,168.38636428952756,146.53836110832316,149.00319277649115,200.83775573639616,199.2997980664314
0.8341675008341676,30.30655297913765,37.016710903374126,172.67618954513603,168.38931825879737,146.43836822094855,149.2112273270422,200.9060039208654,199.27398064935025
0.8675342008675342,31.02515131518343,37.04989829972804,174.07957390034466,168.27209833185103,146.30492363918526,149.47624930166165,201.00605626395765,199.24425581695243
0.9009009009009008,31.684491344049924,36.93387320945384,175.40228718957368,167.9379925842296,146.16094745929013,149.79765249288093,201.11699499722303,199.20920592342503
0.9342676009342676,32.26342160848767,36.76199686136494,176.60069587195963,167.55445362252308,146.0304195635578,150.16535087718574,201.2284548900197,199.1664063110641
0.9676343009676344,32.826323539209675,36.47968643674321,177.8421825145932,167.115930915005,145.87394837654895,150.58157429075888,201.35558596970185,199.1007548309354
1.001001001001001,33.36424850833484,36.09984890087734,178.94441351321333,166.64336401099354,145.69031111290062,151.03018675370694,201.5389897448768,199.0319719902044
1.0343677010343677,33.83244533103799,35.60817525052446,179.99624981203212,166.10899289858054,145.50540597166057,151.5277384783407,201.73149930139547,198.9318434938664
1.0677344010677343,34.22178486616102,35.077865651705146,180.90198861957592,165.58970165156904,145.28317366657967,152.07879054481594,201.9752170490942,198.80264370082307
1.1011011011011012,34.47643649785398,34.46127849165056,181.69846797103529,164.99943995672947,145.05806441819183,152.66864674293797,202.21617975381176,198.6460548788428
1.1344678011344678,34.639079625030284,33.918139717000344,182.545515845682,164.45922757377724,144.8912732628804,153.32576529666994,202.3937587865701,198.37620564346528
1.1678345011678346,34.688764624060994,33.29886799274156,183.3944899612248,163.85868633679794,144.7233436355764,154.01184432800306,202.55807556570005,198.0474705880669
1.2012012012012012,34.59569377728207,32.613353833645604,184.12988819322183,163.2797525335338,144.59853359955977,154.64256770997991,202.65772857724977,197.77911518656512
1.234567901234568,34.38483530927914,31.81367115272341,184.74155489729915,162.61509023901294,144.44633919992663,155.2469850583999,202.798176592592,197.52385293473023
1.267934601267935,34.10366771724803,31.00348161682408,185.0113941552556,161.9288745284584,144.27063284859005,155.83083698166217,202.9858012642379,197.2518486182896
1.3013013013013013,33.73158602507278,30.088654184341284,185.14341255000755,161.16517166280792,144.08793521121493,156.4379536508657,203.21536949563736,196.95055297129252
1.334668001334668,33.4472533809532,29.10234658440981,184.93510781720065,160.2920093717314,143.9246200877043,157.0540996875611,203.4636474374412,196.6151956981576
1.3680347013680347,33.03257282844022,27.97482377268404,184.76621936965165,159.27385850024928,143.77500080328443,157.65248014634557,203.75238695837444,196.26137089729284
1.4014014014014016,32.52972214159363,26.67628442568571,184.53441259032948,157.9922969839563,143.7138761726221,158.24101537542467,204.0298067526664,195.88136342171967
1.4347681014347682,32.03208074464007,25.286224221179857,184.81861227961,156.64363286249247,143.61481328926948,158.81412700652993,204.3252614137344,195.50806828415304
1.4681348014681348,31.79929341098746,23.68167357228337,184.9108752855049,157.14410220502953,143.51123332415327,159.36615146612084,204.59422495530745,195.1421306506165
1.5015015015015016,31.32663417073425,21.93068375288791,185.08659593859767,157.2121128212853,143.36474077415386,159.92476204201466,204.870792860629,194.78444083406265
1.5348682015348682,30.61132547929688,19.89967231851757,185.40759949611424,156.20207064091025,143.14688595248663,160.4940240193929,205.17049710010488,194.45098597726133
1.5682349015682349,29.688365155348592,18.01884149069376,186.09870071521763,154.5893174492735,142.8545012951576,160.99195651034063,205.5290478152428,194.16140326805376
1.6016016016016017,28.142737634810945,16.34486163183728,190.9479021254245,152.62940806083597,142.49697093005236,161.3746232544188,205.9204626083688,193.91787291600392
1.6349683016349683,26.491227693287527,14.955439057236209,194.9204925571321,150.51738678094137,142.0815331808308,161.70460604337126,206.35985674985247,193.69808028187825
1.6683350016683351,24.40833391323901,13.773552255748498,198.1011368326032,148.21085565064638,141.58871394509336,161.97275039299606,206.90038937299684,193.5007212268024
1.7017017017017018,22.418693637485585,12.729644640412069,200.2258484740537,145.76692123769146,141.06845683747986,162.19856338688828,207.4922312852491,193.33065138924084
1.7350684017350684,20.529503159789805,11.852873355565588,201.4600973284898,143.22640682067254,140.4877302346972,162.41044444677863,208.12420814871643,193.18041214457904
1.7684351017684352,18.932010805406936,11.074612557461052,202.16449713728247,140.42634079470162,139.8832164148277,162.6115792787083,208.7717598880571,193.05470146921056
1.8018018018018016,17.139277142221527,10.390463182283296,202.1958796695949,138.98628160333195,139.3167458552839,162.81355865956976,209.41768900083943,192.94709422814583
1.8351685018351689,15.741007774747548,9.850056025073696,201.6720981280012,136.4904303137086,138.80725847487872,162.95312493177624,210.0601880484817,192.8594177296231
1.8685352018685355,14.855646988570667,9.23773925553432,201.01744067891008,134.3930962884807,138.32504146253666,163.0540392273331,210.70477337535056,192.789932506916
1.901901901901902,14.34778323275265,8.577501729183092,199.8630094976414,132.147423630769,137.8157089924066,163.0698964247377,211.3822335297387,192.7604569116664
1.9352686019352687,13.608802697438106,7.60386535220545,197.91437406536792,127.8809144549672,137.33928638782723,162.97113378400482,212.0656450587064,192.7675759791319
1.968635301968636,13.09584664002476,6.400750277778952,195.4323101333088,122.37680003478336,136.82086995735023,162.81774032134854,212.750314518996,192.79655924339085
2.002002002002002,13.42734592643439,6.112472242521807,193.22524839520835,116.76759631830429,136.26716556470848,162.6053882126672,213.44444312586364,192.85747924763805
2.035368702035369,14.307810471549884,6.112472242521807,190.87382808489767,111.55427332788454,135.71569631829826,162.3325803771108,214.1095644191284,192.93750801068336
2.0687354020687354,15.200803341883486,6.112472242521807,187.9018598328405,107.03267431798756,135.16953941146545,161.9530349050643,214.8056618240782,193.02903354585337
2.1021021021021022,16.07735472661446,6.112472242521807,184.17956481132225,102.20208300290004,134.6115298451027,161.52638214962045,215.5242425137345,193.1267932292271
2.135468802135469,17.358899994533463,6.112472242521807,180.5845783953939,99.38650776925448,134.08403177772544,161.05892196899217,216.24587268479365,193.23138839359515
2.1688355021688355,18.963282278125163,6.472733658048853,176.9058192468537,96.28701068532064,133.61427148996245,160.5780388597182,216.9150079285068,193.3080641651415
2.2022022022022023,12.525553582663958,7.456382858809194,172.40658212875235,92.66376881885805,133.2227705173275,160.01827958965262,217.53996932343568,193.3703471074004
2.235568902235569,8.947377788202452,8.985069180643187,168.12403935702108,89.30329780162354,132.9531436591157,159.41799883781724,218.0592753455009,193.41593529806903
2.2689356022689355,7.950444244908311,11.114194957178142,164.15506679656258,86.4886811793761,132.78134367471287,158.81180682023583,218.510343922534,193.4363085423008
2.3023023023023024,9.420027225356414,13.479955563310805,160.16076342746803,83.9102032650223,132.63964298868206,158.166420193409,218.9623982317572,193.5367509180153
2.335669002335669,14.087632100585424,15.69085392167984,155.32764193612965,80.37225545850468,132.53028321297214,157.52125988061528,219.3826963964497,193.70421141709213
2.369035702369036,20.811750372105045,17.956035579281757,150.6286226535795,77.16253369137102,132.4223098950823,156.94272651864267,219.8495773515222,193.8012510350709
2.4024024024024024,29.20731988476477,20.38038953025015,146.28138917886417,76.03629157433807,132.4266526499589,156.40146687503585,220.3075348573772,193.8513535794389
2.4357691024357693,39.10741855100623,22.706764584420288,142.6121485586347,75.36585805055068,132.53218568074985,155.92248966187626,220.72227064897768,193.86942894427025
2.469135802469136,50.62954664121156,24.72985279155803,139.37532622430209,75.484438348658,132.68647915675314,155.4754645808414,221.08489417840545,193.86757405718305
2.5025025025025025,63.12492268146833,26.628151837489792,137.2226439150383,75.48859014347363,132.8889646724171,155.09757802086963,221.38613728260395,193.84872849098548
2.5358692025358693,76.4445065402784,20.470519592506506,135.883443669983,74.70125033541507,133.18492760415,154.79318261213362,221.5778166838312,193.79728815052783
2.569235902569236,90.34405804641116,16.791924169086073,135.53389277280468,74.69873684922119,133.46571311417148,154.55933741471327,221.71494229459452,193.73555382339967
2.6026026026026026,105.03952437846291,15.662876956786253,135.65273171432975,76.95370837673232,133.7304105700899,154.3948109399442,221.78416327676345,193.6706085440086
2.6359693026359694,119.575390069292,16.252214956634777,137.17059342139032,77.54273819379165,133.95855352208682,154.2766262530548,221.84737966500325,193.61565855038737
2.669336002669336,134.2835167016518,18.856189434564808,139.65737037337422,77.74536197514408,134.15090963047953,154.2694835323474,221.88736742823053,193.5745412840745
2.702702702702702,148.7639236814677,23.29491879595484,143.46215236270598,78.71456689740057,134.36829856166077,154.25939710841507,221.8964856216416,193.53451544511293
2.736069402736069,162.66089600724783,29.057311782760728,148.80228335688307,79.84368615170533,134.5946995245695,154.25437900534476,221.8687308963717,193.49461961322623
2.7694361027694363,176.47208027022074,36.421205744783386,150.34577001883022,79.5437665410751,134.824401143651,154.2774141057874,221.82921420397432,193.4616668991985
2.802802802802803,189.84248633028488,45.08035173633828,151.8067630488651,82.34814587937835,135.06765975728584,154.32881759098967,221.76724246586832,193.4368253016718
2.836169502836169,203.07521547485865,55.383796569344206,153.18080917716694,85.45107682437492,135.29639166007118,154.4144926948093,221.6844426360705,193.41819502939487
2.8695362028695364,215.6954976433564,66.7524463613961,154.7750675562938,88.56391229674836,135.50443148402653,154.57624759340595,221.57252554681693,193.40036595324824
2.902902902902903,227.68957586734584,79.19264602178667,156.30105823204147,91.81046140844433,135.72918824267498,154.71924487548458,221.4500607304645,193.4019858048955
2.9362696029362696,238.63451892900835,92.45415543536171,157.8885885211268,95.06086737502746,135.94817259179084,154.87776407492592,221.3175746421716,193.40566874083544
2.9696363029696364,248.98692435477736,106.18745622843478,159.78775875127366,96.13397259415204,136.09645035896156,155.00515967427452,221.1933896199249,193.4171474865937
3.003003003003004,258.1691272182327,120.11479043115004,161.81987197602416,97.47382577334426,136.1847837658611,155.12479088384336,221.06228352655253,193.38574231761888
3.0363697030363697,265.86786749075617,134.22213706538955,163.63943592259466,97.48703492416712,136.22813749730355,155.18629427157876,220.92342592640784,193.32904446135012
3.0697364030697365,271.4216831468689,148.20037081000666,165.57492114897232,96.1235789992407,136.23302760441143,155.22039787754298,220.7670125925197,193.2601653409738
3.103103103103104,275.9843140188161,161.85065785250455,168.1374920934419,95.66381219775356,136.16319659022298,155.23345918302928,220.6135343737105,193.1978981415193
3.1364698031364697,279.7155191334595,175.2019580209845,170.97781151269842,95.69105438871422,136.02137280466397,155.22448797592168,220.48592782230955,193.16653271110005
3.169836503169837,281.4748126807985,188.35743141859177,173.06230658324017,95.99376486159902,135.86718276227634,155.1724509318792,220.3773957004924,193.15656019628616
3.2032032032032034,280.6887587005812,201.1224219870398,174.89288950321762,95.84538878389142,135.77980901547477,155.07902111687096,220.2932567409151,193.15223756068488
3.2365699032365702,278.0109371185405,213.94916960803,176.6395543416193,95.52849091309332,135.70152186434464,155.0159701169226,220.19681905276303,193.1591586565864
3.2699366032699366,273.4673937447861,226.62718528784336,178.71448105538536,95.55087716731664,135.64827937670827,154.9726446571893,220.11377705202943,193.13581069810573
3.3033033033033035,266.6732988302578,238.2899921505648,180.13172324970336,92.42279885949702,135.60732460389298,154.91194009533618,220.0535259229016,193.11472367636745
3.3366700033366703,257.58491427487115,248.65841838985867,180.32400771004544,91.1887554118436,135.5701300673681,154.93218582961256,220.0322365159916,192.938493945423
3.3700367033700367,257.1642569228832,257.89093026256245,180.8959523804424,90.9669433781041,135.488440905666,154.99559245318002,220.0483688081906,192.77745313663763
3.4034034034034035,257.15396299292115,265.23267285246857,181.10761403101284,90.86007284608934,135.45738301855252,155.21809983921767,220.01655506461307,192.62261024813145
3.4367701034367704,257.62652068055525,278.8721633030097,180.9104434658255,90.4542501360704,135.41189041874796,155.40447883212303,219.9913616713048,192.5598182369436
3.4701368034701368,257.6945319790933,279.90347479217854,181.3235510675161,91.49599816046388,135.31680065091948,155.51645571119488,220.01118603556228,192.53686950847265
3.503503503503504,265.94971496658115,279.9834204087042,182.55683200013945,93.46451253332668,135.21996803220193,155.50190917122256,220.05045570150656,192.60763131953712
3.5368702035368704,272.92285141573274,278.5677795248956,184.5380709915009,94.24590274736804,134.98075924610913,155.5741890755699,220.31940291516744,192.84692394983185
3.5702369035702373,277.5446089582337,275.36692157092205,185.86793624155328,94.83136790782056,134.66383016117908,155.50241891731343,220.53568146365305,193.2230031471784
3.603603603603604,280.5958345314812,278.9856234118968,187.5391438443472,93.08962116475888,134.24714138473826,155.03140817216692,220.80469552154423,193.63931518705525
3.6369703036369705,281.0434204862432,278.15835906570567,188.7343083671916,90.20135531484782,133.83646283295195,154.4637994667936,221.007131275104,194.1344791632762
3.670337003670337,278.8880055112031,273.5265737338919,189.39778097477432,88.09503302776373,133.0780223812249,153.88817393096886,221.08180190922224,194.8392733038994
3.703703703703704,274.74964102245127,274.8429016112213,188.7070547049984,87.33651140046861,132.4368957038826,153.28503179677287,221.0838217391471,195.59251466450468
3.737070403737071,268.12440543568096,273.9030395247011,184.0779564740567,82.61955991757911,131.85870120370774,152.62313088150998,220.9934582367688,196.28065507925632
3.770437103770437,259.6702509419994,270.24843479432303,179.69334115113574,78.1535773250287,131.47187851501607,152.00700720161487,220.75926014527448,196.9791556594982
3.803803803803804,249.82881731295248,264.02884263245744,176.2923560652086,75.33032073215233,131.58670570947095,151.42395538169302,220.4733817386237,197.6942603337423
3.8371705038371706,238.6744151694204,256.17140638999314,173.50199941979454,73.3445382926981,131.88563348827833,150.89509515015072,220.0249158007258,198.441198565867
3.8705372038705375,226.651109961068,247.0746492378307,171.4695986343308,71.8331738760145,132.09372347731133,150.29938821936184,219.5116341039242,199.2490565720602
3.903903903903904,213.86616916702744,236.9164394998547,169.2274400846031,71.07025148880497,132.3499188240698,149.71414484528697,218.82602496057208,200.13624712650585
3.937270603937271,200.48542696962292,226.33656076958133,166.98371092358266,72.84613057189125,132.57004417779012,149.0360793528631,217.94482639539024,201.1584516554512
