Time,Left Shoulder Angle,Right Shoulder Angle,Left Elbow Angle,Right Elbow Angle,Left Hip Angle,Right Hip Angle,Left Knee Angle,Right Knee Angle
0.0,47.95755433319051,45.94139478864638,126.93701674522016,131.66228477463903,120.09943073331954,136.3629523596744,211.7792361438787,191.61904235983133
0.0333667000333667,33.79246131808671,44.0081139327085,134.88659897949196,142.54792976588803,121.8960730297999,136.7179061055641,211.1611737376747,192.168162963799
0.0667334000667334,21.84707753280674,42.16266439333789,141.93822222276845,151.83001789483063,123.44078066157952,137.12678704446307,210.6532472765124,192.6575180208121
0.1001001001001001,12.014154296966616,40.41010304689829,148.1384805011089,159.5838097453447,124.75287762441434,137.5847977935934,210.24579434936703,193.09131461761703
0.1334668001334668,4.186442930182359,38.75548676975343,153.53396784057267,165.88456590130804,125.85168791406026,138.0871409701773,209.92915254521387,193.4737598409605
0.1668335001668335,-1.7433052479300102,37.20387243826704,158.17127826721915,170.8075469465985,126.7565355262732,138.62901919143692,209.69365945302812,193.80906077758888
0.2002002002002002,-1.7433052479300102,35.760316928802844,162.09700580710765,174.4280134650939,127.4867444568091,139.20563507459445,209.52965266178515,194.10142451424875
0.2335669002335669,-1.7433052479300102,34.4298771177246,165.35774448629758,176.82122604067206,128.06163870142387,139.812191236872,209.4274697604601,194.35505813768657
0.2669336002669336,-1.7433052479300102,33.21760988139603,168.0000883308482,178.06244525721087,128.50054225587343,140.4438902954917,209.37744833802824,194.5741687346489
0.3003003003003003,-1.7433052479300102,32.12857209618086,170.07063136681893,178.22693169858815,128.82277911591368,141.09593486767582,209.36992598346475,194.76296339188224
0.333667000333667,-1.7433052479300102,31.16782063844284,171.61596762026917,177.38994594868166,129.04767327730056,141.76352757064646,209.395240285745,194.9256491961331
0.3670337003670337,-1.7433052479300102,30.340412384545694,172.68269111725812,175.6267485913693,129.19454873578997,142.44187102162576,209.4437288338441,195.066433234148
0.4004004004004004,-1.7433052479300102,29.65140421085316,173.31739588384525,173.01260021052894,129.28272948713786,143.12616783783588,209.50572921673745,195.18952259267343
0.4337671004337671,-1.7433052479300102,29.105852993728966,173.5666759460899,169.62276139003836,129.33153952710012,143.811620636499,209.57157902340012,195.299124358456
0.4671338004671338,-1.7433052479300102,28.708815609536856,173.47712533005136,165.5324927137754,129.3603028514327,144.4934320348373,209.63161584280755,195.39944561824203
0.5005005005005005,-1.7433052479300102,28.46534893464056,173.09533806178905,160.81705476561794,129.38834345589146,145.16680465007292,209.67617726393485,195.49469345877824
0.5338672005338673,-1.7433052479300102,28.38050984540381,172.46790816736228,155.55170812944377,129.4349853362324,145.826941099428,209.6956008757573,195.58907496681104
0.5672339005672339,-1.7433052479300102,28.459355218190563,171.6414296728316,149.8117133891319,129.51955248821233,146.46904400012585,209.680224267252,195.6867972290885
0.6006006006006006,-1.7433052479300102,30.61786294996877,171.02335663144996,142.26260818248716,130.2894498275574,146.88883321243517,209.2077462945924,195.99497237631093
0.6339673006339673,-1.7433052479300102,32.09927199939496,169.12309391107215,134.8999546519595,130.9505185833208,147.34428885118894,208.7284613485308,196.22398039463883
0.6673340006673341,-1.7433052479300102,33.11348560921402,170.58006813587164,127.89523991510488,131.86344927505235,147.78469356662143,207.9925440521098,196.77949218748225
0.7007007007007008,-1.7433052479300102,33.190920557736405,171.40780933832795,120.30058058154246,132.87972595707032,148.08314630740963,207.28023266870525,197.3581437355056
0.7340674007340674,-1.7433052479300102,33.264951847307366,171.45236703571211,114.66333001863912,133.71077699452474,148.36293642724218,206.91593558776816,197.92801919846605
0.7674341007674341,-1.7433052479300102,29.64860530019027,172.27399154617223,103.78461280533944,134.40051696241977,148.73304098414602,206.744782341659,198.376963769998
0.8008008008008008,-1.7433052479300102,27.595560582655924,171.2898137120876,94.73578960471956,135.15396432607886,149.0198609371104,206.75430552508848,198.8168320417714
0.8341675008341676,-1.7433052479300102,28.68180675443501,171.23145767971005,94.4415573536096,135.86465108783676,149.03593765929972,206.76960354658712,199.1717422611777
0.8675342008675342,-5.882338917754495,28.2545650410864,168.65876788371543,87.37701049506181,136.59900630905364,149.28439813243202,206.7383503655228,199.42767565155145
0.9009009009009008,-8.337906759675043,26.43561501365961,166.53170561811683,84.44468106863441,137.26638983634012,149.76508047160544,206.9482433066136,199.5200142146921
0.9342676009342676,-9.217257454075671,26.08140371281121,164.32293956041514,82.82041844460701,138.08286175785503,150.34454882213473,206.99365386246592,199.3770060710179
0.9676343009676344,-8.627639681340334,27.209143641068305,162.9665972619604,82.19506197126748,139.03441734416865,151.09292698635517,206.8985698549849,199.0459721203397
1.001001001001001,-6.676302121853055,29.6540644174465,162.3089142057895,83.40889472586967,140.33869274654535,151.8155221907404,206.35465707795137,198.6297614522557
1.0343677010343677,-3.4704934559977545,33.243371155929,161.54505034208478,86.12309064834429,141.89218394526387,152.52353417778633,205.3808556908708,198.1346405923444
1.0677344010677343,0.8825376358415227,38.24992334409233,161.1584722488737,90.45911921733124,143.83362196476995,153.19175980347666,203.738365962076,197.5511474187796
1.1011011011011012,0.8825376358415227,44.14759163246046,160.80521367489283,96.035923376548,146.05008938271632,153.89182577421718,201.48286298248848,196.81783510420544
1.1344678011344678,0.8825376358415227,57.68742361387875,160.6469144428056,102.46149213423968,147.33382344084558,154.60164344545177,200.64326682469056,195.9034486461632
1.1678345011678346,0.8825376358415227,72.3182640657192,160.16057117956387,113.73569523320886,148.65332306457378,155.37058412699508,199.5605169861184,194.9369886517925
1.2012012012012012,0.8825376358415227,84.31583257697359,159.37019611127033,121.9297023167164,149.78560713453496,156.08546983889747,198.3259802889362,193.79798834519192
1.234567901234568,0.8825376358415227,94.58191654896947,158.29836068459713,130.54813913064956,150.91024029659292,156.7931836196029,196.964777537015,192.6080190685738
1.267934601267935,0.8825376358415227,103.19745958795288,157.04122098066105,139.1626612290392,151.74030830076947,157.52211601158655,195.62828308678303,191.1313264373882
1.3013013013013013,0.8825376358415227,110.52035690092798,155.81322851690956,147.6672587625953,152.62494162199712,158.1434803614721,194.27271527354023,189.53859635581503
1.334668001334668,0.8825376358415227,122.00104262762964,153.70658381269362,157.77884079127273,153.14189426326013,159.09313071818607,192.6742456529596,187.6962568751624
1.3680347013680347,6.2755424732808365,132.73961955514,151.12771910903206,167.2082560590776,153.59358224886068,160.01685324018223,191.0664489623489,185.82707078956977
1.4014014014014016,12.601272375936162,142.46151452268512,148.03333618759154,175.70679477845516,153.98775317966556,160.9008441718383,189.4667992464328,183.9569189441364
1.4347681014347682,19.752478663423584,150.89215436949183,144.38013683004033,183.02574716185163,154.3321546565428,161.73129975753315,187.8927705499373,182.1116821839628
1.4681348014681348,27.621912655359047,157.7569659347873,140.12482281804677,188.91640342171343,154.63453428036036,162.49441624164584,186.36183691758868,180.31724135414967
1.5015015015015016,36.102325671358585,162.7813760577983,135.22409593327905,193.1300537704868,154.90263965198628,163.1763898685553,184.8914723941131,178.59947729979783
1.5348682015348682,48.41889581658376,165.6908115777518,129.63465795740547,195.4179884206182,155.14421837228858,163.76341688264048,183.4991510242367,176.98427086600793
1.5682349015682349,60.50760741006705,166.2106993338749,123.31321067209429,195.53149758455385,155.3670180421352,164.2416935282804,182.20234685268568,175.4975028978806
1.6016016016016017,72.36606762553443,164.06646616539444,116.21645585901376,193.22187147474028,155.57878626239426,164.59741604985396,181.01853392418616,174.16505424051655
1.6349683016349683,82.43261048764812,158.98353891153744,108.3010952998322,188.2404003036237,155.78727063393364,164.81678069174018,179.96518628346433,173.01280573901644
1.6683350016683351,90.64804445029836,150.687344411531,99.52383077621784,180.33837428365052,156.00021875762144,164.885983698318,179.0597779752464,172.066638238481
1.7017017017017018,93.14573198721558,138.90330950460174,89.84136406983896,169.267083627267,156.22537823432563,164.7912213139664,178.31978304425846,171.35243258401087
1.7350684017350684,96.34016635333526,123.35686102997695,79.21039696236384,154.77781854691978,156.47049666491418,164.5186897830643,177.76267553522672,170.89606962070678
1.7684351017684352,100.26533769568232,103.7734258268833,67.58763123546076,136.6218692550547,156.74332165025518,164.05458534999073,177.40592949287733,170.72343019366937
1.8018018018018016,103.53215762935584,79.87843073454803,54.92976867079796,114.5505259641187,157.05160079121657,163.3851042591246,177.2670189619365,170.86039514799938
1.8351685018351689,103.25275292078192,51.3973025921979,41.193511050043696,88.31507888655781,157.40308168866636,162.49644275484494,177.36341798713033,171.33284532879742
1.8685352018685355,103.39478772894503,18.05546823906012,26.3355601548663,57.66681823481824,157.8055119434726,161.37479708153066,177.71260061318503,172.16666158116422
