Time,Left Shoulder Angle,Right Shoulder Angle,Left Elbow Angle,Right Elbow Angle,Left Hip Angle,Right Hip Angle,Left Knee Angle,Right Knee Angle
0.0,30.900911695076907,84.84826162911934,180.89445435075984,169.8780189262866,133.02214997636787,122.41433536955736,217.64866648669425,225.16715076238245
0.0333778371161548,14.230157213794058,57.86404936605671,175.78499269033074,172.15769034328818,134.00357005324835,125.85276632074076,214.40947304422085,221.31630461021567
0.0667556742323097,2.605842568305569,36.51668027600709,171.6647157239356,173.54431650471045,134.72550338057837,129.0016194449372,211.7935086138294,217.92415187811645
0.1001335113484646,2.605842568305569,20.40713762680015,168.45596264630865,174.1012659373675,135.2093875524027,131.87031286188687,209.753517782513,214.96585136681745
0.1335113484646194,2.605842568305569,9.136404686265578,166.08107265218402,173.89190716807337,135.47666016276605,134.46826469132995,208.2422451372648,212.4165618770517
0.1668891855807743,-4.37117758629001,2.305464722232984,164.4623849362959,172.97960872364217,135.54875880571325,136.80489305300657,207.212435265078,210.25144220955204
0.2002670226969292,-7.100048594894133,-0.4846989974679729,163.52223869337843,171.427739130888,135.4471210752891,138.88961606665694,206.61683275294573,208.4456511650515
0.2336448598130841,-5.979915802408257,0.3668967949923996,163.1829731181659,169.29966691662491,135.19318456553833,140.73185185202118,206.4081821878612,206.9743475442829
0.2670226969292389,-1.4099245537338234,0.3668967949923996,163.3669274053924,166.658760607667,134.80838687050573,142.3410185288395,206.53922815681744,205.81269014797925
0.3004005340453938,6.210779806227688,0.3668967949923996,163.99644074979216,163.56838873082836,134.3141655842361,143.72653421685206,206.9627152468077,204.93583777687343
0.3337783711615487,16.48305193257486,0.3668967949923996,164.99385234609932,160.09191981292307,133.73195830077418,144.897817035799,207.63138804482512,204.31894923169835
0.3671562082777036,29.00774648040621,0.3668967949923996,166.2815013890481,156.2927223807652,133.0832026141648,145.86428510542052,208.49799113786287,203.9371833131869
0.4005340453938584,43.385718104820334,0.3668967949923996,167.78172707337268,152.2341649611689,132.3893361184527,146.63535654545677,209.5152691129141,203.76569882207207
0.4339118825100133,59.21782146091573,0.3668967949923996,169.4168685938072,147.97961608094818,131.67179640768262,147.2204494756479,210.635966556972,203.77965455908688
0.4672897196261682,76.10491120379095,0.3668967949923996,171.10926514508589,143.59244426691714,130.9520210758994,147.62898201573412,211.81282805702963,203.954209324964
0.5006675567423231,93.64784198854454,0.3668967949923996,172.78125592194294,139.13601804588987,130.2514477171478,147.8703722854556,212.99859820008024,204.2645219204365
0.5340453938584779,111.44746847027506,0.3668967949923996,174.3551801191125,134.67370594468048,129.5915139254726,147.95403840455245,214.1460215731169,204.6857511462373
0.5674232309746329,129.10464530408106,0.3668967949923996,175.75337693133037,130.26887649010413,128.9936572949196,147.88939849276605,215.2078427631348,205.1930558031012
0.6008010680907877,146.22022714506113,0.3668967949923996,178.72138991858927,125.06952816255652,129.00881381413157,147.92983403615446,215.2113590047728,205.4347004021956
0.6341789052069425,162.39506864831483,0.3668967949923996,176.37837950243113,119.48459723701608,129.065094743315,147.61162189396188,215.0854443163981,205.84727268249927
0.6675567423230975,167.95891422517994,4.461235367443763,172.87524858836204,114.6752257719506,129.21219756328884,146.94739917681812,214.77225044819207,206.375724454906
0.7009345794392523,163.94010131397874,11.39929998771575,169.88800806812807,111.16851351061752,129.45450895746558,146.0286495618537,214.27066564160623,207.09917854851685
0.7343124165554072,161.55882464725423,20.78207392363805,166.72381467057883,108.813148379068,129.79243691383124,144.8751320680202,213.52340656080327,207.9009127672356
0.7676902536715621,159.74942671822697,32.21054044304026,162.8696940983984,107.66135309754058,130.26182350364977,143.6970843645791,212.4715642148212,208.6738998342686
0.8010680907877169,158.2386287697877,45.28568281375209,158.92016763433068,107.88868536169086,131.07614340892195,142.65302591799926,211.0448899388088,209.1735052201873
0.8344459279038718,158.03743654969367,59.60848430360326,155.50881116840017,109.046200228577,131.7834530723563,141.56154736122355,209.5207372543699,209.5182036746648
0.8678237650200267,158.11739541954452,74.77992818042327,152.59335532633796,111.19948165857927,132.50636497830232,140.63966531226788,207.83414160544945,209.43262114720395
0.9012016021361816,158.60629696489792,90.40099771204191,150.03494622012414,115.98868885258592,133.29390628196714,139.7666964161525,205.94547571569663,208.9758535463475
0.9345794392523364,159.28268380349095,106.07267616628882,147.823429186727,120.48039697744562,134.39980955437028,139.27783693577416,203.6852445247645,208.11410327449843
0.9679572763684912,159.80549264425133,121.3959468109951,145.34610740397434,123.73119839692374,135.38016258888425,138.9465929544049,201.3009104069895,206.98373219471063
1.0013351134846462,159.92967345162657,119.18324773060442,142.74654237523924,127.2735682056694,136.57752576024413,139.01993251704204,198.67274839979373,205.4667500742978
1.034712950600801,159.3045464167959,119.320298996407,141.11394218250086,128.1590668654608,137.99267049480014,139.61614929106287,195.8505782042115,203.4135434106476
1.068090787716956,157.6760070177808,121.16953836732904,137.78611642383223,129.80137862275876,139.34887477026626,140.46428419114346,192.9780792927426,201.0430636326024
1.1014686248331107,154.83360189636232,124.01165063618215,132.78100216526877,133.1993488697857,140.91671148573565,141.63321358216092,189.6705874211773,197.99713445711168
1.1348464619492658,150.07506761266197,127.84418435636144,127.59558087744648,136.6396723461345,142.45585453379127,142.92130996478076,186.43467031281472,194.79912177270563
1.1682242990654206,149.74103509282224,132.3362108949266,122.27695530943036,140.07894641393108,143.94074936301956,144.30510916303007,183.32405487175896,191.49276991596813
1.2016021361815754,150.31737784958074,137.16706308373452,116.87222821028676,143.47376843530236,145.3458414220081,145.761147000937,180.3924680021157,188.12182322348465
1.2349799732977302,151.90072650551832,142.2035541340071,111.42850232908197,146.78073577237515,146.64557615934436,147.26595930252975,177.69363660799092,184.7300260318405
1.268357810413885,154.58771168321692,147.0480250089356,105.99288041488244,149.9564457872763,147.81439902361586,148.79608189183648,175.28128759349025,181.36112267762124
1.30173564753004,158.47496400525856,151.41405441359018,100.61246521675434,152.95749584213266,148.8267554634102,150.32805059288532,173.20914786271956,178.05885749741222
1.335113484646195,163.65911409422506,155.46627146395593,95.33435948376412,155.74048329907106,149.6570909273148,151.8384012297045,171.53094431978462,174.86697482779888
1.3684913217623498,170.23679257269842,167.65801186331603,90.2056659649781,158.26200552021834,150.27985086391732,153.30366962632218,170.30040386879122,171.82921900536672
1.4018691588785046,178.30463006326056,176.39186441853354,85.27348740946256,160.47865986770137,150.66948072180514,154.70039160676652,169.57125341384517,168.9893343667011
1.4352469959946594,187.9592571884934,182.63167887751945,80.58492656628383,162.347043703647,150.80042594956592,156.0051029950657,169.39721985905226,166.39106524838755
1.4686248331108145,199.2973045709789,185.29235931722195,76.18708618450829,163.82375439018202,150.6471319957871,157.19433961524788,169.83203010851824,164.0781559870114
1.502002670226969,212.4154028332989,187.28520573649936,72.1270690132023,164.8653892894333,150.18404430905622,158.2446372913413,170.92941106634896,162.09435091915816
1.535380507343124,227.4101825980356,188.5228637550759,68.4519778014321,165.42854576352772,149.38560833796086,159.13253184737405,172.74308963665018,160.4833943814133
1.568758344459279,244.3782744877705,188.9380533063053,65.20891529826409,165.46982117459208,148.2262695310885,159.83455910737433,175.32679272352772,159.28903071036217
1.6021361815754338,263.41630912508595,188.4634943235429,62.44498425276458,164.94581288475328,146.68047333702663,160.32725489537034,178.73424723108738,158.5550042425903
1.6355140186915886,284.6209171325637,187.03190674014385,60.20728741399989,163.8131182561381,144.7226652043629,160.58715503539025,183.01918006343485,158.325059314683
