Time,Left Shoulder Angle,Right Shoulder Angle,Left Elbow Angle,Right Elbow Angle,Left Hip Angle,Right Hip Angle,Left Knee Angle,Right Knee Angle
0.333667000333667,5.36914145659528,0.0213960232508179,214.7167194418034,202.941517686614,166.46753544708423,207.2773649136155,185.88235066189424,176.72234226585925
0.3670337003670337,3.772742567562783,0.5704119028851226,204.27171179593657,194.4625414745376,166.1738595181514,206.975686042484,185.81853716453907,176.52145241232893
0.4004004004004004,2.6501778690754643,0.5704119028851226,195.85712008363825,187.4917363656208,165.99230175228087,206.6829418901316,185.69251705954773,176.39525999173662
0.4337671004337671,1.965085169540112,0.5704119028851226,189.32284805332,181.9285942304492,165.91581786888727,206.39922727876333,185.508556188236,176.3368883001735
0.4671338004671338,1.6811022773635165,0.5704119028851226,184.5187994533933,177.67260693960813,165.9373635873853,206.1246370305843,185.27092039191947,176.33946063373074
0.5005005005005005,1.6811022773635165,0.5704119028851226,181.2948780322699,174.62326636368311,166.0498946271898,205.85926596779944,184.983875511914,176.39610028849953
0.5338672005338673,1.6811022773635165,0.5704119028851226,179.50098753836127,172.68006437325965,166.24636670771528,205.60320891261367,184.6516873895352,176.499930560571
0.5672339005672339,1.6811022773635165,0.5704119028851226,178.98703172007896,171.7424928389231,166.51973554837656,205.35656068723225,184.27862186609875,176.64407474603635
0.6006006006006006,1.6811022773635165,0.5704119028851226,179.6029143258346,171.71004363125903,166.86295686858833,205.11941611385987,183.8689447829205,176.82165614098676
0.6339673006339673,1.6811022773635165,0.5704119028851226,181.19853910403967,172.48220862085284,167.26898638776527,204.8918700147017,183.42692198131604,177.0257980415134
0.6673340006673341,1.6811022773635165,0.5704119028851226,183.6238098031059,173.95847967829002,167.7307798253221,204.6740172119628,182.9568193026012,177.24962374370742
0.7007007007007008,1.6811022773635165,0.5704119028851226,186.7286301714447,176.03834867415603,168.2412929006735,204.46595252784795,182.4629025880916,177.48625654366003
0.7340674007340674,1.6811022773635165,0.5704119028851226,190.3629039574677,178.62130747903632,168.79348133323418,204.2677707845624,181.94943767910289,177.72881973746237
0.7674341007674341,1.6811022773635165,0.5704119028851226,194.37653490958644,181.6068479635164,169.38030084241885,204.07956680431093,181.4206904169509,177.9704366212056
0.8008008008008008,1.6811022773635165,0.5704119028851226,198.6194267762125,184.89446199818164,169.99470714764223,203.9014354092988,180.8809266429513,178.20423049098096
0.8341675008341676,1.6811022773635165,0.5704119028851226,202.9414833057576,188.3836414536176,170.629655968319,203.7334714217307,180.33441219841976,178.42332464287955
0.8675342008675342,1.6811022773635165,1.1623806614174226,207.19260824663303,191.9738782004097,171.27810302386385,203.57576966381188,179.7854129246721,178.6208423729926
0.9009009009009008,1.6811022773635165,1.1623806614174226,211.22270534725263,195.56466410914504,171.93300403369284,203.42842495774903,179.2381946630254,178.78990697741264
0.9342676009342676,1.6811022773635165,1.1623806614174226,209.42118256103723,203.04307848893413,172.37137206803015,203.39082057423727,178.87792617119675,178.65868585137886
0.9676343009676344,1.6811022773635165,1.1623806614174226,209.9053622501508,204.47509900174973,172.7365233166503,203.2697315728163,178.58596756397515,178.5213378141931
1.001001001001001,1.6811022773635165,1.1623806614174226,210.97837680260253,204.60847950157,173.14230691540442,203.02976461308825,178.29478336465573,178.4238296551571
1.0343677010343677,1.6811022773635165,1.1623806614174226,205.132906688693,204.1075444482806,173.6411578528639,202.78041000012283,177.83387858921745,178.35729397947495
1.0677344010677343,1.6811022773635165,1.1623806614174226,203.43391183657263,202.88346837658207,174.1649271682231,202.53627893772875,177.3313222777907,178.26506490550065
1.1011011011011012,1.6811022773635165,1.1623806614174226,200.5123140768232,201.46395212987272,174.70153258940803,202.320193344539,176.84637622129944,178.18091172834713
1.1344678011344678,1.6811022773635165,1.1623806614174226,196.65695106418883,199.5181345936436,175.20244497519045,202.06518728822616,176.3946867900976,178.12625967749048
1.1678345011678346,1.6811022773635165,1.1623806614174226,197.47212005008217,196.8951281886968,175.6657479466742,201.8962371197889,175.969828274807,177.93736886453527
1.2012012012012012,1.6811022773635165,1.1623806614174226,193.87884604186465,193.6634042350451,176.2208474614104,201.9040519995408,175.50117263910184,177.62426902732096
1.234567901234568,1.6811022773635165,1.1623806614174226,191.91180653782192,190.33552673256872,176.88540091470782,202.05012938501088,175.00640880993237,177.19150142354243
1.267934601267935,1.6811022773635165,1.1623806614174226,189.897092531162,186.37949029946463,177.4266309255188,202.27203697275732,174.60334527851347,176.64970669352903
1.3013013013013013,1.6811022773635165,1.1623806614174226,187.544525247958,182.4073298327862,177.7933641888533,202.4804264229936,174.27556063045003,176.1047373372869
1.334668001334668,1.6811022773635165,1.1623806614174226,185.26260887309687,178.25848191478354,178.06194603367626,202.6459998751959,174.01361612183624,175.51762598157404
1.3680347013680347,1.6811022773635165,1.1623806614174226,183.0607045402926,173.99555289103296,178.27374465728494,202.8380181455163,173.79044910345664,174.90268609631514
1.4014014014014016,1.6811022773635165,1.1623806614174226,180.99864652088732,169.6305993094499,178.6167167228946,203.2470705991701,173.54915358502842,174.1551368596251
1.4347681014347682,1.6811022773635165,1.1623806614174226,178.8080364160115,165.08260775822717,178.90972703471783,203.64954991262047,173.35599908367098,173.409625048215
1.4681348014681348,1.6811022773635165,1.1623806614174226,176.76428541078172,160.49381154279823,179.1632661848895,203.9386217011967,173.22527354159558,172.7152451448353
1.5015015015015016,1.6811022773635165,1.7969535610868772,174.36135012954304,156.31458270157702,179.34833713751385,204.2037480152576,173.17047524810192,172.03919721528925
1.5348682015348682,1.6811022773635165,1.7969535610868772,172.0280644434543,152.43252218921194,179.54935692478702,204.4529309701068,173.16695999833374,171.41263788849437
1.5682349015682349,1.6811022773635165,1.7969535610868772,169.67256487590916,148.74094294725916,179.77011837311525,204.7734693358599,173.20580705433804,170.76292142068667
1.6016016016016017,1.6811022773635165,1.7969535610868772,167.18509339893436,145.19065305792577,180.11548839586158,205.1964009079969,173.24483149098666,170.03184409721348
1.6349683016349683,1.6811022773635165,1.7969535610868772,164.6012492476143,142.29082540964282,180.56450732077704,205.58158301282927,173.15680791219194,169.37091475841032
1.6683350016683351,1.6811022773635165,1.7969535610868772,161.83244981031638,139.81342984177758,181.09163247881952,205.9352128864272,172.93067522916382,168.76239815867748
1.7017017017017018,1.6811022773635165,1.7969535610868772,159.2079228822646,137.85435288601852,181.7103834549987,206.22437269865227,172.61071357953534,168.2304162149825
1.7350684017350684,1.7618670009524662,1.7969535610868772,156.81901496351236,136.4527255319012,182.29271909511948,206.4839152451136,172.26814915783,167.75354071338708
1.7684351017684352,1.7618670009524662,1.7969535610868772,156.5893200966932,135.9065490659644,182.8488433094878,206.7450862082948,171.8542963707529,167.3756285708334
1.8018018018018016,1.7618670009524662,1.7969535610868772,156.8493275769328,135.8027569189987,183.2596310566913,206.8054291193237,171.4756570665206,167.097075581487
1.8351685018351689,1.7618670009524662,1.7969535610868772,159.1507873921939,136.41761793617908,183.578189391308,206.67665964689044,171.10009081521676,166.9410864502393
1.8685352018685355,1.7618670009524662,1.7969535610868772,162.1149389285323,138.1529083146633,183.9798345323188,206.5157388738617,170.66477457392716,166.82075971533172
1.901901901901902,1.7618670009524662,1.7969535610868772,166.11475265544186,140.39763628384688,184.3720896168428,206.4761060061977,170.13041216239026,166.65830363513842
1.9352686019352687,1.7618670009524662,1.7969535610868772,163.3721101198145,143.67264040795632,184.7785572243192,206.47781215932105,169.55195333103956,166.46018352913228
1.968635301968636,2.1710171487137506,1.7969535610868772,168.0889716886677,147.53725490166536,185.1278636297209,206.5852369127256,169.02204268388053,166.15005360971685
2.002002002002002,2.1710171487137506,1.7969535610868772,165.8597483100018,152.74463756166412,185.37927498459024,206.58285438997052,168.5481704108281,165.91438730544067
2.035368702035369,2.1710171487137506,1.7969535610868772,162.68837935112478,159.25218152421914,185.6224192082058,206.5744844179848,168.1732531892256,165.7123212521363
2.0687354020687354,2.1710171487137506,1.7969535610868772,158.1918822244062,157.86896060424283,185.68187500901325,206.27084870341304,167.79734718986654,165.71332328061584
2.1021021021021022,2.1710171487137506,1.7969535610868772,158.67827739070862,153.6190810340946,185.6652306912504,205.96487182834605,167.4707495326394,165.74412011836233
2.135468802135469,2.1710171487137506,2.4737818641326457,156.3595307479337,153.15763821464745,185.62944858733883,205.6828552236537,167.26982809442953,165.80507555671997
2.1688355021688355,2.1710171487137506,2.4737818641326457,151.70461295167834,153.78461384313712,185.78445502447988,205.6023166389898,167.14174761937716,165.77702250787067
2.2022022022022023,2.1710171487137506,2.4737818641326457,154.0038996308814,154.0384838057009,185.93976184825937,205.66949084236728,166.86221720926818,165.7278613066779
2.235568902235569,2.1710171487137506,2.4737818641326457,153.2347576260784,153.41739554970906,185.984197527758,205.78813888638103,166.69933718926342,165.82060265259415
2.2689356022689355,2.1710171487137506,2.4737818641326457,153.9612470640172,153.1614129818942,186.15541532142944,206.0116270821208,166.57591981125017,165.9934415544531
2.3023023023023024,2.1710171487137506,2.4737818641326457,157.2090679351865,153.38275760412674,186.4178681930096,206.374458979364,166.52008151679485,166.2686837916478
2.335669002335669,2.1710171487137506,2.4737818641326457,157.7787085355256,154.12974026903285,186.6537009246992,206.8868346237009,166.57728670741474,166.58105576399996
2.369035702369036,2.1710171487137506,2.4737818641326457,160.50993532099002,154.04135892342052,186.68711535223457,207.3167665553698,166.9551138391986,166.97414539216965
2.4024024024024024,2.1710171487137506,2.4737818641326457,161.29352984920578,155.0624831099125,186.66129327831,207.6800367019188,167.53325504482416,167.50836414945385
2.4357691024357693,2.1710171487137506,2.4737818641326457,156.13273528183197,154.6924067276142,186.7169096888986,208.06489921783083,168.2032427783012,168.04780328470514
2.469135802469136,2.1710171487137506,2.4737818641326457,153.32021932320558,152.2062284446238,186.6798159177364,208.3505013551133,168.9652092357645,168.61365964492472
2.5025025025025025,2.1710171487137506,2.4737818641326457,150.88257522811995,145.12023378724814,186.49285877311368,208.4288741874412,169.85451510633513,169.41128070702285
2.5358692025358693,2.8721905290541567,2.4737818641326457,148.5770752326619,142.7019575330527,186.196278489575,208.34301989084543,170.9377683888447,170.333984896399
2.569235902569236,2.8721905290541567,2.4737818641326457,147.5194490536617,136.04629164050218,185.8326164273053,208.20679356843024,172.05881329115962,171.42946978691444
2.6026026026026026,2.8721905290541567,2.4737818641326457,147.10919978015005,129.91127328918822,185.511484187525,208.11628068353355,173.22731874136596,172.41141661429393
2.6359693026359694,2.8721905290541567,2.4737818641326457,147.11812020736434,124.93237460120042,185.1371670192366,208.1174738239606,174.51922984115123,173.29993209153858
2.669336002669336,2.8721905290541567,2.4737818641326457,147.72172639743067,120.55073300913897,184.6736839584381,208.05197983708013,175.9788881367571,174.31490779451616
2.702702702702702,2.8721905290541567,2.4737818641326457,148.83843161174636,117.16798825568743,184.20974134442488,208.01087182637875,177.4997882864406,175.35752310644858
2.736069402736069,2.8721905290541567,2.4737818641326457,150.36882007136867,114.52851051929056,183.7522531486064,207.9687331858636,179.09180856411925,176.48481005172405
2.7694361027694363,2.8721905290541567,2.4737818641326457,152.63261825723384,112.8586431502447,183.1916723536058,207.82431414032885,180.6748363845992,177.7268347859305
2.802802802802803,2.8721905290541567,2.4737818641326457,155.3260611326589,111.67951883716586,182.5576030216301,207.6592287126928,182.3155086667216,178.9957032213194
2.836169502836169,2.8721905290541567,3.192516832793886,158.17316998405724,111.1226664581834,181.86686801026465,207.5834860430913,183.8370267201009,180.17668028309265
2.8695362028695364,2.8721905290541567,3.192516832793886,160.6257403150561,111.12965080865422,181.1563561658912,207.66306001737053,185.2326822212694,181.18324774536933
2.902902902902903,2.8721905290541567,3.192516832793886,163.16350760588753,111.0580645472926,180.4696222220268,207.85420318301777,186.5553980296948,182.0753721626248
2.9362696029362696,2.8721905290541567,3.192516832793886,165.1654964337526,111.50015083507374,179.82875987614818,208.006072067905,187.7941922655779,182.9470338295642
2.9696363029696364,2.8721905290541567,3.192516832793886,167.2903632906332,112.7388812951489,179.28660329306967,208.13272907028923,188.89865951937875,183.874665958666
3.003003003003004,2.8721905290541567,3.192516832793886,169.59264818388257,114.52070352267306,178.8685500107526,208.41837694037017,189.8383120450985,184.7395392786789
3.0363697030363697,2.8721905290541567,3.192516832793886,172.54076758208285,116.5211435767836,178.34893274790898,208.80134500769785,190.69031748144977,185.5664491892992
3.0697364030697365,2.8721905290541567,3.192516832793886,175.91425855364454,119.13123720161114,177.79511788610856,209.0964852116392,191.4989093844736,186.3766920649268
3.103103103103104,2.8721905290541567,3.192516832793886,179.13714119248664,122.38904073401676,177.2567344525652,209.40884631391933,192.24237997230105,187.19255103871447
3.1364698031364697,2.8721905290541567,3.192516832793886,182.0024170911039,125.8671905153086,176.85340084524898,209.73416618951043,192.8141659827821,187.9486028647083
3.169836503169837,2.8721905290541567,3.192516832793886,184.6610807548295,130.48834728798732,176.72759190504317,210.21550026394644,193.1739742047336,188.62322064940292
3.2032032032032034,2.8721905290541567,3.192516832793886,187.10829421515004,135.157459836656,176.65506011221086,210.6407082908716,193.3849549385833,189.1951552499033
3.2365699032365702,2.8721905290541567,3.192516832793886,188.9452995520812,139.84540462731167,176.71173228601864,211.07740775495955,193.52186468839488,189.88135214185365
3.2699366032699366,2.8721905290541567,3.192516832793886,189.71639541512656,144.62171454218696,176.9450171591279,211.43903031931467,193.4946025303323,190.6698947674656
3.3033033033033035,2.8721905290541567,3.192516832793886,190.24007156117176,149.56688082666764,177.33589678905102,211.64190770094763,193.2376707515108,191.5295880665764
3.3366700033366703,2.8721905290541567,3.192516832793886,191.18584237393333,154.30252225457718,177.6561591279634,211.50745460056964,192.8095954945412,192.62100723890404
3.3700367033700367,3.829024950380479,3.192516832793886,191.93013506920803,158.69466079239854,177.99371604665703,211.06972435767065,192.54139726528192,193.9059825671193
3.4034034034034035,3.829024950380479,3.192516832793886,192.42886694290888,162.5751458656453,178.47563599213117,210.57921180290643,192.15055759978708,195.00592959169947
3.4367701034367704,3.829024950380479,3.192516832793886,192.32211209655927,165.5874716136824,178.85250156642866,209.75518006772904,191.78015777257303,196.22519019820427
3.4701368034701368,3.829024950380479,3.192516832793886,190.11498310132384,167.49821684311232,179.0428448241532,208.74565693580644,191.5031704006183,197.5169806490064
3.503503503503504,3.829024950380479,3.192516832793886,183.78557762966508,168.654583203974,179.16308464859566,207.4370933513129,191.3688246587316,198.80628291791905
3.5368702035368704,3.829024950380479,3.192516832793886,177.55210993016766,167.9483260078668,179.2800193648505,205.91909531237252,191.1015372857553,200.34711196349
3.5702369035702373,3.829024950380479,3.192516832793886,170.47882174088718,160.75878826018774,179.45022241275765,204.23808912827403,190.79735588160256,201.9544686048068
3.603603603603604,3.829024950380479,3.9528097293097577,168.33344686107026,153.762206746442,179.53751491191937,202.3408281607802,190.5259650375052,203.50878599583143
3.6369703036369705,3.829024950380479,3.9528097293097577,164.46800167666166,147.4838156331865,179.63602979868506,200.25577269490563,190.40198583462129,205.14324559307428
3.670337003670337,3.829024950380479,3.9528097293097577,161.7460554618719,146.39629615783926,179.6130241420438,198.20948868859972,189.79286605797208,207.6298680455352
3.703703703703704,3.829024950380479,3.9528097293097577,160.12080512383622,140.8851500175832,179.68236720903946,196.27259041669333,188.9371311452525,210.6767101494648
3.737070403737071,3.829024950380479,3.9528097293097577,161.02218866844453,139.44321604618565,180.00456759166494,194.61811510114487,187.90004963646007,213.11189579531768
3.770437103770437,3.829024950380479,3.9528097293097577,160.1101380844051,139.23577301998031,180.31702259459163,192.9387899624893,187.5269221033421,215.13654616337703
3.803803803803804,3.829024950380479,3.9528097293097577,159.2399142194156,139.51397947175283,180.5732274264921,191.17239615547467,187.20931441147195,216.9217604511929
3.8371705038371706,3.829024950380479,3.9528097293097577,157.75229948907773,140.61152075364694,180.968341815396,189.51160512136244,187.1027076529138,218.1995104071847
3.8705372038705375,3.829024950380479,3.9528097293097577,159.32830699393233,141.5187059058245,181.35843372961008,187.9658761215328,187.68310992229183,218.94222699818675
3.903903903903904,3.829024950380479,3.9528097293097577,161.8838042817919,142.67265460406605,181.73840992339856,186.44356320950453,189.59221961798653,218.29875271224503
3.937270603937271,3.829024950380479,3.9528097293097577,163.68452260979504,144.49052803315416,182.07840959820635,185.11001088378703,191.4544422576939,217.4622160018237
3.9706373039706375,3.829024950380479,3.9528097293097577,164.42992781082378,146.99586793842573,182.3063474539532,184.1239866169117,191.71418479111065,217.30003129751904
4.004004004004004,3.829024950380479,3.9528097293097577,166.18418045714995,150.08765405645585,182.71368108065832,183.31725963633207,193.3351327850404,215.3757779253635
4.037370704037371,3.829024950380479,3.9528097293097577,167.9099455438897,161.78132024787456,182.95651232193825,182.3673033977928,195.15617472251847,213.4540766682184
4.070737404070738,3.829024950380479,3.9528097293097577,171.48587085378682,172.19701015524276,183.14287318030856,181.48946163207592,196.72796710947264,211.9042951501968
4.104104104104104,3.829024950380479,3.9528097293097577,176.8541021105531,181.09940664107305,183.1212240662264,180.69981578329248,198.1886496270349,210.7342920991556
4.137470804137471,3.829024950380479,3.9528097293097577,177.91489722582602,187.9225671547788,183.0018849847948,180.0658141460435,199.49032779593085,209.73487155590715
4.170837504170838,3.829024950380479,3.9528097293097577,175.63620298814476,191.65057728106945,182.8970818348012,179.60886977986195,200.5978665882353,208.8560314611007
4.2042042042042045,3.829024950380479,3.9528097293097577,172.1083055521674,194.3449060232404,182.8388558975804,179.22062607529256,201.51688772552507,208.15238518871345
4.237570904237571,3.829024950380479,3.9528097293097577,171.3641248078957,196.3788339663823,182.85783325820705,178.97086974630588,202.27631299661903,207.595289380011
