Time,Left Shoulder Angle,Right Shoulder Angle,Left Elbow Angle,Right Elbow Angle,Left Hip Angle,Right Hip Angle,Left Knee Angle,Right Knee Angle
0.0,32.89591967941817,42.77054464787689,164.2639166243248,181.7418059456362,123.20275654063936,126.81248596567876,202.9056021161425,213.05876090542225
0.0333667000333667,32.96557445877489,42.23514642191916,164.14368017779302,181.04737782768228,122.83249565368467,126.77026795272448,202.8258916651514,212.4809718582848
0.0667334000667334,33.0646754279335,41.78143249749613,164.07790041622025,180.41149600269543,122.4851705931051,126.66770934704748,202.7194759347596,211.9896110207749
0.1001001001001001,33.19076730665166,41.404820128852265,164.06463368182668,179.83148091782746,122.16019195564024,126.50999452377012,202.59004343332307,211.57941018851665
0.1334668001334668,33.341394814687014,41.10072657023208,164.10193631683254,179.30465302023012,121.85697033802975,126.30230785801466,202.44128266919807,211.245101157134
0.1668335001668335,33.514102671797204,40.864569075880055,164.18786466345802,178.82833275705525,121.57491633701324,126.04983372490334,202.2768821507407,210.9814157222509
0.2002002002002002,33.70643559773988,40.691764900040674,164.32047506392337,178.39984057545462,121.3134405493304,125.75775649955844,202.10053038630707,210.78308567949145
0.2335669002335669,33.91593831227268,40.57773129695843,164.49782386044876,178.01649692258002,121.0719535717208,125.43126055710228,201.91591588425328,210.6448428244795
0.2669336002669336,34.140155535153255,40.51788552087783,164.71796739525448,177.67562224558324,120.8498660009241,125.07553027265708,201.72672715293544,210.5614189528391
0.3003003003003003,34.376631986139245,40.50764482604333,164.97896201056065,177.37453699161605,120.64658843367997,124.69575002134516,201.53665270070968,210.52754586019424
0.333667000333667,34.622912384988304,40.54242646669944,165.27886404858756,177.11056160783028,120.46153146672796,124.29710417828876,201.34938103593208,210.53795534216889
0.3670337003670337,34.876541451458074,40.617647697090646,165.6157298515554,176.88101654137768,120.29410569680778,123.88477711861016,201.1686006669588,210.58737919438704
0.4004004004004004,35.135063905306204,40.72872577146144,165.98761576168434,176.68322223941004,120.14372172065904,123.46395321743164,200.998000102146,210.6705492124727
0.4337671004337671,35.39602446629033,40.87107794405631,166.39257812119465,176.51449914907917,120.00979013502138,123.03981684987546,200.84126784984963,210.78219719204984
0.4671338004671338,35.6569678541681,41.04012146911974,166.82867327230653,176.37216771753688,119.89172153663444,122.61755239106392,200.702092418426,210.91705492874243
0.5005005005005005,35.91543878869717,41.23127360089622,167.2939575572402,176.2535483919349,119.78892652223782,122.20234421611929,200.58416231623107,211.0698542181745
0.5338672005338673,36.16898198963518,41.43995159363025,167.78648731821588,176.15596161942506,119.70081568857118,121.79937670016382,200.49116605162104,211.23532685597
0.5672339005672339,36.41514217674002,41.66157270156662,168.3043188974551,176.07672784716058,119.62679963237515,121.41383421832084,200.42679213295355,211.40820463775464
0.6006006006006006,36.66626608540979,42.05690006679029,168.94213601872272,176.35111166679386,119.68040433605952,121.0788946595061,200.3984890083141,211.5259846678679
0.6339673006339673,36.881496760452464,42.55963157731749,169.59515581455958,176.6241494606543,119.76348820712958,120.68665774638286,200.384406296754,211.6707761311978
0.6673340006673341,37.067916805232265,43.04529366481467,170.30799869360578,176.83798456672028,119.91135142523196,120.34161504711462,200.34522423590207,211.8066655158669
0.7007007007007008,37.2454632401606,43.397070171485545,171.03662064790808,176.9985901039921,119.99427093319426,120.07969321466202,200.40512170543,211.922796668512
0.7340674007340674,37.36012201970815,43.74760051954457,171.61799206904902,177.17733623336434,120.00344299164205,119.86964521788823,200.6038027324588,212.01803179218004
0.7674341007674341,37.43611690518252,43.91784157311628,172.18892596461654,177.1377402434854,120.0100292425387,119.75148600756594,200.88906515974293,212.09220005016235
0.8008008008008008,37.50345664720108,43.89636002197881,172.7973402656148,176.8689415113898,119.97373614317952,119.72194038499248,201.29505472681532,212.1437442689409
0.8341675008341676,37.54981248251229,43.70446916788185,173.39798186938137,176.41218831676142,119.89668968946688,119.79191522229866,201.77114909511465,212.15224946847755
0.8675342008675342,37.70254578901428,43.50943208601768,174.06809846182455,175.9413340683222,119.85271943073248,119.90304570194212,202.110608781864,212.1112249960436
0.9009009009009008,37.83015464001036,43.2273278982036,174.70916850964664,175.39244374859246,119.82058043170392,120.10586933480536,202.46754381964848,212.0213753157024
0.9342676009342676,37.88436688942527,42.82761249765203,175.25801613299728,174.73267993456324,119.7541434151945,120.4006491841782,202.88089677515129,211.89333182245443
0.9676343009676344,37.86766750968062,42.23280456443804,175.73866453171172,173.87620449118484,119.606923699379,120.79444755514284,203.437493518267,211.7131416649125
1.001001001001001,37.78057297761283,41.532809608341495,176.1399787174368,172.90460775938706,119.43912975107688,121.27288522360024,204.16356546730592,211.47957053969608
1.0343677010343677,37.61421639777178,40.683931310531285,176.43835671036422,171.80604606142006,119.19917774303772,121.83809909246604,205.04754170136167,211.20083970582348
1.0677344010677343,37.37352249648908,39.71406871914884,176.6416306021301,170.6224858788097,118.87078474630071,122.48419519985988,206.07834599288307,210.88997293272223
1.1011011011011012,37.116983131844655,38.70216358231556,176.92447888001175,169.46246508694674,118.5931220326564,123.19884368833291,207.0716447194348,210.53641717334943
1.1344678011344678,36.83953013667346,37.975456873035554,176.7982215378222,168.60290265546462,118.15970379580342,123.85616751340096,208.2282851177252,210.2181587445486
1.1678345011678346,36.57100527772302,37.218236783189006,176.77189770323417,167.72681953849536,117.6415815931657,124.45354150777725,209.48858659773515,209.94281978888245
1.2012012012012012,36.27698972442616,36.43866750078704,176.89814929280567,166.9374341861122,117.13254462496388,125.05480527701027,210.7364185132089,209.66799901092503
1.234567901234568,35.93774338012734,35.49301998854362,177.14525126660251,165.94802860160618,116.61854836183414,125.6612734724317,211.94467790184373,209.37168842467852
1.267934601267935,35.66771819576537,34.429120964737606,177.39311019686312,164.69036364473493,115.97111561673938,126.18546861471954,213.2099600579751,209.11285223649165
1.3013013013013013,35.4007366049874,33.26023198142902,177.81185236068427,163.27636816256418,115.3150811464145,126.69321260481615,214.4522229901009,208.8837839153728
1.334668001334668,35.076205588803106,32.01339321333008,178.30785260178968,161.793072962162,114.71445236468544,127.22072474318732,215.61017950103303,208.67687560436937
1.3680347013680347,34.73961758397856,30.70604671876361,179.0121203039059,160.28772855065128,114.15508989488984,127.81289769697418,216.69004239195053,208.489587456717
1.4014014014014016,34.627446560284724,29.466570229251943,179.23191391018185,158.95537617580956,113.6709570063794,128.49175289940317,217.68348909022808,208.3023804630867
1.4347681014347682,34.50580523855842,28.204351789657903,179.74427606376275,157.67371268213532,113.22622490607034,129.19865619060346,218.5785511946121,208.1251473737392
1.4681348014681348,34.26871572452296,26.888004846608894,180.44443893853563,156.4001438404567,112.8027632528081,129.91342348561534,219.3575531377748,207.95052502989515
1.5015015015015016,33.91687553136039,25.54794744001098,181.271818610126,155.1786084212374,112.39869021466602,130.63564395863128,220.03648286435583,207.7785187611025
1.5348682015348682,33.73217983421471,24.315154864240903,181.88648413809068,154.27128850474236,112.0450145714524,131.32704020017337,220.59737509245983,207.6193329377332
1.5682349015682349,33.19825018283379,23.134096845201864,182.69079306260912,153.32475333197436,111.76295308332224,131.98202850771125,221.0014301433099,207.48211825595908
1.6016016016016017,32.43441857833444,21.911521680316923,183.3659209120981,152.3979199971802,111.56707547220924,132.60608136301323,221.1602823066776,207.3604952983468
1.6349683016349683,31.499597682668004,20.71777617913107,184.441301487376,151.51438866741162,111.5494616055914,133.18032608131813,221.18502612870603,207.2592927854936
1.6683350016683351,29.840767827394263,19.36427894004205,186.23696905226456,152.05294338649475,111.56204966144696,133.68721874855484,221.15929738013423,207.16200906577453
1.7017017017017018,28.17791421066497,17.995575773066548,188.1226104261503,152.454990914655,111.62610064024553,134.12446717539757,221.04632506321053,207.0587414284389
1.7350684017350684,26.66180749847,16.76048655168677,189.94791807589283,152.46547635839605,111.72797308631444,134.47919584256974,220.8460133551911,206.95262819541185
1.7684351017684352,25.221409051737343,15.402892697498762,191.61929170232176,151.83482878536097,111.81167165156464,134.91118338702955,220.6627219632671,206.81413505456644
1.8018018018018016,23.530966730395782,14.27126575945762,194.577157451224,151.99762838832618,111.85864011836182,135.39397966988852,220.4057960641224,206.6295811250475
1.8351685018351689,22.03848820451197,13.19847595466673,196.94003021803667,151.56091506139057,111.89256374197086,135.85216118391122,220.1854185333008,206.4422130391045
1.8685352018685355,20.77657591358676,12.247825930522394,198.6900915296087,150.4450731117843,111.9521607068426,136.2752820925566,219.96174388134307,206.25318820656315
1.901901901901902,19.780907503913248,11.208890499985351,199.9479443484299,148.5559759534711,112.01457822793226,136.68730387505715,219.70080001534265,206.03689618270272
1.9352686019352687,18.83073901692985,9.534074929090734,201.0601891384784,147.9659212183936,112.03436768228264,137.0486890184987,219.4417849968312,205.82308956868263
1.968635301968636,18.09576753555236,8.017409847849635,201.49609643094965,146.02266810804122,112.06595129179694,137.34566765642975,219.13823429252005,205.60374828252503
2.002002002002002,17.745235660047392,6.826342169879001,201.3927160580003,143.60573464162383,112.1186642862354,137.57703087854364,218.794501080636,205.3760267546386
2.035368702035369,17.502502030477977,5.8327552264811935,200.6321782353492,140.38038945595747,112.10230408880848,137.81152709150874,218.68029556618933,205.14844386742087
2.0687354020687354,7.85586040803884,5.163859093710318,198.7823321668568,136.5189197450937,112.05145728367478,137.99952688452942,218.72673603442345,204.94471251086964
2.1021021021021022,1.6059219007592749,4.807543912894387,196.29706391774224,132.0561685480067,111.96697918197265,138.1318476496403,218.9420076033336,204.7551643844587
2.135468802135469,1.6059219007592749,4.7998509800066325,193.42791472180343,127.11268535188536,111.8524323776556,138.20381455380362,219.29609072193136,204.57793869846287
2.1688355021688355,1.6059219007592749,4.7998509800066325,190.2641143258675,121.6887266276574,111.62717732201162,138.20893625856442,219.7654594682711,204.4385683784469
2.2022022022022023,1.6059219007592749,4.7998509800066325,186.58021965507515,115.65879667474115,111.34076093015332,138.16806600483002,220.3166525289501,204.328225803957
2.235568902235569,1.6059219007592749,4.7998509800066325,182.7395773460116,109.41738431167474,110.9757222041832,138.04536475696156,220.92155390516209,204.23707878147124
2.2689356022689355,-1.6301550523689334,4.7998509800066325,178.8016566546637,103.10929389974254,110.49355881791408,137.82397651032636,221.6680352705272,204.18482716363928
2.3023023023023024,-2.086679157205012,4.7998509800066325,175.2952935641322,96.49890555785096,110.1322819005206,137.6499877145357,222.3457407103985,204.09563782397848
2.335669002335669,0.681599947588964,4.7998509800066325,171.9623105816044,89.63206451966757,109.86727323236288,137.49094001066194,223.0062541526137,203.9814806814904
2.369035702369036,0.681599947588964,4.7998509800066325,168.60054079198193,82.76811038706141,109.59635182066503,137.3177357980203,223.76928676493625,203.88257026070767
2.4024024024024024,0.681599947588964,4.7998509800066325,165.30597745598146,76.09958776633873,109.2883697330938,137.10947056142174,224.6143780531516,203.84540274235644
2.4357691024357693,0.681599947588964,4.7998509800066325,162.1849101482757,69.82301749171639,109.11761964021376,136.95797467687527,225.4085185707348,203.81516447944963
2.469135802469136,0.681599947588964,4.7998509800066325,159.05361417391558,63.94832022200747,109.04323463609887,136.84276213232943,226.15927914383408,203.74700348733344
2.5025025025025025,0.681599947588964,4.7998509800066325,156.04832506946093,58.66106556592578,108.99485799142327,136.74777516992478,226.90738315153172,203.66426786174475
2.5358692025358693,0.681599947588964,4.7998509800066325,153.16430717840893,54.014048994746894,108.96948853811767,136.64856522606172,227.62681596032627,203.60035662495991
2.569235902569236,0.681599947588964,4.7998509800066325,151.17398403194417,49.83076463970456,108.91530771626137,136.49392627971102,228.30407006305185,203.56865150876808
2.6026026026026026,0.681599947588964,4.7998509800066325,149.39911355483284,46.285220462981904,108.85419633984824,136.28261253823104,228.9447173157302,203.5660569522322
2.6359693026359694,0.681599947588964,4.7998509800066325,147.87259153295122,43.435889288642365,108.8076200492294,136.03849362839708,229.53436353329812,203.5922067430056
2.669336002669336,0.681599947588964,4.7998509800066325,146.67340171340965,41.310273688730135,108.7782183599776,135.7788552137234,230.0619331677072,203.64373544717904
2.702702702702702,0.681599947588964,4.7998509800066325,146.2466864535874,39.61352776238756,108.72177028662738,135.5254751927696,230.51837078696028,203.71102092275163
2.736069402736069,0.681599947588964,4.7998509800066325,145.9693910945686,38.74696810045784,108.6303923586487,135.35118130345447,230.89636417231213,203.6602261063872
2.7694361027694363,0.681599947588964,4.7998509800066325,146.54486296332922,38.85143146134765,108.49391718647256,135.1988692088214,231.2246298503619,203.59470607483527
2.802802802802803,0.681599947588964,4.7998509800066325,147.81811250790977,39.93933593028432,108.30758267633732,135.05432049141444,231.5202999387729,203.53523198110807
2.836169502836169,0.681599947588964,4.7998509800066325,149.15163439501606,40.27689516182643,108.09623761878996,134.90691944997806,231.8046913243893,203.5081292777443
2.8695362028695364,0.681599947588964,4.7998509800066325,151.1340622509509,41.37238308138458,107.99140636226716,134.87008115358935,232.0002149973884,203.3121323382482
2.902902902902903,0.681599947588964,4.7998509800066325,153.73112644797015,43.20031287604326,107.881726446176,134.83828309488106,232.1353274354228,203.1641535706184
2.9362696029362696,5.781424816454623,4.7998509800066325,156.87107569090145,45.64491585297434,107.71989204820404,134.7743668794291,232.2264521900751,203.125530913158
2.9696363029696364,12.9582007627383,4.7998509800066325,158.48823413714456,47.1660206716754,107.5373380015758,134.64013319111024,232.34965406812475,203.22352352229964
3.003003003003004,22.024446769572,4.7998509800066325,159.85125850451095,48.91956546314559,107.36902184156423,134.6668812527829,232.45757203610503,203.29320280943367
3.0363697030363697,32.89854098341069,4.7998509800066325,161.00358214605606,50.88219954718192,107.1650655740831,134.63394804761214,232.5735079570782,203.4947135302636
3.0697364030697365,45.3583675390723,4.7998509800066325,161.90650674557867,53.08405162333485,106.87667372752874,134.48424403242424,232.7598347842991,203.86460563306693
3.103103103103104,59.13801779523708,5.042966302757439,162.14241689781895,53.22774888206948,106.52900165371244,134.19655225979966,232.982745434688,204.3859257324951
3.1364698031364697,73.98202508328134,5.225126307429701,163.7526592485485,49.9750140851292,105.8614414199806,133.83403531398395,233.41133742713689,204.7862029187085
3.169836503169837,89.72688295851478,5.729486611456624,165.40948145188972,46.94324769033525,105.19415746876,133.35761901234963,233.84896163584256,205.3238027981625
3.2032032032032034,106.15865209681296,6.619092835204788,166.2487812520875,45.17538820285299,104.61389708014563,132.77856390367597,234.20340148482072,206.0504492195681
3.2365699032365702,123.12199835211317,7.507423019800408,166.9983232156737,44.45588178208315,104.05501578379776,132.13199340294264,234.48724864982424,206.92952200359045
3.2699366032699366,140.07659546943466,8.363436791796385,166.7538521635501,46.74021061976652,103.36096616473674,131.46328420089807,234.9710644035324,207.88045955196048
3.3033033033033035,157.0219631823216,9.44023681835242,166.04164416178938,48.50190677249846,102.69148657026548,130.75035051161228,235.4385653644978,208.97162637291
3.3366700033366703,173.7867933702375,10.824915960958188,164.86165759311848,50.09590401712757,102.13449445372154,129.96680496447186,235.75775196105968,210.17983675021995
3.3700367033700367,190.16415298250865,12.472478232307813,163.39628172752472,51.843702200973496,101.70310315009394,129.12751624991776,235.8998422519205,211.4735300945655
3.4034034034034035,205.584221082312,14.149245555715533,158.71674862102975,49.7457125026959,101.50736409338168,128.5159291869221,235.4948848153614,212.9644854844053
3.4367701034367704,220.5794251933102,16.095381630720254,154.3275362702483,49.10470099066744,101.5024435352349,127.80404500297762,235.0378305043306,214.50397000740364
3.4701368034701368,234.63060712211225,18.362310780410663,150.88035943683548,49.80352436713047,101.6136105387211,127.06120310598531,234.6873671749132,215.9696034718084
3.503503503503504,247.37329348269552,20.76156761884149,147.10395157305285,52.10959816452775,101.75837630652336,126.26858026591484,234.3691822480028,217.40681647896903
3.5368702035368704,259.41436048153474,23.29581275025192,143.56107515410912,56.56519995775416,101.90990579964452,125.35664877908629,234.13465465280456,218.84419521016463
3.5702369035702373,269.8939045644334,17.320970870456055,140.0334332236393,61.57255400784032,102.16594711154136,124.3904881861098,233.7693277288864,220.22218960969064
3.603603603603604,278.7084203710365,14.19684139939811,136.52236482304997,66.84164865214309,102.56643250829384,123.38408266989006,233.3470629644796,221.51238085877296
3.6369703036369705,285.7762634716988,13.562393642354513,133.36685012498072,72.80732173809616,103.05173225719652,122.35935018651448,232.89016823812835,222.74800725199293
3.670337003670337,291.4855615728614,15.176222151285426,132.02136133557167,79.83169609000868,100.94479509395978,121.04928713565114,233.22767145778,224.15250850991285
3.703703703703704,295.29271926723777,18.91959827305888,130.94853360661358,87.19195831634786,100.19904662620338,119.82421668717822,233.1598205659638,225.44163800947464
3.737070403737071,297.1024511728763,24.573360550825605,129.70124190952737,94.4421768321712,100.7661653600804,118.7351530866396,232.5192727039371,226.52679971261136
3.770437103770437,296.75304410009744,40.94320204420699,128.45685485711795,101.44441338264642,101.40394780053808,117.84542296931026,231.895174532,227.3529787121284
3.803803803803804,294.40770397931607,56.85622862711915,129.0040487901295,111.26675204157154,104.48630314451714,117.15947537826936,230.9550962034836,228.1461705993234
3.8371705038371706,299.04394492717955,71.73226448368737,129.09575953458426,119.82538609843908,106.00833277679644,116.7809017090531,229.24263796261465,228.66604629828296
3.8705372038705375,298.9393599264677,85.38885296828623,129.11516680588778,126.99476814687742,107.14189985823177,116.57603755590095,227.96430940785257,228.83801186018783
3.903903903903904,293.3640993470007,97.47699007811752,129.4000101154955,132.90829963359718,109.6541418223534,116.4779165605482,226.6880566463296,228.7854369485108
3.937270603937271,294.87577223439746,108.65645044139794,131.34825394325742,137.85085458753443,113.744083035235,116.5973291756168,226.41605420312243,228.56545296340843
