Time,Left Shoulder Angle,Right Shoulder Angle,Left Elbow Angle,Right Elbow Angle,Left Hip Angle,Right Hip Angle,Left Knee Angle,Right Knee Angle
0.0,15.918133497320358,3.8698438503576766,151.9818156064379,175.20808348639764,156.82512689088944,201.02362742853347,188.05746900317365,176.42696196572695
0.0333667000333667,14.250712326844663,3.541927101724704,151.0954520020156,174.71651850042088,156.53608567318855,201.09486926439976,188.3893184608643,176.48399026776224
0.0667334000667334,12.76362965067458,3.233592024399837,150.8799583940003,174.3005445561993,156.32818976647792,201.15973641254985,188.63607014433023,176.5393041215756
0.1001001001001001,11.447599294451056,2.9451854080424296,151.27544530503494,173.9567660724679,156.1959040340199,201.2194792380197,188.80275009878915,176.59122268032985
0.1334668001334668,10.29333508381503,2.677054042311833,152.2220232577624,173.68178746796167,156.13369333907667,201.27534810584552,188.89438436945875,176.63806509718762
0.1668335001668335,9.291550844407457,2.429544716867401,153.6598027748257,173.47221316141557,156.1360225449106,201.3285933810633,188.9159990015567,176.67815052531165
0.2002002002002002,8.432960401869273,2.2030042213684844,155.52889437886773,173.3246475715646,156.19735651478388,201.3804654287092,188.8726200403008,176.70979811786464
0.2335669002335669,7.708277581841431,1.997779345474437,157.76940859253148,173.2356951171437,156.31216011195886,201.4322146138191,188.76927353090852,176.73132702800925
0.2669336002669336,7.108216209964869,1.814216878844612,160.32145593845988,173.20196021688795,156.4748981996978,201.4850913014293,188.61098551859783,176.7410564089082
0.3003003003003003,6.623490111880535,1.6526636111383597,163.1251469392959,173.2200472895322,156.68003564126298,201.5403458565757,188.40278204858632,176.73730541372424
0.333667000333667,6.2448131132293785,1.5134663320150343,166.1205921176824,173.28656075381153,156.92203729991664,201.59922864429447,188.14968916609163,176.71839319562002
0.3670337003670337,5.9628990396523385,1.396971831133989,169.2479019962624,173.39810502846086,157.19536803892112,201.66299002962165,187.8567329163315,176.68263890775825
0.4004004004004004,5.7684617167903625,1.3035268981545745,172.44718709767886,173.5512845322152,157.49449272153868,201.7328803775933,187.52893934452365,176.62836170330164
0.4337671004337671,5.652214970284398,1.2334783227361443,175.65855794457468,173.7427036838095,157.81387621103158,201.81015005324548,187.17133449588576,176.5538807354129
0.4671338004671338,5.604872625775389,1.1871728945380515,178.82212505959282,173.9689669019788,158.1479833706621,201.89604942161432,186.7889444156355,176.45751515725473
0.5005005005005005,5.617148508904275,1.1649574032196477,181.87799896537624,174.226678605458,158.49127906369256,201.99182884773583,186.3867951489906,176.3375841219898
0.5338672005338673,5.679756445312012,1.1649574032196477,184.76629018456788,174.51244321298216,158.8382281533852,202.09873869664608,185.9699127411688,176.19240678278086
0.5672339005672339,5.783410260639614,1.1649574032196477,187.4271092398121,174.8228651432877,159.18329550300356,202.21802933338287,185.5433232373892,176.02030229279205
0.6006006006006006,5.233499375425015,1.1649574032196477,195.4729658414712,175.08548898179492,159.5064515053444,202.35643021471708,185.07963352068023,175.74628006600446
0.6339673006339673,5.069226943071171,1.1649574032196477,200.826349719852,175.44045653501752,159.76978253695063,202.53782001738105,184.68059203047147,175.4269377005864
0.6673340006673341,5.069226943071171,1.1649574032196477,193.1106270054283,175.75302074277658,160.0108203707501,202.7793571876109,184.2867818224913,175.0443414960901
0.7007007007007008,5.069226943071171,1.1649574032196477,184.1681818087376,176.1072025485409,160.2511989768173,203.10373761427525,183.9050857753776,174.58507196956452
0.7340674007340674,5.069226943071171,1.1649574032196477,181.64870632124592,176.49607322412368,160.4769327395699,203.46328917020648,183.5307167097789,174.09178423297078
0.7674341007674341,5.069226943071171,1.1649574032196477,179.1097807445601,177.07698810854887,160.66592074892523,203.8249537534112,183.194074553214,173.5978236720168
0.8008008008008008,5.069226943071171,1.1649574032196477,176.8897683155603,177.6647008948027,160.81568355779714,204.19470478746385,182.89185751061092,173.08907753035842
0.8341675008341676,5.069226943071171,1.1649574032196477,174.9611821726288,178.14078153131211,160.89798206942746,204.5108357697811,182.62380668284555,172.6001629755226
0.8675342008675342,5.069226943071171,1.1649574032196477,173.16535346500837,178.58847388031927,160.94782227075024,204.8025451339408,182.38536091964951,172.1283788443263
0.9009009009009008,5.069226943071171,1.1649574032196477,171.47066165340442,178.9623600802966,160.96310375727094,205.05312105725292,182.176325087067,171.6842505029404
0.9342676009342676,5.069226943071171,1.1649574032196477,170.14343972421605,179.2971201461288,160.92891722539176,205.25517497063487,182.0069277141891,171.28297667019706
0.9676343009676344,5.069226943071171,1.1649574032196477,169.0542908374831,179.47789549853078,160.82007811921352,205.39591006574204,181.87992778859,170.93384437184264
1.001001001001001,5.069226943071171,1.1649574032196477,168.39318828971835,179.68114226381982,160.65708964495323,205.4846931140686,181.7938438014154,170.62689452008124
1.0343677010343677,5.069226943071171,1.1649574032196477,168.05921118088426,179.7858584798994,160.42396524827774,205.44192324398284,181.75523818654304,170.40786012682628
1.0677344010677343,5.069226943071171,1.1649574032196477,168.05239883895936,179.81524252414437,160.16468191547938,205.3858295963121,181.7508866143235,170.20033690693734
1.1011011011011012,5.069226943071171,1.1649574032196477,168.0604832851925,179.82724912447,159.9077882098853,205.2996531249517,181.7685616365739,170.02412967146657
1.1344678011344678,5.069226943071171,1.1649574032196477,168.25778581540348,179.9245874288618,159.65363855774712,205.18410046901727,181.7878048510466,169.87535189802708
1.1678345011678346,5.069226943071171,1.1671786384402858,168.52718081647356,179.99713045542725,159.35664173917075,204.94102390636468,181.8569967114534,169.8133116576852
1.2012012012012012,5.069226943071171,1.1941833898593242,168.8504043266674,180.08367798851816,159.09462006125025,204.65235569118323,181.93438456480573,169.77239832930033
1.234567901234568,5.069226943071171,1.2450421849398776,169.26355837191826,180.2136387825065,158.87016910724563,204.349863008056,182.0259132444334,169.7659984781319
1.267934601267935,5.069226943071171,1.2450421849398776,169.90499685976738,180.4497254391382,158.71762136270928,204.07887401730648,182.10917449076672,169.74875776629608
1.3013013013013013,5.069226943071171,1.305105879418257,170.8773339903352,180.88252413254864,158.64564507262912,203.83889012905965,182.15452793831471,169.73418905042678
1.334668001334668,5.069226943071171,1.305105879418257,171.96698548010133,181.33306080316385,158.6442183958895,203.62870046678805,182.19536530775264,169.72302714487876
1.3680347013680347,5.069226943071171,1.4246144420095457,173.28689141852618,181.7537525354492,158.71706611196035,203.4454122829897,182.21725315710293,169.78153920487512
1.4014014014014016,5.069226943071171,1.4246144420095457,174.8084698875707,182.19518138158972,158.8787529427564,203.3176324526329,182.2129444666025,169.80905238628134
1.4347681014347682,5.069226943071171,1.4246144420095457,176.82181991134402,182.8479433181256,159.06417441742158,203.2183286840978,182.1617503666072,169.88477316393175
1.4681348014681348,5.069226943071171,1.4246144420095457,179.1233361124259,183.34956925906627,159.35507411136655,203.17573432946648,182.0447400161141,169.9024136456309
1.5015015015015016,5.069226943071171,1.4246144420095457,182.60422168995308,183.7707801623625,159.71343435109026,203.1675199164003,181.89461677392487,169.881523858801
1.5348682015348682,5.069226943071171,1.5975151402412826,185.6926674488056,184.2983702739697,160.14908906908013,203.21160258899104,181.69045268152632,169.856504132087
1.5682349015682349,5.069226943071171,1.5975151402412826,189.02787127942395,184.8842959570068,160.66935659563936,203.2722461444746,181.45630538890308,169.85166675759595
1.6016016016016017,5.069226943071171,1.5975151402412826,192.95413931302733,185.7952184920747,161.26111838087328,203.35575315141932,181.2075999730051,169.78031810776395
1.6349683016349683,5.069226943071171,1.5975151402412826,197.37591128654503,186.7445271008756,161.9336106160555,203.44624124602365,180.9123312604404,169.67508669440096
1.6683350016683351,5.069226943071171,1.5975151402412826,201.94170938434044,187.73207095155627,162.65967186363855,203.57703040910087,180.5985182183095,169.47928303751752
1.7017017017017018,5.069226943071171,1.7809357366747782,206.5275411354021,188.71263760273203,163.43678136051585,203.7832208699109,180.2502368627392,169.17750731159745
1.7350684017350684,5.069226943071171,1.7809357366747782,204.1754034212548,189.792760803584,164.24572367721683,204.0449708288938,179.87474092912436,168.79038201953682
1.7684351017684352,5.069226943071171,1.7809357366747782,199.75307228234337,191.0117382457242,165.08395082978558,204.3778166463277,179.47992014530533,168.3679826640754
1.8018018018018016,5.069226943071171,1.7809357366747782,196.2058058631392,191.9276000492732,165.98001317340143,204.77083202537483,179.06186647820982,167.9021367902712
1.8351685018351689,5.069226943071171,1.7809357366747782,195.90437010801267,193.2697497924325,166.9128021440206,205.1552252811641,178.63860544925546,167.40897837185344
1.8685352018685355,5.069226943071171,1.912582445551284,195.61032835836733,194.86752269897235,167.82646592009542,205.4839592583696,178.21815931744857,166.9204658990181
1.901901901901902,5.069226943071171,1.912582445551284,195.1962776637565,195.36391047847803,168.7369184783367,205.76133408982483,177.80400548607702,166.42735592967426
1.9352686019352687,5.069226943071171,1.912582445551284,197.20728049267552,194.97836772982004,169.62386221476046,205.97907283358896,177.38665616408062,165.92702425041136
1.968635301968636,5.069226943071171,1.912582445551284,197.9574779677216,196.09276244101164,170.44339890206749,206.0999632223552,176.99833196495092,165.4987875519113
2.002002002002002,5.069226943071171,2.074552283024315,198.66802841477497,196.708439150508,171.2132992747013,206.17342739445127,176.64605969116974,165.10526520468056
2.035368702035369,5.069226943071171,2.074552283024315,198.7782740793085,197.02610825369905,171.84103616491856,206.21097348634592,176.3426373432867,164.75296194519413
2.0687354020687354,5.069226943071171,2.074552283024315,199.26352425531988,196.999263916753,172.3751296237062,206.1680996528445,176.0808549864177,164.43944392259675
2.1021021021021022,5.069226943071171,2.074552283024315,198.8847157079907,195.97097738263244,172.7865531401613,206.0451478092432,175.8569602048691,164.16476903127815
2.135468802135469,5.069226943071171,2.074552283024315,198.41622578720103,195.25202420034907,173.12991015734616,205.84196975092132,175.67005645607622,163.92913486755845
2.1688355021688355,5.069226943071171,2.24807053874669,197.36906269636995,193.9068684079828,173.40525900863602,205.5660301485747,175.51609996559694,163.7243847023841
2.2022022022022023,5.069226943071171,2.24807053874669,195.60430312837184,192.5240894783471,173.654634705611,205.31601856893653,175.36535337526675,163.481797678271
2.235568902235569,5.069226943071171,2.24807053874669,193.58586048251053,190.896918866739,173.84235688615573,205.0025155665164,175.236476023473,163.28741851658052
2.2689356022689355,5.069226943071171,2.24807053874669,191.81608072927835,189.6171432756931,173.934311544473,204.64044087212545,175.12129967378118,163.13896154526205
2.3023023023023024,5.069226943071171,2.24807053874669,189.749311944166,188.08042864095128,173.981234738884,204.29387506747804,175.01178056684893,163.0344356096828
2.335669002335669,5.069226943071171,2.24807053874669,187.97128180231005,186.9702208737733,174.03638728169335,204.0451690084745,174.86749880980338,162.89230580589916
2.369035702369036,5.069226943071171,2.24807053874669,186.12487746158715,185.84780758489487,174.06116616297308,203.88715316148108,174.72412075594298,162.72290917957645
2.4024024024024024,5.069226943071171,2.510440999796616,184.05226578020475,184.03662611993616,174.06865790290652,203.7697344006421,174.54368502187955,162.55389840434495
2.4357691024357693,5.069226943071171,2.510440999796616,182.1812865522898,182.40379582141213,174.0784938696758,203.6860827946508,174.32954774846058,162.37376380685183
2.469135802469136,5.069226943071171,2.510440999796616,179.48398291054025,180.23311783193188,174.06596376348782,203.62674364049644,174.09793830433009,162.19214556931266
2.5025025025025025,5.069226943071171,2.510440999796616,177.21730699989078,177.85568743679698,174.02275522955864,203.5966194543862,173.83733178041362,162.0119375335868
2.5358692025358693,5.069226943071171,2.510440999796616,176.46311950962675,175.69797826234682,173.94878372894723,203.51500708110788,173.53039406087646,161.8313283367949
2.569235902569236,5.069226943071171,2.510440999796616,175.5258199009243,173.63855921770653,173.86212635938404,203.46240191367968,173.17075724224844,161.65838515649648
2.6026026026026026,5.069226943071171,2.510440999796616,172.85432480235045,171.1870066725448,173.7866264792758,203.42161685646693,172.77796230195722,161.50354084797797
2.6359693026359694,5.069226943071171,2.510440999796616,170.5194186499614,168.70978370292192,173.71294648966966,203.3759357478793,172.36112389727407,161.3644833912654
2.669336002669336,5.069226943071171,2.510440999796616,168.12533360560462,166.9938129751683,173.6532171247553,203.44401981127908,171.91708789513314,161.2296511589246
2.702702702702702,5.069226943071171,2.856232410013602,166.04241117614345,165.34215307516547,173.6181689820119,203.5693978326427,171.45819646829096,161.0978276528587
2.736069402736069,5.069226943071171,2.856232410013602,164.07329275409597,163.93485351504643,173.59600409224564,203.7597403527288,170.9772218791057,160.95923825095085
2.7694361027694363,5.069226943071171,2.856232410013602,161.80062045346082,161.56021762699444,173.61014041445006,203.9850941802518,170.49356991354855,160.81821428056472
2.802802802802803,5.069226943071171,2.856232410013602,158.90813522679707,158.76242815178443,173.66072053472087,204.29658275813216,170.00571153183594,160.67432854835056
2.836169502836169,5.069226943071171,2.856232410013602,154.5382426520863,156.10744087316394,173.7141389380908,204.6660139469976,169.51499287484157,160.53399175398144
2.8695362028695364,5.069226943071171,2.856232410013602,150.514691006636,153.98897489852172,173.7796539109034,205.07982172007132,169.0271941585081,160.40214761952726
2.902902902902903,5.069226943071171,2.856232410013602,146.80836096178763,151.9889542368226,173.86130216905806,205.5501596592725,168.54234512815,160.2807663088656
2.9362696029362696,5.069226943071171,2.856232410013602,143.0586207231847,150.12412915989358,173.9471925439462,205.9870642542712,168.0814336513559,160.17245439616923
2.9696363029696364,5.069226943071171,2.856232410013602,139.39897523243394,148.7665255102144,173.9935812625295,206.3461767360462,167.6580677397021,160.08892225204005
3.003003003003004,5.069226943071171,2.856232410013602,135.9581999986401,147.1969847906027,174.01291112939086,206.66411220721423,167.25908771870348,160.01995031915894
3.0363697030363697,5.069226943071171,3.208613261380162,133.01661443977923,145.2427419047646,174.0151938198846,206.940514878948,166.89083709008594,159.9776154247966
3.0697364030697365,5.069226943071171,3.208613261380162,130.67431451758054,144.65743315677838,173.9885953069044,207.1841543921277,166.5632774219516,159.9273991322846
3.103103103103104,5.069226943071171,3.208613261380162,126.21976436542012,145.34751253315596,173.88529497831468,207.37563786610667,166.29525723627626,159.9018664111359
3.1364698031364697,5.069226943071171,3.208613261380162,122.90258310174606,144.62776215318402,173.78102782462017,207.61306160849057,166.01015704700407,159.77046398366917
3.169836503169837,5.069226943071171,3.208613261380162,118.92063965794556,144.28377217570318,173.6773126078641,207.90863909856097,165.66555196378067,159.59191962454358
3.2032032032032034,5.069226943071171,3.208613261380162,117.82637566872644,149.38161331370586,173.6487888751285,208.16530371816532,165.2903827947961,159.43770718519994
3.2365699032365702,5.069226943071171,3.208613261380162,115.49615394846356,151.3590483558149,173.65062888180395,208.30495172188824,164.86633070705406,159.33516508971564
3.2699366032699366,5.069226943071171,3.208613261380162,112.40967423370482,150.68876472729278,173.63389073810546,208.35018220879607,164.4749470210678,159.3028356212069
3.3033033033033035,5.069226943071171,3.208613261380162,108.15679109581856,149.17015689595706,173.67934052735785,208.4229688987752,164.05385913804304,159.27032855251542
3.3366700033366703,5.069226943071171,3.208613261380162,102.95340471658672,145.99782541375538,173.74488097314352,208.43260899595936,163.63958231295803,159.23232157718778
3.3700367033700367,5.069226943071171,3.208613261380162,100.76815608325506,142.98908524396234,173.95114397521766,208.54577184368176,163.22821754408082,159.21130666572475
3.4034034034034035,5.069226943071171,3.557898021997433,98.2349792288004,140.6514480144733,174.23849614897384,208.5368264066309,162.81863013578865,159.27016644939076
3.4367701034367704,5.069226943071171,3.557898021997433,96.21615289948316,138.57495029637755,174.5781833624696,208.566776896894,162.52006932921012,159.47601833296577
3.4701368034701368,5.069226943071171,3.557898021997433,94.77961014737836,135.06558495679474,174.87234967004122,208.5470202637761,162.4241975759475,159.7274394405679
3.503503503503504,5.069226943071171,3.557898021997433,92.96656945907392,135.09063735755672,175.1805349202474,208.44392120738524,162.47328136609624,159.98630403386647
3.5368702035368704,5.069226943071171,3.557898021997433,92.13346971993629,130.90255654377646,175.4907337323293,208.3071019856836,162.65421528628687,160.25725668724093
3.5702369035702373,5.069226943071171,3.557898021997433,92.19284540187884,134.01154132382646,175.86725057442018,208.05886266037683,162.9521045956839,160.56152682361426
3.603603603603604,5.069226943071171,3.557898021997433,96.95462161118056,137.9001251573821,176.19463161130906,207.6584455445964,163.47213382747907,160.9843913253588
3.6369703036369705,5.069226943071171,3.557898021997433,97.48597715517069,141.30195409932054,176.49517035835748,206.93914490836897,164.20312564334353,161.5336803572275
3.670337003670337,5.069226943071171,3.557898021997433,99.93094732934875,140.83856605295406,176.7320935828375,206.16765771357225,165.10795516420066,162.23573973190767
3.703703703703704,5.069226943071171,3.557898021997433,103.17609004531283,138.66881301741344,176.92452571951048,205.45163996316387,166.1884204999586,163.12662125492173
3.737070403737071,5.069226943071171,3.913726113266096,106.83964337324764,135.8196746021658,177.07068772283694,204.7494944272591,167.4211922043333,164.16012695113184
3.770437103770437,5.069226943071171,3.913726113266096,112.63832658480902,132.89583326071687,177.22720920882597,204.13818136075028,168.78046749789837,165.27434766316273
3.803803803803804,5.069226943071171,3.913726113266096,118.484893517267,131.2046112610059,177.29799150530272,203.6561695317565,170.2337825670854,166.55037711057588
3.8371705038371706,5.069226943071171,3.913726113266096,124.9076221870976,129.3821032119186,177.30366134914368,203.3124874562696,171.7532374285621,167.90307079277744
3.8705372038705375,5.069226943071171,3.913726113266096,131.57454837666685,128.29948941303977,177.27497759132356,202.9627126518534,173.34117223103854,169.4457986369319
3.903903903903904,5.069226943071171,3.913726113266096,137.74046385755054,127.49650317750076,177.14831370125162,202.5899892308723,174.9859115649282,171.13678908233527
3.937270603937271,5.069226943071171,3.913726113266096,143.3083367781329,127.92545584223016,176.95230883738307,202.2720511347376,176.6392972616074,172.91727598621455
