Time,Left Shoulder Angle,Right Shoulder Angle,Left Elbow Angle,Right Elbow Angle,Left Hip Angle,Right Hip Angle,Left Knee Angle,Right Knee Angle
0.0,25.067475661970324,24.42406259058619,143.51593551401604,144.67854334631366,130.25496943207608,134.61990338452844,202.35002100331943,202.23659212678683
0.0333667000333667,25.60853692738097,33.487927290561906,145.46841429974862,152.0559187341653,130.57906203871352,133.7858829170406,201.4854774611881,202.1765616472799
0.0667334000667334,25.56856499308584,40.26021819655842,147.4098401420534,158.24589855321128,130.8344650258151,133.18942753584076,200.78621187570133,202.09758690255345
0.1001001001001001,25.05151371836964,44.95951393928874,149.33166245224865,163.30608599409754,131.02385213966105,132.81498994555616,200.2452055977427,202.00012411193933
0.1334668001334668,24.16133696251709,47.80439314946587,151.2253306416526,167.29408424746993,131.1498971265316,132.64702285081395,199.85543997819605,201.88462949476943
0.1668335001668335,23.00198858481292,49.0134344578028,153.0822941215835,170.26749650397437,131.21527373270698,132.66997895624138,199.60989636794508,201.7515592703756
0.2002002002002002,21.67742244454183,48.80521649501256,154.89400230335954,172.28392595425672,131.2226557044674,132.86831096646566,199.5015561178735,201.6013696580897
0.2335669002335669,20.291592400988545,47.39831789180814,156.651904598299,173.40097578896288,131.17471678809306,133.22647158611397,199.52340057886505,201.4345168772436
0.2669336002669336,18.948452313437784,45.01131727890255,158.34745041772013,173.67624919873876,131.0741307298642,133.72891351981346,199.66841110180349,201.2514571471692
0.3003003003003003,17.751956041174267,41.8627932870088,159.97208917294114,173.16734937423024,130.92357127606104,134.36008947219145,199.9295690375725,201.05264668719823
0.333667000333667,16.806057443482704,38.1713245468399,161.51727027528028,171.9318795060832,130.72571217296377,135.1044521478751,200.29985573705585,200.83854171666272
0.3670337003670337,16.21471037964782,34.15548968910883,162.9744431360558,170.02744278494353,130.48322716685266,135.94645425149156,200.77225255113723,200.6095984548944
0.4004004004004004,16.081868708954328,30.03386734452861,164.33505716658593,167.51164240145712,130.19879000400786,136.87054848766812,201.3397408307004,200.3662731212252
0.4337671004337671,16.511486290686943,26.02503614381225,165.59056177818889,164.4420815462699,129.87507443070967,137.86118756103193,201.9953019266291,200.10902193498697
0.4671338004671338,17.607516984130385,22.347574717672742,166.73240638218294,160.87636341002766,129.51475419323825,138.9028241762102,202.73191718980704,199.8383011155116
0.5005005005005005,19.473914648569377,19.220061696823112,167.75204038988633,156.8720911833764,129.12050303787385,139.97991103783016,203.542567971118,199.55456688213084
0.5338672005338673,22.214633143288623,16.86107571197634,168.64091321261725,152.48686805696198,128.69499471089665,141.076900850519,204.4202356214456,199.25827545417667
0.5672339005672339,25.933626327572487,15.489195393844934,169.39047426169537,147.77829722143164,128.240902958588,142.17824631890497,205.3579014916753,198.9498830509826
0.6006006006006006,34.511715480581245,20.61366089839475,169.55648266002558,143.0884119624204,127.7718358924072,143.10576885327242,206.36034905715485,198.7042266143808
0.6339673006339673,43.91642707453921,36.38989618404692,170.0959079726523,139.09447783855848,127.27888083546924,144.07918143720295,207.4917901192388,198.15457600172684
0.6673340006673341,64.14093847986183,51.78669976866401,171.58601072213654,134.31182276969216,126.70099428210412,145.0389406702312,208.68051924644533,197.4137734892752
0.7007007007007008,83.849294276683,67.12330608823645,169.72604146119428,128.68140739100576,126.02637401094992,145.80340879114243,209.99794829000345,196.60737470114475
0.7340674007340674,100.49675420579618,80.00499074934987,168.85069711875192,120.39812187550828,124.9590329342336,146.54785861054273,211.5918486822494,196.0571370891103
0.7674341007674341,115.22533621556768,91.62890024737096,168.19221042552013,114.1939008899518,123.62649993651358,147.31978776176632,213.3821711097632,195.52852125446407
0.8008008008008008,128.55793790203353,101.58458309772996,167.93067341714143,108.09938347886349,122.61550509919378,147.81652694333133,214.92046011973028,195.4639089055444
0.8341675008341676,140.98506416827098,110.18787324354363,168.88601903134702,102.9128398394224,122.02627643426968,148.1447034723236,216.04645643414187,195.66729765495663
0.8675342008675342,151.47558037545966,117.8838314428242,169.30457242427732,103.5924374462808,121.56399516863384,148.48799249634988,216.9783354391648,196.03969286744496
0.9009009009009008,160.0552898378516,125.29992164844296,169.62462130075656,102.84121191698134,121.28818892625446,148.5257577199718,217.8141642074903,196.4237276450536
0.9342676009342676,166.4115779060676,131.91880710071578,167.13248671294173,101.73495619348373,121.0130103534174,148.5083883596814,218.6990442316323,196.75099552526456
0.9676343009676344,160.6411056435515,127.59126790784045,167.24064316836476,94.91218343936356,120.9283496617971,148.65759068025744,219.502120830934,197.2470251303347
1.001001001001001,157.15498702019286,125.35604227024436,165.1577607082578,88.09493282058406,120.98002989532014,148.60224786237055,220.0197158909136,197.74919088297963
1.0343677010343677,154.85288957911197,124.3046049766724,162.50109156701612,82.93556233024698,121.2175332946752,148.3305285861206,220.1345590248941,198.20612520960003
1.0677344010677343,152.83073352889895,124.3045035491134,160.79413218460556,78.94911055064684,121.5187863718415,147.8379629415193,219.9127168861707,198.6423668039353
1.1011011011011012,151.329562494876,125.17290624278964,159.37295421289437,76.91222065018894,122.0769250108615,147.12225044208785,219.257603507462,198.97052619463528
1.1344678011344678,150.24855361792646,126.69583535290658,158.1488336984725,76.60182366456027,122.90961281384932,146.38966358600982,218.0651955159162,199.16738549716464
1.1678345011678346,149.6545248038059,128.64088827186305,156.84492729760913,77.8578946480408,123.98405237433296,145.67747446117338,216.4802218107297,199.2482531583916
1.2012012012012012,157.51114017070327,131.97752476680844,155.51784764509142,80.61170010052679,125.13970246071264,144.99666206727224,214.7573082402736,199.28534950378173
1.234567901234568,163.04142779272692,139.78755685238485,153.78488690485955,84.35713037093213,126.44348883478168,144.40850186690847,212.9277722407217,199.27101740522056
1.267934601267935,166.84145136828047,146.1480437813697,152.5664397962979,94.54446658232256,127.91500549714176,143.81527342732824,210.7054114846244,199.23244609871887
1.3013013013013013,167.8505502901318,152.7925532212678,150.75891358401904,100.96545861911292,129.4451182712922,143.41832703884288,208.3368688068473,198.95501564694425
1.334668001334668,165.70284949122615,155.83588931978713,148.1820234302246,107.85318943531328,131.0192729025549,143.1035286514167,205.872604608649,198.37409392004508
1.3680347013680347,160.1209201212923,147.77630730976878,145.31647148403968,113.52698579334516,132.67417088995143,142.82766895449083,203.27219874890235,197.6639822078747
1.4014014014014016,152.4672147561986,140.52227159933034,143.91298132018986,116.0689394024388,134.31131003445736,142.6617405378028,200.66625256792372,196.83106663868045
1.4347681014347682,142.1285183073158,132.60983170577703,138.4861121209751,119.19496581525468,135.989809716463,142.5136016398371,198.12264188708528,195.8636862737432
1.4681348014681348,129.92751142443157,127.06018311650324,132.4382179363358,117.6968459626852,137.6551819977331,142.4739168776785,195.6559553601531,194.71123498318235
1.5015015015015016,127.16094395802182,120.76911608094292,126.88699852978036,119.63435223496433,139.25790200070307,142.55901573085845,193.2610541898936,193.43221351336777
1.5348682015348682,132.73978827594115,126.4869023586374,121.3131632182693,122.6979796527175,140.96477385406587,142.7714715918625,190.63524895295524,191.6224073390248
1.5682349015682349,138.29418218937943,133.04612684438868,115.62685063315932,125.6776158989098,142.63069471788728,143.0792615224339,188.12220277529752,189.7650018285084
1.6016016016016017,143.48584671028755,140.3080170717575,109.88123542251851,128.54226603513828,144.24052179121023,143.48595157260294,185.756905541813,187.88979149197124
1.6349683016349683,147.9765028506179,148.13380057430584,104.12949223441632,131.26093512300088,145.7791122730787,143.99510779240092,183.57434713739605,186.0265708395676
1.6683350016683351,151.42787162232295,156.38470488559597,98.42479571692208,133.80262822409554,147.2313233625367,144.61029623185922,181.6095174469409,184.20513438145176
1.7017017017017018,153.50167403735526,164.9219575391898,92.82032051810508,136.13635040002015,148.58201225862817,145.3350829410092,179.89740635534196,182.45527662777792
1.7350684017350684,153.85963110766704,173.6067860686492,87.3692412860347,138.23110671237268,149.81603616039715,146.17303396988214,178.47300374749346,180.80679208870035
1.7684351017684352,152.16346384521097,182.3004180075364,82.12473266878033,140.05590222275106,150.9182522668876,147.12771536850946,177.37129950828972,179.2894752743733
1.8018018018018016,148.07489326193945,190.8640808894133,77.13996931441122,141.5797419927532,151.87351777714352,148.20269318692246,176.62728352262502,177.93312069495104
1.8351685018351689,141.255640369805,199.15900224784207,72.46812587099679,142.77163108397707,152.66668989020886,149.4015334751525,176.27594567539376,176.7675228605878
1.8685352018685355,131.36742618075985,207.04640961638492,68.16237698660635,143.60057455802053,153.28262580512765,150.7278022832309,176.3522758514901,175.82247628143784
1.901901901901902,118.07197170675664,214.3875305286037,64.27589730930929,144.0355774764816,153.70618272094384,152.185065661189,176.89126393580847,175.12777546765545
1.9352686019352687,101.0309979597476,221.0435925180604,60.86186148717496,144.04564490095814,153.92221783670146,153.7768896590582,177.92789981324313,174.7132149293948
1.968635301968636,79.90622595168543,226.8758231183171,57.97344416827269,143.5997818930481,153.91558835144443,155.50684032686982,179.49717336868838,174.6085891768102
2.002002002002002,54.35937669452255,231.74544986293583,55.66382000067179,142.66699351434943,153.6711514642168,157.37848371465518,181.6340744870385,174.84369272005586
2.035368702035369,24.05217120021144,235.5137002854788,53.98616363244166,141.21628482646008,153.17376437406253,159.39538587244562,184.37359305318785,175.4483200692861
2.0687354020687354,-11.35366951929592,238.0418019195077,52.99364971165159,139.21666089097792,152.4082842800256,161.56111285027254,187.75071895203072,176.4522657346551
