Time,Left Shoulder Angle,Right Shoulder Angle,Left Elbow Angle,Right Elbow Angle,Left Hip Angle,Right Hip Angle,Left Knee Angle,Right Knee Angle
0.0,23.6701436332662,34.135749442644766,150.96282376277642,165.43902628552854,129.08050451161216,124.4870936225012,217.91480271061863,221.2087969796225
0.0333667000333667,25.681628765067902,34.349708293368586,154.69017420623064,166.2847384126279,128.68798413980005,124.12210178999466,218.3333428069444,221.88411739710963
0.0667334000667334,27.377010529491866,34.54373400794153,157.80249503264184,167.01670912712123,128.32548278733157,123.8024052353136,218.70855074942645,222.45780815020217
0.1001001001001001,28.776871988266898,34.718237386175105,160.3396539156025,167.64024986140018,127.99183597376228,123.52603056033152,219.041995915155,222.93508669064263
0.1334668001334668,29.90179620312182,34.87362922788079,162.34151852870497,168.16067204785637,127.68587921864774,123.29100436692192,219.33524768122012,223.32117047017368
0.1668335001668335,30.772366235785466,35.01032033287009,163.84795654554168,168.58328711888137,127.40644804154356,123.0953532569583,219.5898754247121,223.62127694053763
0.2002002002002002,31.40916514798665,35.128721500954484,164.89883563970503,168.9134065068668,127.15237796200526,122.93710383231416,219.8074485227208,223.84062355347723
0.2335669002335669,31.83277600145421,35.22924353194547,165.53402348478747,169.15634164420433,126.92250449958844,122.81428269486298,219.9895363523363,223.9844277607349
0.2669336002669336,32.063781857916965,35.31229722565455,165.79338775438134,169.3174039632855,126.71566317384864,122.72491644647828,220.1377082906489,224.05790701405311
0.3003003003003003,32.12276577910374,35.378293381893194,165.7167961220791,169.40190489650195,126.53068950434142,122.66703168903356,220.2535337147486,224.06627876517447
0.333667000333667,32.03031082674336,35.42764280047292,165.34411626147312,169.4151558762453,126.36641901062238,122.63865502440233,220.3385820017256,224.0147604658416
0.3670337003670337,31.80700006256465,35.46075628120519,164.71521584615587,169.36246833490716,126.22168721224706,122.63781305445804,220.39442252866985,223.9085695677968
0.4004004004004004,31.47341654829644,35.478044623901525,163.86996254971967,169.24915370487915,126.09532962877104,122.66253238107424,220.4226246726716,223.7529235227828
0.4337671004337671,31.050143345667543,35.479918628373404,162.848224045757,169.08052341855284,125.98618177974988,122.7108396061244,220.42475781082084,223.553039782542
0.4671338004671338,30.557763516406805,35.46678909443232,161.68986800786027,168.8618889083199,125.89307918473916,122.78076133148204,220.40239132020776,223.314135798817
0.5005005005005005,30.016860122243035,35.439066821889774,160.43476210962186,168.5985616065719,125.8148573632944,122.87032415902064,220.35709457792245,223.0414290233504
0.5338672005338673,29.44801622490506,35.39716261055724,159.12277402463414,168.29585294570046,125.75035183497124,122.97755469061369,220.29043696105492,222.74013690788456
0.5672339005672339,28.87181488612192,35.34148726024651,157.7937714264908,167.9590743580986,125.6983981193262,123.10047952813572,220.2039878466973,222.4154769041639
0.6006006006006006,28.39117343049253,35.277209349986194,156.55284111951138,167.63029113778703,125.64551305328426,123.24078963008176,220.1138187640061,222.11316763072867
0.6339673006339673,28.12350424908323,35.195467435626554,155.72221191282406,167.29839767415513,125.55712164297306,123.4028476954903,219.98809601323703,221.77949393516136
0.6673340006673341,28.01443209721521,35.138612088855275,155.15031667436568,167.0646234282521,125.47750637869144,123.60723994913938,219.8585529824811,221.4427010551084
0.7007007007007008,27.982606094537104,35.15461763611431,154.7907826787859,166.94990795514883,125.4494365626944,123.7598979924748,219.7372215722885,221.1465626705952
0.7340674007340674,28.01410816421904,35.15360953083262,154.59382843513183,166.78102130723957,125.4261492580303,123.8852491174016,219.6202574296462,220.8641180454315
0.7674341007674341,28.07124138274792,35.11261051176489,154.46927560608898,166.5341951095344,125.3864153093587,124.00799977895213,219.52981788840103,220.5776258509584
0.8008008008008008,28.165768016474686,35.054496154845125,154.4386793888447,166.28258580437864,125.41231049718236,124.11045940898694,219.4620868149769,220.26758409238755
0.8341675008341676,28.45845822247132,35.00517501614584,154.764281663177,166.01267441980082,125.39679825752192,124.17958372463109,219.40171708551395,219.96181845078323
0.8675342008675342,28.83444799874271,34.80424551968968,155.28588123276998,165.46142905154812,125.34586700032442,124.25301390510728,219.31056049223736,219.70607007223265
0.9009009009009008,29.321662682746165,34.53603992919991,156.1341411233758,164.798148802321,125.4039156850496,124.32052726938046,219.1420580802956,219.47662428077177
0.9342676009342676,29.879526157102152,34.238636275809434,157.17897993104037,164.08462358730904,125.5094792282905,124.34684411294238,218.91694183385096,219.25369605259624
0.9676343009676344,30.4504085433242,33.94533790801544,158.34933437254315,163.36934927819306,125.6832697591385,124.3945392109866,218.6114000166796,219.0351236119448
1.001001001001001,31.067111535252643,33.55984510614329,159.6555356370573,162.55311005828037,125.87104325564783,124.47395466137064,218.24307737799472,218.84764394211248
1.0343677010343677,31.72747659524711,33.098689195571595,161.07853866510823,161.67803860561114,126.0495523434293,124.58260273222554,217.8473312219,218.66245702679385
1.0677344010677343,32.509580435862944,32.681692696468886,162.65868539882462,160.7971283710023,126.08252560241948,124.6605402893331,217.5064807029604,218.53559077289947
1.1011011011011012,33.28571547295345,32.22608285558942,164.25882906476144,159.95903530168096,126.19752828430934,124.76628673590048,217.0385542694072,218.45132514893223
1.1344678011344678,34.034434888146365,31.656353433695983,165.69265044032878,158.81740340055603,126.3766585398059,124.92360305667609,216.4452142055818,218.36026894531324
1.1678345011678346,34.87316697058412,31.07520392422852,167.16298682994056,157.75990026616284,126.48840301391373,125.10839464624536,215.8386634592308,218.2940796329837
1.2012012012012012,35.65698267712182,30.64527635778434,168.4633367605496,156.90970230626436,126.63077173370296,125.31233402356112,215.1758094177085,218.2572272221203
1.234567901234568,36.42084276187025,29.907081748642742,169.88720973473878,155.6263911867498,126.80390381373095,125.5306332082086,214.4533144332649,218.23596417058693
1.267934601267935,37.05683043985169,29.095478855727457,170.7216798545217,154.34947181393568,126.94419847230898,125.77829909685728,213.74165751908347,218.2118069604158
1.3013013013013013,37.524664727951496,28.198599427180127,171.49624625034602,152.63730192013307,127.02048728688727,126.07669285040394,213.10521324278807,218.1510261887664
1.334668001334668,37.815934066406776,27.2092377540922,172.23035541602175,150.82845697140357,127.06998539754436,126.3953946243136,212.5317074662516,218.11741219317472
1.3680347013680347,38.07387900995211,26.163791636734,173.15236421692947,149.051403638039,127.12628774417576,126.74314643152265,212.0382340946464,218.10029976757312
1.4014014014014016,38.363199225195416,25.09047668960178,174.45624542799305,147.38588380850197,127.16717070603951,127.14344189434928,211.586203022332,218.0681945947409
1.4347681014347682,38.55191025265677,24.012548473165666,176.23233394343785,146.09200607411708,127.18226810705085,127.60424102069663,211.19177038006407,218.01711930375865
1.4681348014681348,38.60601030716146,22.92761067713599,177.46689470429445,144.95088122616534,127.16552598968612,128.13394934285031,210.86734312129303,217.92073685906283
1.5015015015015016,38.426316234005526,21.89978112490577,176.10092758603193,143.52153087993227,127.16984238506596,128.73318155128177,210.6183629400436,217.7815225976984
1.5348682015348682,37.77162817515559,20.85388933655474,175.0501048437435,144.46010526315163,127.15661771352818,129.38848796864326,210.4178415912588,217.62471713861868
1.5682349015682349,36.550787123885925,19.64533506456732,178.2086641718486,144.97765604462836,127.10042671234874,130.06462292567497,210.26651512800825,217.46472722265565
1.6016016016016017,35.28828851850079,18.337353277977943,177.3291083124072,144.2633624360841,126.94962620720194,130.75337674232725,210.2093555182905,217.2959250110662
1.6349683016349683,33.82044969835418,17.183616360510516,176.8616239784361,142.8726888319497,126.76576262660004,131.42606498453722,210.26970390935807,217.1370465226984
1.6683350016683351,32.17714277054286,16.433694908355363,179.5799357474471,141.33337846090424,126.51551577043784,132.08271157747177,210.4557248345775,216.97296087545968
1.7017017017017018,30.126717622325163,15.785286313153405,181.91243598689056,139.78315284260134,126.22490643588606,132.73485627408735,210.741756598801,216.7838747488285
1.7350684017350684,28.38491669265745,14.973908837333216,184.00649373782977,138.23878408123744,125.9324266168363,133.35826520866684,211.0985255982112,216.58867399866
1.7684351017684352,26.409702984927755,13.99151934698334,185.12576817038192,136.15843220239634,125.6152249987461,133.97473171915544,211.5580381508683,216.37583638508755
1.8018018018018016,24.41857842110502,13.178544753631748,185.7020327376649,133.86286473793518,125.28396281325809,134.52941190156798,212.09862541353888,216.16811864392292
1.8351685018351689,22.41014380949082,12.48681231973612,185.50252677579576,131.27712509451578,124.9674564704312,134.9863962506674,212.7131499928756,215.9528419062288
1.8685352018685355,20.668883532942584,11.85183958459954,184.9027741181713,129.26745435799964,124.55489751284873,135.41469869425603,213.44652998553207,215.6901741337853
1.901901901901902,19.242934824768724,11.490239196749584,183.9469160287816,126.1323510081308,124.1303189873108,135.79417078834433,214.2314216096186,215.4026748739342
1.9352686019352687,17.968923749071276,11.02607179448683,182.409695638319,121.1282183707671,123.73811850876216,136.0926759689717,215.01172648570235,215.12157540230712
1.968635301968636,17.31919545595249,10.69109903092166,181.12436786725104,114.87359799104767,123.30417065265684,136.32142472973385,215.78245224076736,214.88295335404223
2.002002002002002,16.70424064639574,10.461804876991255,179.21000360487096,108.74187854704682,122.96565462669749,136.5441624388025,216.477090803566,214.63949036884625
2.035368702035369,7.364287491874467,10.532410414776846,176.6857840745686,103.025806840853,122.73964105802288,136.7245710621712,217.09820879283063,214.33464549568555
2.0687354020687354,1.1095199980768058,10.804999828370162,174.04829595157182,97.51859493993508,122.52620442572952,136.8816493696106,217.67086182650732,214.00450497289376
2.1021021021021022,1.1095199980768058,11.22219347726016,170.95261077510054,92.27576915208503,122.3573372761028,137.07140317615568,218.16943122998728,213.66902678213103
2.135468802135469,1.1095199980768058,11.780624110185354,167.66704842615985,87.20763222081102,122.20779812895935,137.26173461187457,218.5976038394024,213.3202764381956
2.1688355021688355,1.1095199980768058,12.519497000159904,164.3830378443934,82.38659348009307,122.10393430035582,137.4426271462804,218.9409462925433,212.9296001123157
2.2022022022022023,1.1095199980768058,13.527112851804702,160.37513851438425,77.87102234815546,122.03959379158158,137.62007274819453,219.18583774131332,212.53763340456112
2.235568902235569,1.1095199980768058,14.714363600231902,156.41830511695647,73.81873009626734,122.15435789265372,137.81944245458152,219.2635227991412,212.1361899651356
2.2689356022689355,1.1095199980768058,16.089397557206638,152.15882597263774,70.0614823312689,122.28506571107778,138.0024295784922,219.31994893744124,211.7241962256375
2.3023023023023024,1.1095199980768058,17.722060981786328,148.833544427402,66.97817776583284,122.36866815106666,138.157494769504,219.37282791495733,211.32656846061627
2.335669002335669,1.1095199980768058,19.49312144241216,147.37500402786736,64.18001474971209,122.5762770126818,138.29872548601122,219.3404265471316,210.9233705460036
2.369035702369036,1.1095199980768058,21.12168706955374,145.70229808517908,61.396629612168205,122.7801872532678,138.44133334402542,219.3241741864052,210.53178661973425
2.4024024024024024,1.1095199980768058,23.06512445753172,144.31363263501177,59.49311305467917,122.95775768260724,138.56469311774532,219.391845368892,210.1496270393459
2.4357691024357693,1.1095199980768058,25.126391913880653,143.89086802673074,58.007387006239085,123.1738190903084,138.67247371548189,219.5036742275192,209.78967489933888
2.469135802469136,1.1095199980768058,27.22446554350799,144.1559523975987,57.43331547484979,123.44107669874974,138.75708739811378,219.61293876503177,209.44667035384583
2.5025025025025025,-1.7155210570844046,29.487201732124827,144.77949814766745,57.75465877370783,123.72682570532108,138.86937023099276,219.72426997547208,209.0654509920913
2.5358692025358693,-1.6192885479387398,31.833570418218383,145.54894045046123,58.915112158726295,124.00239172844798,139.00834039723304,219.82387997729435,208.6757157359952
2.569235902569236,1.0882740991586308,34.19534355392182,146.22020753134927,60.873113877765846,124.25679471608989,139.15272320676902,219.9176487679579,208.2917492513051
2.6026026026026026,15.575809643663176,28.166705109403168,146.34538331403422,63.28429854325579,124.47445263337198,139.27658243258597,220.02175586197217,207.93338965909416
2.6359693026359694,29.596716578344704,24.894061359944885,146.7231789378649,66.2028715143346,124.66722635130604,139.4190590377979,220.120030246474,207.56164234875823
2.669336002669336,42.424924816913375,24.0149284416348,150.18243633313722,70.30678663399797,124.8215582945343,139.542392863929,220.25205047241084,207.1901447940821
2.702702702702702,54.25921416659074,25.366937313867048,154.42976812815022,72.19664343686867,124.9403054046997,139.65757282327496,220.43802159357656,206.77986021758545
2.736069402736069,55.83522833580928,28.93627803478531,154.3653718499052,73.90216093407341,125.06198792418095,139.7735579596585,220.68113760260303,206.3329312795934
2.7694361027694363,59.73760144381781,34.5987879638545,158.45712143405035,76.32146221182803,125.2233261066259,139.9076638411613,220.9498354297404,205.8379883060697
2.802802802802803,65.34686480509396,41.91630395308117,163.05860943216504,79.11065097273705,125.37784988834105,140.06866373024317,221.23092754952967,205.2882780422693
2.836169502836169,72.43022623095312,50.39910853558661,164.91959572363922,81.81927419174636,125.50968871968142,140.24154635726995,221.5066655103858,204.7010402491754
2.8695362028695364,80.71207079722109,60.05318834648226,166.49906576604425,84.27072433275886,125.62056036296435,140.40753501702488,221.80252552439228,204.10169979446832
2.902902902902903,90.1884169416521,71.02539970391321,167.72316610706918,86.19224261945702,125.69448248570482,140.55087625594192,222.09872967663705,203.5214289500055
2.9362696029362696,100.60199912240628,83.24767434965737,168.8756854434984,87.99611663924613,125.71096732919648,140.66404081585625,222.3908060092693,202.9633708561797
2.9696363029696364,111.53039742123352,96.33440871674314,169.04481835130073,89.36642251203763,125.67647371845815,140.7633146862448,222.71493565749844,202.41199380508465
3.003003003003004,122.83929714689828,110.14236846136907,169.22982044286852,90.16711201370252,125.58082140478726,140.8371990771612,223.04773004841311,201.8778877769889
3.0363697030363697,134.281143238859,124.49284466472815,168.3164138233756,88.99054677805076,125.45731202354368,140.8991744931088,223.3700923331321,201.36668360479777
3.0697364030697365,145.554118164405,139.0325580217433,167.54222153778355,87.36491277610335,125.29748190296114,140.97931154488413,223.70770512898704,200.79804188165417
3.103103103103104,156.711815998507,154.01079865970547,166.75157065628215,86.60245631876349,125.12413109270938,141.04265451015772,224.04393732903333,200.2531970947813
3.1364698031364697,167.89949945724788,169.10146429165923,164.81838814493085,86.72816567937703,124.97032076242658,141.07491423215745,224.33430275974808,199.7699824839573
3.169836503169837,178.82322708932315,184.12503841527587,162.55940728462124,86.64199921942853,124.76685211609612,141.08948665640625,224.620700210004,199.34460310425533
3.2032032032032034,189.18833823114016,198.84172018427057,160.25625304751418,86.34573511033469,124.53408758726523,141.07525201055543,224.9017164363902,198.99293858853707
3.2365699032365702,198.83876279325983,221.78981667625564,157.68920952155463,86.03856573576093,124.26190618042598,141.04184370898955,225.18782003975457,198.7120858265528
3.2699366032699366,207.7315370268414,241.7877110498881,155.29555957261934,85.65084273967187,123.9771533561754,140.9702779090112,225.43625443433217,198.5025221474561
3.3033033033033035,214.6004791801336,258.74868030885307,153.264264119401,85.1384705173889,123.65939757577004,140.8868527371142,225.66462532383923,198.32245502480228
3.3366700033366703,221.53502204636416,272.7580255089442,150.8625896710283,84.6322754859185,123.29425112886446,140.77922026448147,225.9090229554315,198.1935844232844
3.3700367033700367,227.0774574583979,283.7880435929057,149.67672937984435,84.11702566073201,122.83671148986808,140.59347165230372,226.14823320318465,198.1817459080122
3.4034034034034035,232.5982608091192,291.6245251996665,148.91514147283513,83.32766513063905,122.29684997910358,140.32723558889558,226.42733576718908,198.33307023431465
3.4367701034367704,237.7067566051436,296.380302879634,149.99393333686376,82.37069139301403,121.5745220869966,139.96270416310946,226.7912991745981,198.67846698916136
3.4701368034701368,240.9378390047159,298.05292896873146,152.21404444333632,81.26283619209485,120.77293326994878,139.47473651648272,227.23607373806456,199.25838781660693
3.503503503503504,242.7959929463518,296.6868483342521,152.72007029711182,80.15074637150019,119.896432925221,138.88304114462574,227.6551729954921,199.9899659198228
3.5368702035368704,242.8613999585541,292.37433836412134,155.44024759086255,77.66073443085058,118.71318867149871,138.63200520654885,227.84924970484576,200.9469504351672
3.5702369035702373,241.37882906583533,283.77581490648055,156.7449407283665,77.51117334027786,117.70547795978555,138.0297946601559,228.0659807640908,202.00536582860548
3.603603603603604,250.06332523086635,272.73368229415325,157.17910602714127,75.42778002699862,116.89821065462316,137.23992780657983,228.1902311504716,203.19103948535843
3.6369703036369705,259.78263018764875,257.29329464796183,156.57142891279832,70.81352870522063,116.0516706237318,136.26668934400746,228.2895979725887,204.4902103979664
3.670337003670337,269.9233603383896,238.7574476842764,156.0446115519731,68.64166497969313,115.26870314366872,135.15423445111625,228.31447420976545,205.8507957328189
3.703703703703704,280.4880381996858,217.64650866628705,155.83621027337028,65.73820651599763,114.65963308720072,134.0592479235544,228.1880575110226,207.2871005659552
3.737070403737071,291.8970230909049,193.5261102986696,151.19357790416765,62.630368006184966,114.26746512130498,133.03334284900603,227.88725548386384,208.74577693417064
3.770437103770437,291.3854779215342,177.38693281900106,146.0093150193699,59.96531211586265,114.05215799885023,132.08224354240338,227.56325496906183,210.2391322400001
3.803803803803804,287.80793596069026,160.75019875444363,141.2923295961279,57.91317543353954,113.90676096095294,131.2521927332873,227.33317168437293,211.7666169810652
3.8371705038371706,281.3247756454424,144.15380863489852,136.65961533734128,56.61291838515119,113.84435717558866,130.33070481801678,227.1979376864596,213.29354858568715
3.8705372038705375,280.8828509240864,126.88416949968556,132.2668703736894,54.7434327752473,113.94461308163362,129.36063458846033,226.93790008804845,214.8904201518532
3.903903903903904,287.32545501730897,110.54032347905668,128.3503658342612,54.559533229553,114.17868467116044,128.29860546253164,226.47854428838968,216.54211714291924
