Time,Left Shoulder Angle,Right Shoulder Angle,Left Elbow Angle,Right Elbow Angle,Left Hip Angle,Right Hip Angle,Left Knee Angle,Right Knee Angle
0.0,5.429983762368924,5.121141476181326,192.3636296211044,172.854615656365,164.21192787830117,214.7875558893105,180.8518663400301,173.71692669883802
0.0333667000333667,6.236869827606039,4.926245456540763,192.948351482873,171.56960728128132,163.85222416753604,214.32890704928792,180.95172571716145,173.02534868045848
0.0667334000667334,6.928344712248391,4.73521996461364,193.48416978630488,170.47131030121972,163.54410621188993,213.9221305502628,181.03838718712592,172.40246317150996
0.1001001001001001,7.510301931089179,4.550155290539701,193.9731049581832,169.54902066013076,163.28553452613284,213.56438087440432,181.1123143068138,171.84619308997648
0.1334668001334668,7.988634998921599,4.373141724458692,194.41717742529127,168.79203430196517,163.07446962503474,213.25281250388176,181.1739706331152,171.35446135384208
0.1668335001668335,8.369237430538849,4.206269556510359,194.8184076144124,168.18964717067345,162.90887202336566,212.98457992086432,181.22381972292013,170.9251908810908
0.2002002002002002,8.658002740734128,4.051629076834448,195.1788159523296,167.73115521020634,162.7867022358956,212.7568376075212,181.2623251331188,170.5563045897067
0.2335669002335669,8.86082444430063,3.911310575570705,195.5004228658264,167.40585436451437,162.70592077739457,212.5667400460215,181.2899504206013,170.2457253976738
0.2669336002669336,8.983596056031555,3.787404342858874,195.785248781686,167.20304057754822,162.66448816263252,212.4114417185345,181.30715914225783,169.99137622297613
0.3003003003003003,9.0322110907201,3.682000668838702,196.03531412669147,167.1120097932585,162.66036490637953,212.2880971072295,181.3144148549784,169.79117998359774
0.333667000333667,9.012563063159458,3.597189843649935,196.25263932762624,167.1220579555958,162.69151152340552,212.1938606942756,181.3121811156532,169.6430595975227
0.3670337003670337,8.930545488142835,3.535062157432317,196.4392448112736,167.22248100851078,162.75588852848054,212.125886961842,181.30092148117228,169.544937982735
0.4004004004004004,8.792051880463422,3.497707900325595,196.5971510044166,167.40257489595405,162.85145643637455,212.08133039209795,181.28109950842585,169.4947380572187
0.4337671004337671,8.602975754914416,3.487217362469514,196.72837833383863,167.65163556187622,162.9761757618576,212.0573454672126,181.25317875430392,169.49038273895786
0.4671338004671338,8.369210626289018,3.487217362469514,196.83494722632292,167.9589589502279,163.12800701969965,212.0510866693552,181.21762277569667,169.5297949459365
0.5005005005005005,8.096650009380422,3.487217362469514,196.91887810865285,168.31384100495976,163.30491072467072,212.0597084806949,181.17489512949425,169.61089759613864
0.5338672005338673,7.791187418981827,3.487217362469514,196.98219140761145,168.70557767002236,163.5048473915408,212.08036538340104,181.1254593725868,169.73161360754835
0.5672339005672339,7.458716369886501,3.487217362469514,197.0269075499837,169.12346488936777,163.72577753508116,212.11021185964444,181.06977906186577,169.88986589815104
0.6006006006006006,7.040882288721253,3.487217362469514,196.96570995737324,169.1803581822976,164.02890844024682,211.97130769258976,180.93366274450287,170.30125470652172
0.6339673006339673,6.709137636740596,3.487217362469514,196.4088613740156,169.23929534501744,164.2938188158005,211.887360368461,180.8274394036496,170.63243003659224
0.6673340006673341,6.397427500272476,3.487217362469514,195.97502523708903,169.3740175272066,164.57137485849012,211.86294529843093,180.73169150100145,170.9310584300368
0.7007007007007008,6.05734480727368,3.487217362469514,195.66290338633223,169.47467786098056,164.86322250753307,211.9173918410186,180.64518018546872,171.2011863723237
0.7340674007340674,5.713231044396712,3.487217362469514,195.61682303078416,169.68569746877844,165.16755764196412,211.9667651152212,180.5814411113745,171.45562263244085
0.7674341007674341,5.29604942850037,3.487217362469514,195.90806062108933,170.24446880167767,165.5151394134525,212.08597736218653,180.49202591725,171.68106704040076
0.8008008008008008,4.895764908094954,3.487217362469514,196.40425814784788,170.90473639682202,165.85389362193828,212.2640305387945,180.41251331467905,171.928662598596
0.8341675008341676,4.47631469441918,3.487217362469514,197.1834992021152,171.80266389062973,166.1370144168598,212.505242149716,180.37480161971777,172.17987114960607
0.8675342008675342,4.089048614300848,3.487217362469514,197.94873598271016,172.6899740737726,166.39445389145928,212.7327906187534,180.36618065800604,172.44083558957294
0.9009009009009008,3.8164219522948746,3.487217362469514,199.02955182765035,173.42162056023776,166.62113688986608,212.88100389316705,180.3974485304196,172.7116987376065
0.9342676009342676,3.633719474674713,3.487217362469514,200.03327806733884,174.0116819684631,166.80496360258618,212.8929069164125,180.4521120721124,172.99634778879124
0.9676343009676344,3.633719474674713,3.487217362469514,199.6668362200523,174.32308854359857,166.96335493781442,212.7924299209123,180.50531578479269,173.30849848142287
1.001001001001001,3.633719474674713,3.487217362469514,199.7143988948857,174.5010106264568,167.06587290816282,212.60666555093272,180.57924938987472,173.63394218384593
1.0343677010343677,3.633719474674713,3.487217362469514,199.8744420155853,174.25094483158696,167.06616973198985,212.28431164471868,180.68385010628432,174.00073390467165
1.0677344010677343,3.633719474674713,3.487217362469514,200.4039541160884,173.9866649830266,167.02772059504167,211.93414947692983,180.8168561319108,174.38521602884475
1.1011011011011012,3.633719474674713,3.487217362469514,199.99482248677208,173.89890844534474,166.93741117439615,211.59018936373872,180.9535373444858,174.75760168452953
1.1344678011344678,3.633719474674713,3.487217362469514,199.67943172733573,173.50890245002176,166.82599993597915,211.24430586502325,181.0884413924121,175.1176963633994
1.1678345011678346,3.633719474674713,3.487217362469514,199.82530532821795,173.24251934583054,166.71998256900653,210.8960801609032,181.20557521867767,175.4653227090905
1.2012012012012012,3.633719474674713,3.487217362469514,200.29967213227843,173.16770523160938,166.69778825112442,210.5892407472255,181.26761453390472,175.7886958825561
1.234567901234568,3.633719474674713,3.487217362469514,200.0437997239777,173.67524085401422,166.7147641937841,210.30400328056683,181.3034345916486,176.08100229960138
1.267934601267935,3.633719474674713,3.487217362469514,200.3846001530748,174.13996337055326,166.81204244492244,210.0542607721029,181.3064719023352,176.33305181532128
1.3013013013013013,3.633719474674713,3.487217362469514,202.45594221394484,174.63303726505438,166.92281541163422,209.8163778047141,181.27887336486577,176.5598783826578
1.334668001334668,3.633719474674713,3.487217362469514,204.68439966626465,174.64367485555712,167.05925790563478,209.6081740663024,181.2456198969228,176.6999194845978
1.3680347013680347,3.633719474674713,3.487217362469514,206.46995541846812,175.12478394319615,167.2171802100142,209.46396388602903,181.2068816724364,176.76979484465372
1.4014014014014016,3.633719474674713,3.487217362469514,208.1625129860651,175.333336814619,167.4285290307979,209.3706252371965,181.15540448533503,176.74241122036327
1.4347681014347682,3.633719474674713,3.487217362469514,212.1264157792085,175.07101989017542,167.70682653017917,209.3298175019452,181.0712432320436,176.61602651359604
1.4681348014681348,3.633719474674713,3.487217362469514,215.77048599932485,174.354919489562,168.06642219127198,209.2258288394308,180.91934461703065,176.6416226710344
1.5015015015015016,3.633719474674713,3.487217362469514,216.1155866062325,170.63506406301627,168.45868781749766,209.09208060769492,180.7463304923552,176.7328945780751
1.5348682015348682,3.633719474674713,3.487217362469514,216.6986095154845,166.89982479446724,168.8913108696968,208.9087117342156,180.53699635638708,176.84631581577295
1.5682349015682349,3.633719474674713,3.487217362469514,218.03602062549768,163.32620447714586,169.30220487003186,208.69644649797849,180.3093641076875,176.99372871231606
1.6016016016016017,3.633719474674713,3.487217362469514,220.14942010128084,160.345737608457,169.73876483850296,208.4918506388287,180.07121336186285,177.17919313293083
1.6349683016349683,3.633719474674713,3.487217362469514,223.49278298605924,157.4106948363897,170.21122971250742,208.29677435439245,179.82438024535057,177.38068609730263
1.6683350016683351,3.633719474674713,3.487217362469514,226.25871869274,155.09841248049338,170.7548781032101,208.14787167274764,179.5483631598739,177.53824423547263
1.7017017017017018,3.633719474674713,3.487217362469514,228.41484208989985,153.2746311825574,171.36435340051398,208.0545389267248,179.23878942911378,177.63008321743348
1.7350684017350684,3.633719474674713,3.487217362469514,229.94887035766388,152.19477020784777,171.96144066432987,208.01190635852709,178.94803656568615,177.65771340311045
1.7684351017684352,3.633719474674713,3.487217362469514,230.86350371472244,152.15335807739464,172.51680658425454,208.00229696486628,178.6910255673374,177.681000263826
1.8018018018018016,3.633719474674713,3.487217362469514,231.7853196515981,152.75055728557064,173.04214739477015,208.0323820070487,178.45492786312212,177.68066063902194
1.8351685018351689,3.633719474674713,3.487217362469514,232.5767942698416,153.58452824339662,173.5410148594872,208.1110508775752,178.22171451219384,177.64799804376972
1.8685352018685355,3.633719474674713,3.487217362469514,233.14969468520536,155.11345365155697,174.0113942974818,208.20119585270976,177.999837140835,177.5966036150744
1.901901901901902,3.633719474674713,3.487217362469514,233.2921114726849,157.26130703017347,174.45390173052942,208.3111559900845,177.79254553890817,177.52342988412934
1.9352686019352687,3.633719474674713,3.487217362469514,232.76751274253,159.37028903672248,174.81221672980004,208.36684864903847,177.6380763446316,177.47017174554472
1.968635301968636,3.633719474674713,3.487217362469514,231.63413927473547,161.53908432819463,175.11052751663837,208.42008455772043,177.5283109762739,177.40996494117917
2.002002002002002,3.633719474674713,3.487217362469514,229.78334354571484,163.6957447514754,175.39577382451793,208.4219070432952,177.42767514852105,177.36436191181835
2.035368702035369,3.633719474674713,3.487217362469514,227.40457759300784,165.74308605311538,175.66242159436774,208.40325151665365,177.34099597229147,177.33352413050793
2.0687354020687354,3.633719474674713,3.487217362469514,224.0181489680904,168.02403983116383,175.9070164785196,208.3584828889697,177.24800095150428,177.30803518404687
2.1021021021021022,3.633719474674713,3.487217362469514,219.89867224370417,170.1640356009083,176.1179527899526,208.2896734942378,177.1399960161409,177.28554182545452
2.135468802135469,3.633719474674713,3.487217362469514,216.5490326945335,174.933413143438,176.2712387756955,208.19352291731823,177.03785653241198,177.26627407478733
2.1688355021688355,3.633719474674713,3.487217362469514,212.6689456738409,179.12240924560734,176.35996728401247,208.0863932495023,176.9436548353795,177.2511035487179
2.2022022022022023,3.633719474674713,3.487217362469514,208.41881240179453,181.2488444833625,176.47059814239185,208.01080538237184,176.8155088842682,177.19747661045014
2.235568902235569,3.633719474674713,3.487217362469514,202.06173687668132,190.11012618652035,176.56971713724965,207.9948107604769,176.66310045660592,177.1047431613539
2.2689356022689355,3.633719474674713,3.487217362469514,197.23582455038868,196.9941560436064,176.69176404861437,207.97381646671545,176.5086972065627,177.00005528833424
2.3023023023023024,3.633719474674713,3.487217362469514,196.3649144064252,202.5089895015504,176.81251660480476,207.94511406589552,176.37408485586252,176.8964284604358
2.335669002335669,3.633719474674713,3.487217362469514,192.30054640579667,206.42273354861305,176.89691740121043,207.91378231108536,176.255481834734,176.796852118403
2.369035702369036,3.633719474674713,3.487217362469514,188.27682767445813,208.3801904938742,176.9634612836939,207.85919686344783,176.15371043152,176.69655265212785
2.4024024024024024,3.633719474674713,3.487217362469514,185.92581780723785,208.32474087242915,177.00866213686066,207.7861318328221,176.05759713648342,176.59706648212466
2.4357691024357693,3.633719474674713,3.487217362469514,184.97179528941453,207.0259131928804,177.05100476176153,207.68076668219595,176.01031860133517,176.46272043477452
2.469135802469136,3.633719474674713,3.487217362469514,182.08619386895867,203.1440216147589,177.09284217378615,207.5525349929364,175.98991834352253,176.3109821934042
2.5025025025025025,3.633719474674713,3.487217362469514,180.1234059543851,197.6059556260361,177.10503035932237,207.38916124819707,175.96237148658645,176.1563970763419
2.5358692025358693,3.633719474674713,3.487217362469514,179.06272066019113,189.56838616619385,177.12168713549164,207.174185110855,175.89893422171335,176.01842414839385
2.569235902569236,3.633719474674713,3.487217362469514,181.5086794936888,179.8191142560275,177.11320485834003,206.9262786322849,175.8047870895804,175.90561189551454
2.6026026026026026,3.633719474674713,3.487217362469514,181.28331221477683,169.77900465193164,177.07442811373244,206.64305229962,175.70086986257098,175.82351713790314
2.6359693026359694,3.633719474674713,3.487217362469514,180.6053715338,154.30169173516643,177.00222332593898,206.3305709462604,175.6015867894976,175.78503245987912
2.669336002669336,3.633719474674713,3.487217362469514,182.968032605158,141.35984974244008,176.92163285769016,206.008058458216,175.47832362183578,175.77058400176833
2.702702702702702,3.633719474674713,3.487217362469514,185.8584351123684,128.81823607456303,176.8471157670404,205.68358907135536,175.35406796437712,175.78462040664243
2.736069402736069,3.633719474674713,3.487217362469514,188.38184400356184,117.19424844172411,176.8145266599617,205.34832942584003,175.21153910126256,175.80438698703884
2.7694361027694363,3.633719474674713,3.487217362469514,190.21229104855595,106.21752472334792,176.78214273508465,205.00842392282263,175.05635776868996,175.8558030530078
2.802802802802803,3.633719474674713,3.487217362469514,190.16947326319183,96.41833892364346,176.74100981101006,204.68310849842192,174.8853035694483,175.9248975992737
2.836169502836169,3.633719474674713,3.487217362469514,189.64793971772136,87.31608529781016,176.69771891298527,204.37738026338096,174.70126060909976,176.02103331354678
2.8695362028695364,3.633719474674713,3.487217362469514,188.79010469454093,79.30153512238378,176.6497938866117,204.0873357826152,174.49008740374023,176.13689465357447
2.902902902902903,3.633719474674713,3.487217362469514,187.759065460166,71.9888933433038,176.61962136214916,203.81224513778045,174.25247350028343,176.2683687281864
2.9362696029362696,3.633719474674713,3.487217362469514,186.523793221334,65.1818670673046,176.61039904838293,203.53781162828983,173.97166405267706,176.39970339593762
2.9696363029696364,3.633719474674713,3.487217362469514,185.18050297007727,59.93501559463494,176.62383238281149,203.29849985457952,173.65639974846027,176.5105739998144
3.003003003003004,3.633719474674713,3.487217362469514,184.06807363375933,56.07871596266926,176.6747605948509,203.08879634502915,173.31683129134794,176.60095517543107
3.0363697030363697,3.633719474674713,3.487217362469514,182.6555011263357,52.78740881132292,176.7701960102262,202.92889272766635,172.9497583913035,176.66673409510236
3.0697364030697365,3.633719474674713,3.487217362469514,180.8644801590405,49.95894543039337,176.89310358857202,202.8067800710298,172.56581715649165,176.713473962328
3.103103103103104,3.633719474674713,3.487217362469514,178.6827157820603,49.6640169872613,177.05128282291574,202.76509319441547,172.1686070774432,176.73299527455777
3.1364698031364697,3.633719474674713,3.487217362469514,176.29037569210982,50.78262098508828,177.2352163254754,202.7528739076509,171.75611926862123,176.73168237589758
3.169836503169837,3.633719474674713,3.487217362469514,174.16263875493334,55.03303586064267,177.42832784571462,202.77235774526287,171.33097849558925,176.71326378720906
3.2032032032032034,3.633719474674713,3.487217362469514,171.38129052261652,59.664901729058485,177.60534240665035,202.82395949552475,170.89207493740605,176.6694839159564
3.2365699032365702,3.633719474674713,3.487217362469514,168.1975452674632,64.69765073652647,177.7585285865131,202.8909027455177,170.45742496375098,176.60023981566496
3.2699366032699366,3.633719474674713,3.487217362469514,164.44930377439394,71.3404607050988,177.90121217189983,202.9505206264853,170.0465940082625,176.511462552293
3.3033033033033035,3.633719474674713,3.487217362469514,159.8939583705147,75.78605644999209,178.00949659654125,203.02998525212524,169.64912579981694,176.41029033328013
3.3366700033366703,3.633719474674713,3.487217362469514,155.12206405806063,81.32675583223812,178.09055501954316,203.09600616690955,169.28319651623855,176.2938257380496
3.3700367033700367,3.633719474674713,3.487217362469514,150.27199309137444,90.69226844809884,178.1728794526891,203.1169829037423,168.91236632077167,176.1822984009459
3.4034034034034035,3.633719474674713,3.487217362469514,147.41208122199785,93.5451497696616,178.2275034854188,203.0701620398536,168.60073630692628,176.0709409857748
3.4367701034367704,3.633719474674713,3.487217362469514,145.941923290091,96.55100675243304,178.23799299216907,202.9519860768212,168.3670110940703,175.97932322726038
3.4701368034701368,3.633719474674713,3.487217362469514,140.55481273861537,99.21184356208224,178.22036565190638,202.80214959932644,168.18296019205548,175.88011199216845
3.503503503503504,3.633719474674713,3.50568083400382,137.02454171558367,100.9831569592346,178.25925535219503,202.7869325504797,168.0070868434539,175.76742834179987
3.5368702035368704,3.633719474674713,3.5551886050682584,133.69884759821778,102.52988676931513,178.28430755656015,202.7540554586566,167.87540177981066,175.61683247758742
3.5702369035702373,3.633719474674713,3.5551886050682584,130.39047691330532,104.7020791015792,178.32036129757577,202.65863240763812,167.73143667826525,175.4410483089433
3.603603603603604,3.633719474674713,3.637830965802575,126.78239368866043,105.31625737292376,178.27631538452852,202.5284122544988,167.60097219324797,175.28917609772716
3.6369703036369705,3.633719474674713,3.637830965802575,126.8183385513806,105.17359507001592,178.25803238814282,202.2717498343385,167.41591112667285,175.16936170798263
3.670337003670337,3.633719474674713,3.637830965802575,127.6394362320129,104.0950409087146,178.23001317093195,201.96083421985745,167.27535019064928,175.099341283047
3.703703703703704,3.633719474674713,3.7556982063465294,128.2700348638869,100.4865129628102,178.16709960785616,201.75712428393496,167.2877501467093,175.06250567142934
3.737070403737071,3.633719474674713,3.7556982063465294,127.00601237647372,95.9160255336872,178.00965913972772,201.52433671305505,167.4053623720447,175.004079840023
3.770437103770437,3.633719474674713,3.7556982063465294,122.03214637492344,88.10332804088593,177.97876089245733,201.3266515869488,167.46353554430692,174.87565565254638
3.803803803803804,3.924979266226902,3.7556982063465294,118.31564436873995,84.19990361820948,177.8951577212902,201.15930508659048,167.62663826618842,174.72826527009758
3.8371705038371706,3.924979266226902,3.7556982063465294,117.1912517853744,81.19436314621967,177.81325051223743,201.0048092550297,167.865420875697,174.6444959099775
3.8705372038705375,3.924979266226902,3.7556982063465294,117.1694174235722,78.96156745534712,177.62484997994025,200.83907599184136,168.23382375607144,174.59398933368445
3.903903903903904,3.924979266226902,4.029735256070079,117.57329802494296,70.46659371102373,177.2708878198895,200.64779042496647,168.71592842565343,174.56034867744947
3.937270603937271,3.924979266226902,4.029735256070079,117.79495890255517,64.51874981949878,176.78410496471545,200.4565404166832,169.30726210487288,174.54172134703865
