Time,Left Shoulder Angle,Right Shoulder Angle,Left Elbow Angle,Right Elbow Angle,Left Hip Angle,Right Hip Angle,Left Knee Angle,Right Knee Angle
0.0,18.71289622228071,34.20779001869272,165.52367197209642,153.862908331574,138.559822300712,147.05076308154432,209.41498648294163,199.7303747456876
0.0333667000333667,26.85229371889666,35.33028030924497,164.52366049711748,158.52766724941887,138.84535819718474,145.40306874337307,208.1941463245637,201.7715318111944
0.0667334000667334,32.88043258965995,36.12466716863937,163.84802076621222,162.59467840910992,139.0845524924052,144.10576303532136,207.12678799721203,203.433672547772
0.1001001001001001,37.00249473387754,36.61774218440154,163.46809566507466,166.07311290812362,139.27914038804255,143.13515247723498,206.206151315896,204.74145986806752
0.1334668001334668,39.42366205085644,36.83629694405712,163.35522807939887,168.97214184393644,139.4308570857659,142.46754358895967,205.425476095625,205.71955668472808
0.1668335001668335,40.34911643990359,36.80712303513174,163.48076089487884,171.30093631402485,139.54143778724438,142.0792428903412,204.77800215140832,206.3926259104007
0.2002002002002002,39.984039800326,36.55701204515103,163.8160369972086,173.0686674158653,139.61261769414713,141.9465569012253,204.25696929825529,206.7853304577325
0.2335669002335669,38.53361403143065,36.11275556164063,164.33239927208223,174.28450624693426,139.6461320081433,142.04579214145775,203.85561735117528,206.9223332393705
0.2669336002669336,36.2030210325245,35.50114517212615,165.0011906051937,174.9576239047082,139.64371593090203,142.3532551308843,203.56718612517767,206.82829716796192
0.3003003003003003,33.19744270291457,34.74897246413324,165.79375388223707,175.09719148666355,139.60710466409242,142.84525238935066,203.3849154352717,206.52788515615373
0.333667000333667,29.722060941907777,33.88302902518753,166.68143198890635,174.7123800902768,139.53803340938362,143.49809043670265,203.30204509646683,206.04576011659304
0.3670337003670337,25.98205764881117,32.930106442814655,167.6355678108956,173.81236081302444,139.43823736844476,144.28807579278603,203.3118149237724,205.40658496192688
0.4004004004004004,22.18261472293167,31.91699630454024,168.62750423389883,172.40630475238288,139.309451742945,145.1915149774465,203.4074647321976,204.6350226048024
0.4337671004337671,18.528914063576288,30.87049019788991,169.62858414361008,170.5033830058286,139.15341173455346,146.18471451052986,203.5822343367519,203.75573595786668
0.4671338004671338,15.226137570052035,29.81737971038931,170.61015042572336,168.11276667083808,138.97185254493928,147.24398091188186,203.82936355244465,202.7933879337668
0.5005005005005005,12.479467141665816,28.784456429564063,171.54354596593274,165.2436268448878,138.76650937577156,148.34562070134822,204.1420921942852,201.77264144514984
0.5338672005338673,10.49408467772466,27.798511942939808,172.4001136499322,161.90513462545414,138.5391174287195,149.46594039877476,204.5136600772828,200.71815940466283
0.5672339005672339,9.475172077534928,26.886337838042365,173.15119636341723,158.1064611100152,138.29141190545332,150.58124652400846,204.93730701644844,199.65460472495448
0.6006006006006006,24.05594947166434,27.799353752103027,174.7187607276425,153.9400480857209,137.9442905626959,151.6781466724227,205.2823262227975,198.4270586125644
0.6339673006339673,37.898008321105046,28.1408489982012,172.82307809110927,147.3372125085432,137.44186574771538,152.4956099396758,205.7412275088257,197.41992523894373
0.6673340006673341,50.2859791277157,28.775596834610152,174.06804465888808,139.13598554435413,136.9262234356119,153.09670315126746,206.44567887359744,196.76696190780825
0.7007007007007008,61.13579141825572,28.883189049709248,172.801191234654,130.7249629423192,136.3878362837327,153.68389574553655,207.2709548337447,196.399087594129
0.7340674007340674,71.32126083872409,29.00879715766992,172.22866971706569,123.88684980417476,136.07341953214225,153.87618546485174,208.2921300400697,196.557730754923
0.7674341007674341,80.32440930113472,28.97391957120736,170.65256426521694,117.89682224915504,135.70881993607787,154.03609781333907,209.4466494088776,196.8151655716689
0.8008008008008008,88.91962009525643,28.764901202624245,168.9425688461984,112.65432517444312,135.41949638844628,153.99907949548503,210.48127226780207,197.37378849822056
0.8341675008341676,95.99787948078304,27.393954598600224,169.64473260486554,108.2325390110411,135.10132392717492,153.8205334322588,211.38085779264563,198.05881299534707
0.8675342008675342,102.77663085055411,18.65785536032727,170.06950247927796,98.85481859724815,134.90270451380232,153.47811770644068,211.98343805088533,198.75015994198483
0.9009009009009008,108.28388741685048,20.768404140734813,169.45402073736744,97.63198321553834,134.7788185251768,153.12645224988958,212.4060006283068,199.4707413100608
0.9342676009342676,102.79987080065249,13.642665545720888,166.87863889924188,91.61370332562277,134.90861187808912,152.68195461223786,212.594151196047,200.18509419254764
0.9676343009676344,98.78963032038024,10.092586367601612,164.68941793167005,85.34640748119092,135.12368316004913,152.01911810561035,212.59765640056256,200.79455238424995
1.001001001001001,96.5843698464747,8.746908971520929,162.45753171380173,80.16356381403264,135.30948632001014,151.27314744671153,212.47718489690573,201.36237569519403
1.0343677010343677,96.10085423451656,10.055300592138533,159.6849471149509,75.80596855187176,135.51006438533216,150.12222300937657,212.09667223163007,201.857251095468
1.0677344010677343,96.84927663008231,12.852107180327764,156.32920324644726,73.8994637708737,135.77953167847363,148.97084588814025,211.49475047125992,202.1707849494568
1.1011011011011012,98.9457509485168,17.68339658267991,152.73786120503166,73.04016603959028,135.99488351459792,147.76239835735447,210.74049939067945,202.28015827856552
1.1344678011344678,101.95994008287124,24.333034552087486,149.04260499214087,73.22716081970492,136.2723918966347,146.54746568245218,209.6460665241517,202.2335490750665
1.1678345011678346,106.40384179781005,32.9832092596411,145.6983054249691,72.60551737986941,136.31283967310674,145.65042798515836,208.1630280730544,201.90152286868692
1.2012012012012012,111.3273533671854,42.75464652451436,142.73557054825454,73.4841552168661,136.39902118964025,144.83338280752096,206.4124690715068,201.28699638192649
1.234567901234568,116.49712565605384,61.709384364062416,140.86518337238155,77.49274207290617,136.6411259757978,144.0882654426837,204.37407694754444,200.5345074672406
1.267934601267935,130.25760501781664,78.80067454476668,139.12123930914245,84.86702184511232,137.03455084272247,143.33824628500918,201.8985961369717,199.44854445952336
1.3013013013013013,141.31602401198288,94.62017124005912,135.96568003315934,93.2997572622272,137.28161149390934,142.69199882327928,199.5165873478503,198.190369948454
1.334668001334668,149.31403343676243,108.37601999281571,131.51762490661673,101.0166553177622,137.38623837945022,142.39444274504868,197.12220076461304,196.83160733954315
1.3680347013680347,154.07347590561227,126.10494932205026,128.03242189423727,107.417239496825,137.81158116733008,142.33805538081933,194.30772989099725,194.6456854226904
1.4014014014014016,158.62546713894244,143.2006025776031,124.29358683590056,113.3924384952828,138.285142208804,142.40200045133312,191.4944887800961,192.3979034928907
1.4347681014347682,162.93065863044916,159.26916696706166,120.27806433490665,118.74158089820337,138.80794414326186,142.5851444069971,188.7245583711423,190.1339988742234
1.4681348014681348,166.94970187382953,173.91682969801371,115.962798994557,123.26399529065532,139.38100961009468,142.8863536982195,186.04001960337035,187.89970889076943
1.5015015015015016,170.6432483627807,186.74977797804732,111.32473541815318,126.75901025770752,140.00536124869353,143.3044947754084,183.48295341601457,185.7407708666097
1.5348682015348682,173.97194959099983,197.3741990147504,106.34081820899664,129.02595438442853,140.68202169844938,143.83843408897206,181.09544074830947,183.70292212582515
1.5682349015682349,176.89645705218402,205.39628001571083,100.98799197038888,129.86415625588714,141.41201359875328,144.4870380893186,178.91956253948945,181.8318999924966
1.6016016016016017,179.3774222400304,210.4222081885165,95.24320130563144,129.0729444571522,142.19635958899622,145.2491732268562,176.99739972878888,180.173441790705
1.6349683016349683,181.3754966482361,212.05817074075543,89.08339081802579,126.45164757329216,143.0360823085692,146.12370595199303,175.37103325544223,178.7732848445313
1.6683350016683351,182.85133177049832,209.91035488001543,82.48550511087343,121.79959418937597,143.93220439686328,147.10950271513727,174.08254405868396,177.67716647805645
1.7017017017017018,183.7655791005141,203.58494781388464,75.42648878747586,114.91611289047222,144.8857484932695,148.20542996669707,173.1740130777484,176.93082401536122
1.7350684017350684,184.0788901319807,192.68813674995067,67.8832864511346,105.6005322616497,145.8977372371788,149.41035415708063,172.68752125187007,176.57999478052665
1.7684351017684352,183.7519163585952,176.82610889580175,59.83284270515114,93.65218088797712,146.96919326798223,150.7231417366961,172.6651495202833,176.67041609763362
1.8018018018018016,182.74530927405465,155.60505145902556,51.25210215282698,78.87038735452312,148.10113922507082,152.14265915595166,173.14897882222257,177.247825290763
1.8351685018351689,181.01972037205627,128.63115164721023,42.11800939746362,61.05448024635638,149.2945977478356,153.6677728652555,174.1810900969223,178.35795968399572
1.8685352018685355,178.5358011462972,95.5105966679435,32.407509042362534,40.00378814854574,150.55059147566757,155.29734931501574,175.80356428361688,180.04655660141273
1.901901901901902,175.2542030904745,55.84957372881351,22.097545690825285,15.517639646159864,151.87014304795775,157.0302549556406,178.05848232154077,182.35935336709483
