Time,Left Shoulder Angle,Right Shoulder Angle,Left Elbow Angle,Right Elbow Angle,Left Hip Angle,Right Hip Angle,Left Knee Angle,Right Knee Angle
0.0,73.98896326766636,40.39578673959324,105.71937409583336,155.70421375255623,123.6463792250516,131.0995347931751,217.329694439072,213.3845887824384
0.0333667000333667,43.54100793146797,36.13667669585449,115.87876380248936,159.88744453651995,126.39101151170476,132.5954955155111,214.0059630946418,212.6242310703309
0.0667334000667334,19.58429351609759,32.49150611573871,125.00031237291066,162.58613384362044,128.76194903328778,134.057654523605,211.2442572693648,211.7723405090552
0.1001001001001001,1.6614341137279922,29.42342011652173,133.13335939329994,163.91600145143883,130.78224686026266,135.4835240208871,209.0079397234057,210.8424017235845
0.1334668001334668,-10.684956183468046,26.89556381547937,140.32724444985973,163.99276713755634,132.47496006309137,136.87061621078757,207.26037321692968,209.84789933889203
0.1668335001668335,-17.912263283317714,24.87108232988749,146.63130712879274,162.93215067955416,133.8631437122359,138.21644329673657,205.96492051010148,208.80231797995123
0.2002002002002002,-20.47787309364824,23.3131207770219,152.09488701630147,160.84987185501348,134.96985287815826,139.51851748216436,205.08494436308607,207.7191422717354
0.2335669002335669,-18.839171522286804,22.18482427415844,156.7673236985886,157.86165044151548,135.8181426313204,140.77435097050108,204.5838075360483,206.6118568392178
0.2669336002669336,-13.453544477060674,21.449337938572945,160.6979567618567,154.08320621664134,136.43106804218434,141.9814559651769,204.4248727891531,205.49394630737177
0.3003003003003003,-4.778377865797026,21.06980688754124,163.93612579230836,149.63025895797227,136.83168418121204,143.13734466962217,204.57150288256543,204.3788953011706
0.333667000333667,6.728942403676939,21.00937623833917,166.53117037614618,144.61852844308945,137.0430461188655,144.23952928726695,204.9870605764501,203.2801884455876
0.3670337003670337,20.61103042353396,21.231191108242555,168.53243009957282,139.16373444957406,137.08820892560675,145.28552202154145,205.6349086309721,202.2113103655961
0.4004004004004004,36.41050028594685,21.69839661452724,169.98924454879085,133.3815967550073,136.9902276718977,146.27283507587595,206.4784098062964,201.1857456861694
0.4337671004337671,53.66996608308845,22.37413787446905,170.95095331000286,127.3878351369704,136.7721574282004,147.19898065370054,207.4809268625877,200.21697903228085
0.4671338004671338,71.93204190713139,23.22156000534381,171.4668959694115,121.29816937304446,136.4570532649768,148.0614709584455,208.60582256001103,199.31849502890373
0.5005005005005005,90.73934185024862,24.20380812442737,171.5864121132193,115.22831924081072,136.0679702526889,148.85781819354102,209.81645965873133,198.50377830101127
0.5338672005338673,109.63448000461293,25.28402734899555,171.3588413276289,109.29400451785038,135.62796346179869,149.58553456241725,211.07620091891343,197.78631347357697
0.5672339005672339,128.1600704623985,26.425362796324453,170.83352319884418,103.61094498174548,135.16008796276918,150.2421322685056,212.3484091007241,197.17958517157555
0.6006006006006006,137.98042445732574,25.94542426130984,172.42096024889247,99.6599000125644,134.7228452607467,150.51527154510123,213.3707539412815,197.3525260540061
0.6339673006339673,146.46185704416058,24.744908915135348,174.85352406098212,99.51435559416343,134.36247332112194,150.76727718292403,214.1963453388888,197.71444295391532
0.6673340006673341,144.4524939662958,25.494540934994124,179.7336912118732,100.92574164967348,134.0946114228471,150.8712315402661,214.9013167800377,198.27106783039304
0.7007007007007008,152.1151456528363,17.27978612696294,178.0195059116816,97.4118716211632,134.03364950249755,151.27305964279532,215.48196660259995,198.951617634212
0.7340674007340674,148.43674622176707,13.521600755243986,175.3496516857357,92.48683547138148,134.06997607619306,151.6763256852929,216.0735449802996,199.76544557722988
0.7674341007674341,145.1947280544249,12.676554617850323,171.31184227054388,88.42894543719189,134.28473895171544,152.01404603862142,216.4573542734864,200.49601278682465
0.8008008008008008,142.80791567276566,13.887881839101937,165.35743526664774,86.02002983837754,134.50674762482203,152.1258643778644,216.83473458268537,201.3914926833465
0.8341675008341676,141.8982259274521,16.967945032158482,160.74698934772294,85.23369586629339,134.97010642051913,152.1694038552434,216.8438783261546,202.0617624081812
0.8675342008675342,142.26465939805215,21.74138275329032,156.5905952056819,86.0531458705776,135.75787212943197,152.07501243772452,216.26799852110813,202.6326321060462
0.9009009009009008,143.12586043332803,27.934091926459526,152.46547772854777,87.99956577207863,136.7421265019727,152.07318714092614,215.22615590913145,202.90064058830225
0.9342676009342676,144.12208901447605,35.36372989492793,148.35194122412275,91.34347148962976,137.81250830862146,152.10728838522184,213.8501348731771,202.8377146141656
0.9676343009676344,144.64103874305752,43.63211395848779,145.15037124907047,96.53550272669364,139.02548048121764,152.14648304322856,212.29659885097487,202.5314206363158
1.001001001001001,144.95561841392723,52.294366855125816,142.64636377607545,104.1497551920777,140.11472093608975,152.2199940796909,210.65966600872645,202.1048854614382
1.0343677010343677,144.6236362061949,61.08526697390777,142.45723654932186,111.34576796542814,141.245960222272,152.60704255935343,208.835563664519,201.3866308323168
1.0677344010677343,143.316954714985,77.89576160792578,143.0558129035443,120.03835919565236,142.2330403803322,153.05407081792805,206.9866435683112,200.3999082970604
1.1011011011011012,150.01742005271475,94.96930741482387,141.84566712279434,126.67217956394512,143.57261524189104,153.39493554947333,205.038690094764,199.0905579437085
1.1344678011344678,154.46090272641746,109.72899856834071,136.79778410466267,126.31031959369706,144.5608519881182,154.09495278472872,203.08929348873409,197.6021431225367
1.1678345011678346,154.88463178760662,122.41647977068706,130.4370681233519,131.8867322398786,145.67851066347615,154.8950008857837,201.0717623386577,195.91339942939285
1.2012012012012012,153.40045807392102,131.1723793053952,124.46826283854746,136.06933095744398,146.89069571382873,155.7678721413606,198.9426259292256,193.9199926066044
1.234567901234568,164.5038724326283,148.45336175936362,118.5639479359722,140.7755454296368,148.06671549051876,156.8155477644232,196.74310659303148,191.1306613921556
1.267934601267935,175.4482636592694,164.62832318461753,112.52889772468596,145.01791568229794,149.18574132543188,157.88518215634988,194.59023963658984,188.24848221790376
1.3013013013013013,185.8149499337518,179.24579273784332,106.4152742619066,148.68658613999455,150.23363846556907,158.96154533036906,192.5124816149033,185.318304880666
1.334668001334668,195.18524943598487,191.85429957572848,100.27523960485348,151.671701227295,151.19627215793253,160.0294072997103,190.5382890829764,182.38497917726085
1.3680347013680347,203.14048034587773,202.00237285496087,94.1609558107458,153.86340536876742,152.0595076495244,161.07353807760313,188.6961185958133,179.49335490450687
1.4014014014014016,209.26196084333947,209.238541732228,88.12458493680296,155.15184298898006,152.8092101873468,162.0787076772772,187.01442670841865,176.68828185922263
1.4347681014347682,213.13100910827933,213.11133536421755,82.21828904024417,155.42715851250122,153.43124501840194,163.029686111962,185.52166997579667,174.0146098382268
1.4681348014681348,214.32894332060687,213.1692829076169,76.49423017828872,154.57949636389918,153.91147738969195,163.91124339488718,184.24630495295185,171.51718863833798
1.5015015015015016,212.43708166023097,208.96091351911392,71.00457040815587,152.4990009677421,154.235772548219,164.70814953928223,183.21678819488864,169.2408680563747
1.5348682015348682,207.03674230706127,200.03475635539613,65.80147178706497,149.0758167485983,154.38999574098523,165.40517455837676,182.46157625661127,167.2304978891556
1.5682349015682349,197.70924344100663,185.9393405731514,60.93709637223526,144.20008813103595,154.36001221499282,165.98708846540032,182.0091256931244,165.5309279334993
1.6016016016016017,184.03590324197668,166.22319532906715,56.46360622088602,137.76195953962335,154.13168721724392,166.4386612735825,181.88789305943232,164.18700798622436
1.6349683016349683,165.59803988988006,140.4348497798306,52.433163390236615,129.65157539892886,153.69088599474068,166.74466299615287,182.12633491053936,163.24358784414937
1.6683350016683351,141.97697156462664,108.12283308212992,48.89792993750618,119.7590801335205,153.02347379448526,166.88986364634098,182.75290780145,162.74551730409297
1.7017017017017018,112.7540164461252,68.83567439265282,45.9100679199141,107.97461816796664,152.11531586347982,166.85903323737642,183.79606828716865,162.73764616287372
1.7350684017350684,77.51049271428502,22.121902868086693,43.521739394679656,94.18833392683553,150.9522774487265,166.63694178248872,185.28427292269967,163.2648242173102
1.7684351017684352,35.82771854901597,-32.469952334881086,41.785106419022085,78.29037183469539,149.52022379722752,166.2083592949075,187.2459782630475,164.3719012642211
