Time,Left Shoulder Angle,Right Shoulder Angle,Left Elbow Angle,Right Elbow Angle,Left Hip Angle,Right Hip Angle,Left Knee Angle,Right Knee Angle
0.0,25.20703797645142,36.861580662643085,169.12158389809906,174.35178766695483,134.12505123119075,124.8798578974516,198.0621098231701,211.51827288500832
0.0333667000333667,25.410038521691423,36.09934028069458,169.44150103294692,174.32826024880046,133.9227800020446,125.06547431540176,197.8877803694317,211.87512940257352
0.0667334000667334,25.52064521286786,35.44083728748036,169.5755167742314,174.25819752315974,133.76814606606342,125.24354413567347,197.68829087432155,212.18287881805816
0.1001001001001001,25.547969255647185,34.88072813374835,169.54196743919738,174.14497028987503,133.6576974956805,125.4152351241322,197.4671187568854,212.4422333510772
0.1334668001334668,25.50112185569586,34.41366927024645,169.3591893450897,173.99194934878875,133.58798236332922,125.5817150466433,197.2277414361692,212.6539052212453
0.1668335001668335,25.38921421868034,34.0343171477226,169.04551880915324,173.8025054997433,133.55554874144283,125.74415166907217,196.97363633121847,212.81860664817768
0.2002002002002002,25.22135755026709,33.737328216924695,168.6192921486328,173.58000954258102,133.55694470245467,125.9037127572842,196.7082808610793,212.93704985148892
0.2335669002335669,25.00666305612256,33.51735892860067,168.09884568077328,173.32783227714432,133.58871831879807,126.06156607714485,196.43515244479727,213.00994705079412
0.2669336002669336,24.75424194191321,33.36906573349844,167.50251572281954,173.04934450327562,133.64741766290635,126.21887939451943,196.15772850141843,213.0380104657081
0.3003003003003003,24.473205413305507,33.28710508236592,166.8486385920164,172.7479170208173,133.7295908072128,126.37682047527343,195.8794864499884,213.02195231584577
0.333667000333667,24.172664675965898,33.266133425951026,166.15555060560877,172.42692062961171,133.83178582415073,126.5365570852722,195.60390370955287,212.962484820822
0.3670337003670337,23.861730935560846,33.30080721500168,165.44158808084146,172.0897261295013,133.9505507861535,126.69925699038114,195.334457699158,212.86032020025155
0.4004004004004004,23.54951539775681,33.3857829002658,164.7250873349593,171.73970432032837,134.08243376565443,126.86608795646566,195.0746258378493,212.71617067374947
0.4337671004337671,23.24512926822025,33.51571693249131,164.02438468520722,171.3802260019354,134.2239828350868,127.03821774939117,194.82788554467265,212.5307484609306
0.4671338004671338,22.957683752617623,33.68526576242611,163.35781644883005,171.01466197416474,134.37174606688393,127.21681413502306,194.59771423867383,212.3047657814098
0.5005005005005005,22.696290056615386,33.88908584081814,162.7437189430726,170.64638303685877,134.52227153347914,127.40304487922673,194.38758933889872,212.038934854802
0.5338672005338673,22.470059385879992,34.12183361841531,162.20042848517977,170.27875998985988,134.67210730730577,127.5980777478676,194.20098826439303,211.7339679007221
0.5672339005672339,22.288102946078084,34.37816554596582,161.74628139239772,169.91516363301184,134.81780146079828,127.803080506812,194.04138843420407,211.39057713878665
0.6006006006006006,22.29195313734832,34.688242567136776,161.68886601740837,169.65647653611228,134.92661745527317,127.9813800727572,194.003973085788,210.976717802364
0.6339673006339673,22.329550620986208,35.019764432959285,161.73069728844806,169.4836777279623,135.06100434642858,128.2310045368833,193.9412667950692,210.5134082071316
0.6673340006673341,22.447372597827005,35.35000070448008,161.94893631824465,169.30032679125225,135.19407078634887,128.51633714588985,193.8882887216324,209.98986166940028
0.7007007007007008,22.73605273168739,35.68990934899703,162.44841181668662,169.01882851110375,135.3645588250656,128.7971199039061,193.6860877995566,209.41063999255925
0.7340674007340674,23.157992835430893,35.98127169432882,163.16533240136644,168.70790346982113,135.4798522247721,129.10717599219774,193.5372350352723,208.80003772658088
0.7674341007674341,23.742143762080747,36.23324308146929,164.05457231117205,168.34237183716695,135.57880410451023,129.41400025166496,193.2888767742659,208.1643199191708
0.8008008008008008,24.40194940376142,36.44622120387203,165.11307749563926,168.02319039818877,135.61794880901883,129.75474716145058,193.1967568048108,207.504081156848
0.8341675008341676,25.20791938640585,36.75990514186687,166.26552252773968,167.83385643456367,135.61680079687497,130.01076016620206,193.1474017377432,206.8928998050943
0.8675342008675342,26.01486811781271,37.0057855774802,167.5114538293332,167.6462103812835,135.4691894460734,130.2933556106779,193.4322629003524,206.2885704868102
0.9009009009009008,26.80242613979173,37.18161623589689,168.77001596288707,167.47221166312403,135.34214617615655,130.61442770027912,193.91665392163355,205.6620353942231
0.9342676009342676,27.51065795515944,37.23577514121151,169.9796120244749,167.23318180487348,135.17347371412063,130.987181497362,194.57261198859968,205.02556093703143
0.9676343009676344,28.153954810633817,37.23432174869522,171.22795598505763,167.03314737302577,134.72955468860206,131.41241344110878,195.7650252172137,204.38055907546232
1.001001001001001,28.76404224405593,37.1045434074076,172.5873294242774,166.76927427915376,134.1911783055013,131.88892401792907,197.1027703821904,203.7511016371625
1.0343677010343677,29.323799372028475,36.92198875298065,173.99250054221503,166.5314594228373,133.68625091378038,132.3917871404126,198.36983591549725,203.1549958385539
1.0677344010677343,29.83436976284373,36.58373099377901,175.42760015389908,166.2076173454005,133.16217047679154,132.9142238104311,199.6212302131377,202.60527964079623
1.1011011011011012,30.302296807046154,36.15627113840314,176.76839457150615,165.935027142621,132.6095449424336,133.44623275346498,200.8475917089648,202.0859808124505
1.1344678011344678,30.72925378914534,35.57094604217949,178.29135670245466,165.5634028149034,132.0308769921998,134.0287564425471,202.0217052594748,201.5632952471688
1.1678345011678346,31.166001492625963,34.98227203574482,179.9405612752646,165.2845486927324,131.44748828387142,134.6099181092817,203.16842313432463,201.0779244317485
1.2012012012012012,31.5413988199808,34.22776411173818,181.6881003391548,164.8971945797415,130.88145186888835,135.2246240201406,204.261255158406,200.61251635890144
1.234567901234568,31.883474843858245,33.4301580523038,183.1660595890519,164.35948744253977,130.33778443997525,135.84749814265984,205.2904458049969,200.1940699364772
1.267934601267935,31.999551354137097,32.42375788361328,184.32343568736644,163.54238563825413,129.78781043441714,136.47443858763828,206.2600293515127,199.82576210473064
1.3013013013013013,31.966932010908195,31.158433880715894,185.16928550913528,162.68490034861344,129.2647409824169,137.0820961833883,207.1131173113011,199.52690517947684
1.334668001334668,31.847855502582,29.679452519205444,185.9301686372084,161.69149130179295,128.7729676697872,137.6684201851388,207.8339666535117,199.2970132355636
1.3680347013680347,32.09645717535113,27.877092668037488,187.04174050262884,160.64107425534206,128.3987065903612,138.23340732468094,208.36236342718263,199.14182465813536
1.4014014014014016,32.07471566682527,26.034584886027908,186.9169858575277,159.43116450541808,128.1205145135597,138.77032381980646,208.716171204654,199.02443851431863
1.4347681014347682,31.374733073134543,23.913621951630045,186.73849820172344,158.20169392196382,127.9092961832215,139.25694704651667,208.9592657249904,198.95565269824417
1.4681348014681348,30.4461348774721,21.87925222645152,186.9768846453721,156.69371002598453,127.6570424228955,139.73233708939597,209.19598783939983,198.8703085220324
1.5015015015015016,29.076092008561947,20.19584906789407,187.16475648474147,156.20119336313644,127.34803115418984,140.18330420306347,209.4014540548436,198.77851552026604
1.5348682015348682,27.650738664889307,18.77095503403244,189.4727053584246,155.4776945696404,127.00342778855595,140.69085692294703,209.5279724633104,198.6387602906341
1.5682349015682349,25.906226499690263,17.487497938131156,190.7442507596644,154.5635207907091,126.57636555397232,141.20016988550398,209.5721602583915,198.47338082831791
1.6016016016016017,24.407835397823,16.280507161973404,191.61632657094685,153.15707383442785,126.09988577744777,141.6747628229145,209.627697373457,198.2899899956009
1.6349683016349683,22.943480771843145,14.858244748184523,192.571417101903,151.68876899861846,125.66363117128672,142.11645430217092,209.6328554359492,198.12184116529863
1.6683350016683351,21.71841071868356,13.496137965594718,193.2458404632428,149.60780608095106,125.26342075466908,142.53374174860937,209.5629856468245,197.9359460973008
1.7017017017017018,20.64898847008172,12.08641691530972,193.58572002693617,147.03007371112798,124.84577885653914,142.89667909957657,209.41783450378705,197.7433102771101
1.7350684017350684,19.77002238024793,10.881463103869288,193.3934003604131,143.93892175989157,124.44788150419652,143.25872427938623,209.1595170599345,197.49970321899195
1.7684351017684352,18.575804319116983,9.590186078062423,193.0052138958449,141.3076504485388,124.00666180867094,143.8590586803833,208.7631519194266,197.25974908889
1.8018018018018016,17.790579322590027,8.761305703425709,192.0215245643544,137.85664326748272,123.62844994426966,144.21911981657112,208.33178711543755,197.03609557541893
1.8351685018351689,17.71510518425876,7.59462147085774,190.5053429684907,132.39327227952572,123.33241386017411,144.359865323522,207.8530004206516,196.8090038617568
1.8685352018685355,17.90783527468023,6.826729987177462,188.4159827655916,126.79168227565278,123.04403044906876,144.3821623612327,207.55461842091927,196.58500691839788
1.901901901901902,9.05389393660074,6.702274356057066,185.6621907886752,121.63606261337006,122.80051172438934,144.3964782309913,207.3159751016424,196.3822956857784
1.9352686019352687,3.3798250751481804,7.099734411689725,183.3603403445729,116.17795366161894,122.5579629767628,144.4363512127393,207.3883606939691,196.219901654438
1.968635301968636,0.5618165224319132,7.862833394035869,180.5105542224654,111.04135221393068,122.42713137358332,144.36546181308944,207.6100919909068,196.02707121202428
2.002002002002002,0.3586959503117501,8.928412579567548,177.46370779728738,106.145064801554,122.29297148041702,144.3150368639997,208.16914915436504,195.780840076756
2.035368702035369,2.682732621265962,10.372919129166808,174.35552827357205,100.9672650715459,122.24721249312712,144.21222449840394,208.8032458936869,195.52479026126144
2.0687354020687354,2.682732621265962,12.15133829783428,171.16671990564197,96.00138450814885,122.07993193199351,144.0604389673208,209.6216018087707,195.31073890535745
2.1021021021021022,2.682732621265962,14.15969325013742,168.2718143736578,91.0805345740318,121.783123497805,143.85229202797885,210.6684770769189,195.1537134023988
2.135468802135469,2.682732621265962,16.375663711012912,165.57485312637905,86.41142956406723,121.63144610419889,143.59368740386608,211.4545456617149,195.0593086935737
2.1688355021688355,2.682732621265962,18.919369095335625,163.06236812330062,82.25216132530228,121.59333446033186,143.26075855889832,212.05060493863363,195.02488728159489
2.2022022022022023,2.682732621265962,21.64569037188274,160.70837564480553,78.54319675176484,121.55196292011236,142.88602929301706,212.63137247384896,195.03160745358988
2.235568902235569,2.682732621265962,24.509406417909776,158.37961297632717,75.37755740894579,121.54725039650052,142.4769163924743,213.113708107674,195.05835502872208
2.2689356022689355,2.682732621265962,18.805926455244844,156.27481456594285,72.62383689906059,121.5618004222117,142.04649130934587,213.56261621463028,195.14046363239663
2.3023023023023024,2.682732621265962,24.631566960850023,154.48904437595846,70.0280223677425,121.62674477062704,141.5247026506209,213.91983769986075,195.2992074978956
2.335669002335669,2.682732621265962,21.604985395624634,152.8366024612438,67.77929989904189,121.7134257637321,141.03179449778523,214.2172415401204,195.4758639014285
2.369035702369036,2.682732621265962,21.160096003315747,151.1208053783666,66.05242882299272,121.81751579538457,140.58953619544732,214.4845716738796,195.60977832348075
2.4024024024024024,2.682732621265962,22.85368493994488,149.80599406882212,65.07012976980369,121.9405433566787,140.19886303817742,214.7177969019224,195.7253487701649
2.4357691024357693,2.682732621265962,35.24268483870007,148.97291321475126,65.13487495281252,122.1353934722146,139.8698833909181,214.84656135798733,195.8055407403757
2.469135802469136,2.682732621265962,46.91274538266785,148.6213611487185,65.88644028346884,122.34183105105907,139.59034494429136,214.9890040528422,195.88721936308963
2.5025025025025025,2.682732621265962,57.74567326947541,148.5211054993585,67.19612224836477,122.62741751088925,139.35776060490377,215.08218874727547,195.9606758542576
2.5358692025358693,2.682732621265962,67.92965939665757,148.1865469738213,68.92421409711321,122.8102572918376,139.1689467536873,215.30110190763932,196.0366307843614
2.569235902569236,2.682732621265962,77.20563371571977,149.51773391458093,71.27539522009828,122.92810708486324,139.03538038021017,215.58110322386528,196.06824418029964
2.6026026026026026,2.682732621265962,85.96487720681768,151.67197795626032,74.13778250338873,122.89832002996052,138.94819839563823,215.9395022939869,196.10045679365408
2.6359693026359694,2.682732621265962,94.04161860448347,153.79007583391854,77.88118830200315,122.828463041183,138.9564011420865,216.3825848174644,196.13617272137395
2.669336002669336,2.682732621265962,100.96142522472802,156.69174756541435,80.75359262506096,122.61822162043067,139.00274229471157,216.9052298990726,196.2215958231196
2.702702702702702,2.682732621265962,106.6920489834092,157.4319152188523,83.31573388639313,122.2163133674004,139.1227906962497,217.51209227776152,196.2861190788152
2.736069402736069,2.682732621265962,111.34824977917772,158.6724227950231,85.87700494320435,121.72816548990556,139.28962799493698,218.21958290757152,196.3865140005198
2.7694361027694363,2.682732621265962,115.51780941559474,160.26084334399155,92.29588914090468,121.18140932159068,139.58618039941828,218.91227528390328,196.43569736494595
2.802802802802803,2.682732621265962,118.59800452919688,161.87882779354172,97.062460042479,120.52903876826625,139.86702335592597,219.61847760513749,196.52574300454515
2.836169502836169,2.682732621265962,120.88651564486644,162.81517924572992,100.4276058825444,119.81577191369584,140.21225579690284,220.34769342449505,196.54604311006665
2.8695362028695364,2.682732621265962,122.2156713512429,163.318404195824,103.62288386402514,119.08228280744724,140.55439279787498,221.09811335522767,196.668779244604
2.902902902902903,2.682732621265962,122.93110897425905,163.6326799392651,104.4854958897918,118.22342883297614,140.91898534055832,221.6184871000016,196.8548215964917
2.9362696029362696,2.682732621265962,122.81623179069344,163.43962947870406,103.02590894117604,117.41977462395276,140.84557884991526,222.29422226035652,197.1134309742966
2.9696363029696364,2.682732621265962,121.41872806375687,161.4582073057277,99.83748273996903,116.53026325282572,140.75133553976934,223.26583167880497,197.33681295129333
3.003003003003004,7.509356679246077,119.55509137868628,159.8471655356975,97.86893743102414,115.61245855667242,140.63012264820733,224.30744090361023,197.7115277085329
3.0363697030363697,14.43596085349219,116.83561681845444,159.27598925363068,95.9466058632253,114.54256238659188,140.58248512047234,225.53719820441145,198.06327179163435
3.0697364030697365,23.30665489925545,112.89946159429996,159.45798950652926,93.843798733639,113.57034605090456,140.3571542538021,226.6409679951932,198.5533877685156
3.103103103103104,33.97309263659207,108.1092670414041,159.4131735194091,92.54264623769905,112.69085361801754,140.0015660798514,227.81921375062907,199.1798849968384
3.1364698031364697,46.20018882993432,102.26392672367407,159.71711121390467,91.18583805791717,111.85618416822848,139.47679749048044,228.8581697823302,200.1086881633138
3.169836503169837,59.87704064862039,94.97038850740452,160.5248029580758,89.65459517563964,110.77607338385826,138.72406822018127,230.1170701484677,201.3678729771812
3.2032032032032034,74.78053631395922,86.71834029364122,161.41299915421413,88.59085353722486,109.79777671371016,137.80519056411487,231.15846203004816,202.8337665220367
3.2365699032365702,90.61461293767702,77.36016203344056,162.60388068586445,87.50784766907994,109.2164570552895,136.92110787032294,231.52955671371976,204.47194759089567
3.2699366032699366,107.12535603655884,67.37739033617245,163.76088261536285,86.88560198881873,108.97241630142985,136.03156853922695,231.6169443439111,206.21828684348125
3.3033033033033035,124.17767424906184,56.28849119148644,164.7660616976481,85.98151640484863,108.19631492778863,135.11505541556673,232.2819370888527,208.1136018113688
3.3366700033366703,141.4844470529878,44.64667901628905,165.7804221281609,85.39420505039637,107.60561287505848,134.13376113014257,232.63456626584252,210.0430124758938
3.3700367033700367,158.78808836877417,32.3224893719563,166.97434137872227,84.3776429110783,107.51351173422478,133.23129206825888,232.5902590022416,211.9891318253883
3.4034034034034035,175.89297299759238,19.761420223690013,168.51935175655638,83.95867877678376,107.73523721943567,132.24350334862694,232.2192286747976,213.8930137262175
3.4367701034367704,192.66452767991848,18.70790480820358,170.59119952897714,84.36369631956235,108.44560708027622,130.77768801622426,231.37669817998847,215.7106620411392
3.4701368034701368,208.2350055002928,8.422588338008831,171.99663110791863,85.49298371712227,109.2710172135843,129.57240923884962,230.097164353369,217.37514348142307
3.503503503503504,222.8728705757397,9.326400020761907,175.2180421543949,87.28390019224183,110.2150472999696,128.51676367570806,228.60334386743395,219.00141060407603
3.5368702035368704,236.8544422886084,13.049376849909391,178.15907901096236,92.58821557460956,111.2682517782073,127.43374587576314,226.9652976009547,220.4580343792801
3.5702369035702373,249.73200068278112,21.312433567902684,177.78005747188624,96.97729946783042,112.62737615920948,125.64520498094588,225.66337769815752,221.9180392509761
3.603603603603604,261.8135578778831,20.78309909917898,178.2430969434972,101.12510337974392,113.946510173529,124.1405187697871,224.3410075206266,223.09254871929969
3.6369703036369705,272.5734088057824,19.2507886606365,180.2762248443704,106.10116238194756,115.03900146121332,123.6870381201731,222.43011178645844,223.8798285432676
3.670337003670337,282.3046182646432,18.79709550994344,180.89653530536685,107.75770496022398,116.2528432953716,123.52981800382634,220.43604743537136,224.33270708171327
3.703703703703704,290.28624340302633,18.31779574769852,181.71426369055413,110.23249427637091,118.30374664462144,123.11049955494047,218.46263975972863,224.362721666282
3.737070403737071,306.4330638986095,17.941838641020375,181.5760752649639,113.1177136678419,120.24683710944808,122.76437145528948,216.5746002820651,224.1610116593836
3.770437103770437,318.0587634597074,18.14573281361337,180.65977835844188,115.563017226527,121.83382009455669,122.58900722591076,214.77940242369203,223.70852069512293
3.803803803803804,324.8807024191044,18.30633273810118,179.5899753874835,118.45900663116794,123.07899767412098,122.63583978209044,213.0538640907656,222.9506395030065
3.8371705038371706,327.5480736251812,18.283860842204188,178.36462632893554,122.87257219323908,123.98702632112536,123.06947262506434,211.4270099813194,221.8823819138152
3.8705372038705375,326.0512299816597,18.411972505811537,176.99233828717246,130.275545950825,124.7677359349326,123.8027261681249,209.8653107209564,220.54406130858132
3.903903903903904,320.3900793967356,10.24554635012974,174.95957309989907,133.8785846355731,125.21381781786384,124.61711832542694,208.5014661631304,218.5546177880404
3.937270603937271,309.4977526574106,4.172328094122936,172.4171797193266,133.54093210924742,125.60162883120108,125.48230539708707,207.25596378990164,216.46002582591777
