Time,Left Shoulder Angle,Right Shoulder Angle,Left Elbow Angle,Right Elbow Angle,Left Hip Angle,Right Hip Angle,Left Knee Angle,Right Knee Angle
0.0,31.292329275504127,32.60876730279538,162.88026044770135,165.50848417082162,133.454396171383,133.59381628978736,201.4077810376904,201.58289885884875
0.0333667000333667,31.17329225083133,33.19641742447035,162.54605427270528,166.6090507334802,133.72931030618716,133.98396675574034,201.09243544265,201.49925134398012
0.0667334000667334,31.045030165754604,33.701756287236364,162.216687318307,167.5287803829579,134.00141896833125,134.34761894058948,200.7899843866174,201.40302159663813
0.1001001001001001,30.90941525144272,34.12795888184409,161.89480469086675,168.2762182711366,134.2689702931903,134.68571530152994,200.50062554423,201.29534165941823
0.1334668001334668,30.76831973906444,34.47820019904415,161.58305149674464,168.85990954989816,134.5302124161394,134.99919829575677,200.2245565901252,201.17734357491565
0.1668335001668335,30.623615859788544,34.75565522958721,161.28407284230087,169.28839937112446,134.78339347255354,135.28901038046516,199.96197519894028,201.0501593857259
0.2002002002002002,30.4771758447838,34.96349896422391,161.00051383389558,169.5702328866973,135.0267615978078,135.5560940128502,199.71307904531267,200.9149211344444
0.2335669002335669,30.330871925218982,35.1049063937049,160.73501957788892,169.71395524849862,135.25856492727718,135.80139165010704,199.47806580387973,200.7727608636664
0.2669336002669336,30.186576332262867,35.183052508780825,160.49023518064112,169.72811160841022,135.47705159633676,136.0258457494308,199.25713314927884,200.62481061598743
0.3003003003003003,30.04616129708421,35.20111230020234,160.26880574851228,169.621247118314,135.68046974036156,136.2303987680166,199.05047875614736,200.47220243400287
0.333667000333667,29.911499050851805,35.16226075872008,160.07337638786262,169.40190693009177,135.86706749472663,136.4159931630596,198.85830029912265,200.31606836030812
0.3670337003670337,29.78446182473441,35.0696728750847,159.90659220505228,169.07863619562545,136.03509299480697,136.58357139175487,198.6807954528421,200.15754043749865
0.4004004004004004,29.6669218499008,34.926523640046845,159.77109830644142,168.65998006679686,136.1827943759777,136.7340759112976,198.5181618919431,199.9977507081697
0.4337671004337671,29.56075135751974,34.735988044357164,159.6695397983902,168.15448369548787,136.3084197736138,136.86844917888286,198.37059729106292,199.8378312149169
0.4671338004671338,29.46782257876001,34.501241078766306,159.6045617872588,167.57069223358036,136.41021732309034,136.9876336517058,198.23829932483912,199.67891400033537
0.5005005005005005,29.390007744790385,34.225457734024914,159.5788093794074,166.9171508329562,136.48643515978233,137.09257178696157,198.1214656679089,199.5221311070207
0.5338672005338673,29.329179086779625,33.91181300088364,159.59492768119617,166.20240464549718,136.53532141906484,137.18420604184527,198.02029399490968,199.36861457756825
0.5672339005672339,29.287208835896752,33.56348187009342,159.6555617989865,165.43499882308666,136.55512423631407,137.26347887355317,197.9349819804804,199.219496454575
0.6006006006006006,29.23199064752646,33.12335586664475,159.70118126532802,164.47262970311195,136.47805432426765,137.200487930676,197.89663847639247,199.0973912230648
0.6339673006339673,29.230834021346563,32.70149835048456,159.69485110744714,163.5337740645452,136.35425936990242,137.11237474731905,197.8337411716032,198.9720114214569
0.6673340006673341,29.286576787958783,32.260433253468804,159.80835332039095,162.60838026270295,136.23650139871782,137.06274364866522,197.74623181135115,198.86530682796
0.7007007007007008,29.4631064772276,31.80063677425465,160.04626093974014,161.67495401888198,136.03564925778505,137.01608066530554,197.6808188562821,198.79287868729216
0.7340674007340674,29.693868293670025,31.32982873162621,160.44722468315496,160.7662049968162,135.83005307103917,137.02149723473582,197.61155729913403,198.74594365807764
0.7674341007674341,30.031412030699688,30.887889268569943,161.08804487140952,159.93259495720343,135.6578132167075,137.1035267892762,197.4507897104432,198.7399511378053
0.8008008008008008,30.38524483797656,30.441443430558053,161.8443719923157,159.15442893815876,135.43291259226828,137.23215294662947,197.3585802446337,198.71514581144243
0.8341675008341676,30.836625558878257,30.158230276395468,162.8786762244471,158.65213160592313,135.0667425769604,137.3113730186979,197.40866793031017,198.699201922485
0.8675342008675342,31.33688768086124,29.90054245656972,164.0701159283329,158.2689700639331,134.60902000385897,137.39000574132484,197.55530482863475,198.7020063392883
0.9009009009009008,31.754332756515865,29.950661303935448,164.76851358916835,158.78283589629433,134.26831759265914,137.4935987680685,197.65914746766373,198.637603700592
0.9342676009342676,32.07161361126233,29.9181498956552,165.4909472570532,159.17600835063345,133.97207765555856,137.66779951532678,197.8199335654984,198.53046782053008
0.9676343009676344,32.28381110325429,29.791121977982545,166.22505536737577,159.12828083797285,133.65154789064263,137.90649263703452,198.0719528883588,198.34765372062824
1.001001001001001,32.4429371564426,29.54792152491804,167.38736738679646,158.8623254600803,133.38314954095975,138.21291864504556,198.39344689080923,198.15704349107148
1.0343677010343677,32.58258705281424,29.23143281700479,167.63507206278098,158.9369791067277,133.17586570093283,138.58281934623702,198.7580281683663,197.97411109116385
1.0677344010677343,32.635659815418315,28.70075451094908,167.64961352592576,158.76879630332866,133.00675688672462,139.0429562647352,199.1899198055063,197.7953174544539
1.1011011011011012,32.66174416322988,28.055458805885863,168.69538688707544,158.67376413149418,132.8606166965153,139.5987120064829,199.66245236754563,197.61146355507864
1.1344678011344678,32.55862097526872,27.26450908231707,169.37752554416056,158.32917740492002,132.722719126743,140.2207206148719,200.1997286084952,197.42376015871923
1.1678345011678346,32.48800207957497,26.15876495647592,174.35572448466078,157.92224356069377,132.58271660255113,140.92038859461448,200.80677803375144,197.20482842522165
1.2012012012012012,32.238708888268974,25.150848163924152,178.5223261499735,157.35658017621543,132.41725242612318,141.6642180922829,201.5068342022508,196.97816297554172
1.234567901234568,31.549401489018344,21.6626670686694,183.1154125158307,157.15582736969438,132.25249619344862,142.429724896375,202.28141782446687,196.76204877584155
1.267934601267935,30.61747295658576,18.7484325427183,186.31995515422088,156.3556629426907,132.10861342025945,143.21477096730112,203.11434288822653,196.5637989051355
1.3013013013013013,29.4887938662696,17.030938533097014,186.041602159018,154.10338833681678,131.91314547144313,143.9902299426892,204.02232805248428,196.39370294095235
1.334668001334668,28.094824276089607,15.16700828670487,184.6713190664537,151.67520930303974,131.70328338583462,144.76323456198642,204.96987044349976,196.2454967511253
1.3680347013680347,26.9768437159974,14.53205783257438,182.516481457144,148.17296489003618,131.46254666444426,145.52232888474538,205.9099974636695,196.12135336851696
1.4014014014014016,24.98608392299998,14.459182172548909,182.9644905533907,144.12306499027446,131.20012531454907,146.2664613825205,206.85481650107664,196.02126169956068
1.4347681014347682,23.251535046672007,15.381916623811248,183.76623746656125,141.30023828584845,130.91099106712227,146.99231456440256,207.80850524868663,195.93456669592297
1.4681348014681348,21.533668338078748,16.454248743413075,183.8869784293441,138.17638752943756,130.63645568961542,147.70642895169794,208.7123112644961,195.8691096447636
1.5015015015015016,19.21587085655129,17.06708660234022,186.46052134991743,134.3337118559551,130.37243515420226,148.37855142700548,209.5601660351425,195.8404950498461
1.5348682015348682,16.867328056489796,17.493640163923356,185.69756226419952,129.83294997780683,130.11791109112235,148.98225069851668,210.40284923643924,195.82805002237745
1.5682349015682349,14.21383308283914,9.11558594273948,181.72968227303903,125.51513313499755,129.86620071738758,149.53759562580666,211.2081905711808,195.8159763987252
1.6016016016016017,11.73387663424297,3.8452757624212737,176.89304776444618,121.11629114762594,129.623671902975,150.02451284614332,211.946932144964,195.82583676983128
1.6349683016349683,9.570089512421896,1.26928509586339,171.34566146828402,116.89968157017894,129.40364002648298,150.46243652151676,212.5851883587147,195.8656727069831
1.6683350016683351,8.191634731014572,1.26928509586339,165.94366092344634,113.48291042013258,129.1947607073477,150.79141540682622,213.1689270120124,195.93176019166583
1.7017017017017018,7.61872288325171,1.26928509586339,160.93865003579398,109.36741265557087,128.99363657863333,150.98869298245182,213.69793776284635,196.02753249331585
1.7350684017350684,7.698067007204675,1.26928509586339,156.2991159036419,104.52707967895616,128.81106928707712,151.14747136703787,214.1756055371572,196.14836635345685
1.7684351017684352,8.70027706408286,1.26928509586339,152.087293715705,97.65905623917172,128.66594475632468,151.27351229866008,214.55809429091,196.2867262772104
1.8018018018018016,10.179311607845923,1.26928509586339,148.2160491496992,91.56075712678668,128.5850720224575,151.3669965158425,214.88039987037527,196.4593019636014
1.8351685018351689,13.062034509033513,1.26928509586339,143.14262048887434,86.0771128654471,128.54232050887288,151.40823638330966,215.12948039616452,196.6281564714415
1.8685352018685355,16.067311621458078,1.26928509586339,139.5101702765883,81.47030714489198,128.60709722648704,151.46602305163503,215.3319188532685,196.77002356347407
1.901901901901902,18.32351069485849,1.26928509586339,136.7094233181315,77.97903205017542,128.69808002562078,151.47292751782356,215.53715135866,196.8887912167248
1.9352686019352687,20.19357657256435,1.26928509586339,133.8773501168288,75.3044940499138,128.73768206149424,151.40096108508487,215.8845686915386,196.94220087847043
1.968635301968636,21.491942997905227,1.26928509586339,130.81213015201843,74.19312327964546,128.79679952462172,151.2316549687943,216.25972256930785,196.97321536007377
2.002002002002002,23.440281894757803,1.26928509586339,128.022809729884,73.71384847618624,128.99335959144364,151.1222283098484,216.5736293121809,196.9441156625718
2.035368702035369,25.73740477533536,1.26928509586339,125.58068876285265,73.89779413203894,129.34133572571434,151.08551322713257,216.8442433419009,196.81919789578063
2.0687354020687354,28.724672272915186,1.26928509586339,124.08106114138528,73.52366809524058,129.61214049651804,151.11805706676407,217.24995961560552,196.6898064277389
2.1021021021021022,32.859463445862026,1.26928509586339,122.1832147410814,73.6540464286947,129.861875506582,151.18848793655562,217.69577976545452,196.5364253937012
2.135468802135469,37.19311837154798,1.26928509586339,120.8703255539208,74.26333605362211,130.15229346670387,151.29309708353824,218.1507563222131,196.41765368590583
2.1688355021688355,41.07466386342875,1.26928509586339,119.97587546177394,75.14550312100062,130.41663448193367,151.4387537364478,218.60035948470608,196.308461055544
2.2022022022022023,44.20246058810034,1.26928509586339,121.73262572238453,75.76647859867461,130.60921342276438,151.59806586188037,219.09552780653885,196.1975790680684
2.235568902235569,46.52213185971677,1.26928509586339,125.83747905392563,76.63928318693677,130.74518975158668,151.7646598136163,219.6142477131381,196.0746463257944
2.2689356022689355,48.47532087256941,1.26928509586339,130.0891780372714,77.37883742929908,130.8222722529123,151.91642486732562,220.1925289408048,195.9566474186354
2.3023023023023024,49.699443577162334,1.26928509586339,138.86086087139364,77.52452090274284,130.86044795196898,152.09631710191945,220.802962011805,195.8203077759619
2.335669002335669,50.12593165437276,1.26928509586339,143.97346153666211,77.52674783467208,130.86000087797674,152.24078354392228,221.43090298492623,195.7343390554983
2.369035702369036,49.85051824141606,1.26928509586339,144.80876557425933,77.26885193100082,130.8289211494186,152.41950173050924,222.04558018103856,195.62467644438524
2.4024024024024024,49.16033770818599,1.26928509586339,144.1052236182743,76.16243082372502,130.73465818705412,152.5958373423963,222.65820165275625,195.5310956572583
2.4357691024357693,46.49992095170946,1.26928509586339,145.71172249510786,73.41976789992496,130.59285119471517,152.718370729925,223.28198945352847,195.4445443715597
2.469135802469136,44.06311000212408,1.26928509586339,149.92686475694046,71.2962104171823,130.465688473295,152.81602323124406,223.87557261493043,195.39275157799293
2.5025025025025025,43.01371367237852,1.26928509586339,155.07839622572732,71.00587437135606,130.3735728088605,152.91921246287285,224.42581131706456,195.321922827498
2.5358692025358693,40.82388964814822,1.26928509586339,161.77274598379907,72.29450960514653,130.25865356640597,152.99733619231262,224.9508231951096,195.30740343274
2.569235902569236,39.10595448012509,1.26928509586339,165.0957458137634,74.12619512686257,130.10967706389104,153.09445512765973,225.44933814303468,195.27536052795503
2.6026026026026026,36.65301458575612,1.2032689576786426,166.91960642319532,74.70703852413293,129.94858442521544,153.14925011582815,225.90431491645737,195.3168201834298
2.6359693026359694,30.564862720023665,11.516712570323996,168.24496725701928,75.20325387033361,129.72347296874543,153.18921581110624,226.3298120915848,195.3999883576105
2.669336002669336,26.16347181630552,21.831761314632,165.0976674305573,76.48691927343359,129.4535885190237,153.1543811431144,226.72726142132245,195.594389149063
2.702702702702702,24.32787560990543,30.91449894903952,162.78053545554187,82.99103432847456,129.0915655689358,153.13438906001872,227.11306860245924,195.81781764114507
2.736069402736069,23.04304210909947,39.77576223396107,162.51330495241172,89.36849736246948,128.72929035471253,153.01961323271044,227.4470504426629,196.189348393032
2.7694361027694363,23.017495184704423,40.47358212646564,163.2918780630335,92.31494040353356,128.34486456071926,152.775875626889,227.83323638438577,196.6827014056041
2.802802802802803,23.533636337436484,51.723437894359776,163.33248825321272,93.38426763166132,127.97556597986204,152.41798905883982,228.20069854172164,197.31217247367337
2.836169502836169,24.02123620409045,62.23490593506764,163.4739847439557,93.95162977400878,127.62826487630404,151.96389552623833,228.5860233190988,198.06597269050587
2.8695362028695364,24.350029526839663,72.2739704929262,163.64117151363897,93.90776749766732,127.36380429769773,151.4124624734268,228.8866202405693,198.9530155044428
2.902902902902903,24.60241163078706,81.77986163299363,164.17266150035414,93.61343347021376,127.08217631303656,150.82331215181827,229.09850170571252,199.91317696561333
2.9362696029362696,24.47023470506176,90.59988602107524,164.84172796640496,95.31984405596928,126.88119712181876,150.16195225960996,229.18898638549788,200.9671556464446
2.9696363029696364,23.494536069188324,98.54536241405155,164.28270189264194,95.83646440130656,126.89129903006776,149.46250322174413,229.15310540893452,202.0587609246004
3.003003003003004,21.417090961182463,105.228082776929,164.96826334838093,96.99869080380168,127.01334967603836,148.73626482262873,229.03163465308475,203.2259004590404
3.0363697030363697,18.612693690068298,111.0773306260646,165.01030068936646,98.228929960964,127.21087085447134,147.99810508534802,228.8323143546256,204.52335050606496
3.0697364030697365,16.77086179421202,115.8260979813986,164.27236918388988,99.66998869842692,127.44634694719936,147.24977042139835,228.5329763434908,205.90091639150825
3.103103103103104,16.141685036885235,119.33471306210824,163.95680976557935,100.9399649503617,127.74385219471093,146.65114817284982,228.1614879146572,207.517710288595
3.1364698031364697,17.234841395667413,121.56452739231337,164.30618388078187,101.87658612572535,128.04248919291814,146.03578211686343,227.71976343532685,209.13871680783
3.169836503169837,19.296646838910007,122.65056629702704,165.498675954306,103.42595743579092,127.99795911222893,145.23425498733178,227.3136380894435,210.83358325931923
3.2032032032032034,21.800369295248583,122.49096324371816,166.30117233878656,104.97035080322443,128.03913705409067,144.34353674430963,226.7651991748978,212.46980017125867
3.2365699032365702,24.61348320579648,121.15033882741749,166.9499954480349,105.8949422371647,128.01270046963535,143.24101632040106,226.53935984855497,214.10016544605915
3.2699366032699366,26.18248165058736,118.72667550175348,168.51376462235675,106.6592353139212,128.1064533772418,142.21982863437424,226.0924015097054,215.55359693052372
3.3033033033033035,27.638342332400303,114.43045273565592,169.90011500061138,107.2035717672339,128.18772858714084,141.33431665727318,225.6579848751102,216.9567903446745
3.3366700033366703,28.623079272791827,111.93645756732772,171.82646414911767,107.786394081268,128.44411271934044,140.53286969320368,224.9148084925168,218.12192215904045
3.3700367033700367,29.023729539512107,101.79371170935754,173.656662146812,108.19137568894628,128.73396687026656,139.83661295859486,224.10980994032707,219.13172285511703
3.4034034034034035,29.35603545195397,92.84182691260636,175.2133591344667,108.52410890149828,129.2408675702499,139.23464961932945,222.99461683931423,219.82581455312896
3.4367701034367704,28.94670850476484,85.97124215686661,177.1363118898349,109.24527740609616,129.9918896560804,138.67391290913736,221.5606284145784,220.44135781023368
3.4701368034701368,28.3765914909782,79.72795303677687,175.72548817593338,110.35166904177667,130.8726823788074,138.2404717752055,219.91905995368816,220.70221046816712
3.503503503503504,27.622114570432977,74.32953220328304,172.2310683146471,112.78179979165084,131.80721926046863,137.96482202315673,218.12674720428484,220.5807145199648
3.5368702035368704,26.72095346196168,68.87498971366789,172.13737898476603,115.04099797167844,132.8299773724206,137.80861816514386,216.1823605798218,220.0934653028378
3.5702369035702373,25.26484339433477,64.52008509912523,171.8549002938083,114.7351880371538,133.91440702629924,137.7548648877417,214.13985182752367,219.27228262853995
3.603603603603604,25.41287460176424,60.96594763076908,168.94072006385417,115.74635432314813,134.9944655899149,137.84823923426117,212.03819765397373,218.16545138312853
3.6369703036369705,25.49011614050861,57.43801660095491,165.39969440006985,119.5878779323307,136.14977142854815,138.086609597825,209.831244062764,216.7519788897108
3.670337003670337,23.980550039327984,65.39354782911079,161.75404843099582,123.26456896154151,137.2882610618655,138.40153082482695,207.5721322743777,215.1358403888311
3.703703703703704,22.36452454477205,84.78109606754036,158.33383651695996,130.37209130959025,138.41762948281593,138.81119312660377,205.2962973623921,213.2911555682464
3.737070403737071,20.039195686941284,105.23931745294269,156.07877246995548,137.74620577959496,139.4890070581295,139.29387604724064,203.0447992455537,211.3482256958728
3.770437103770437,16.980639623771165,126.3626937995425,154.42414173353117,144.66471089692428,140.49328124379565,139.86431039122667,200.8773086489838,209.26853621181652
3.803803803803804,8.848582067346605,137.3872571089469,153.4265244274208,151.25470823896345,141.4405752847716,140.52137733572337,198.81942670819944,207.1618694580818
3.8371705038371706,13.638114197244096,146.9864621874519,149.72769197476805,159.62113097921477,142.43839311187227,141.10515118266838,196.7773876519306,204.9066816893072
3.8705372038705375,16.653787861321483,155.10975641407904,146.16707636949047,162.4583056186923,143.3915358733661,141.6119680890249,194.88678428750904,202.71336400319947
3.903903903903904,19.420908796929776,161.33553478347616,142.24412122019814,165.64890320387352,144.22822516889062,142.25264575316294,193.34480218304424,200.3200699906172
3.937270603937271,20.68214637591861,176.06664460553233,137.15286555741733,167.65947754741012,145.02280537318762,142.9781011432027,191.83225482646017,198.0393833682276
