Time,Left Shoulder Angle,Right Shoulder Angle,Left Elbow Angle,Right Elbow Angle,Left Hip Angle,Right Hip Angle,Left Knee Angle,Right Knee Angle
0.0,33.35613455112593,38.03895597349057,162.52402705895017,172.21788806465503,132.37950174532645,124.46864758150627,206.63248587133083,220.02695768906776
0.0333667000333667,31.199783345262063,38.08333082141665,160.57137549140748,171.48891156189558,132.20677927062047,125.11970743650755,207.55592573440848,218.8034221493677
0.0667334000667334,29.3653887346456,38.139119799738765,158.94713900456568,171.00189680975487,132.0656031159169,125.66303435279865,208.32790050290416,217.7717274553844
0.1001001001001001,27.83434582559885,38.20356028702489,157.63252986405246,170.73082703068587,131.9531989298667,126.1076581310349,208.95735243850507,216.91753595098749
0.1334668001334668,26.58804972444412,38.27388966184303,156.60876033549536,170.64968544714165,131.86679236112073,126.46260857187173,209.45322380289812,216.2265099800466
0.1668335001668335,25.607895537503715,38.34734530276116,155.85704268452204,170.7324552815752,131.80360905832993,126.73691547596454,209.82445685777063,215.68431188643137
0.2002002002002002,24.87527837109994,38.421164588347295,155.35858917676006,170.95311975643955,131.76087467014526,126.93960864396873,210.07999386480952,215.27660401401133
0.2335669002335669,24.37159333155511,38.49258489716941,155.09461207783707,171.28566209418776,131.73581484521756,127.07971787653965,210.22877708570192,214.9890487066561
0.2669336002669336,24.07823552519153,38.558843607795495,155.04632365338068,171.7040655172728,131.7256552321978,127.16627297433274,210.2797487821349,214.80730830823532
0.3003003003003003,23.976600058331503,38.617178098793545,155.1949361690185,172.18231324814772,131.72762147973688,127.2083037380034,210.2418512157956,214.71704516261863
0.333667000333667,24.04808203729735,38.66482574873156,155.5216618903781,172.69438850926556,131.73893923648572,127.21483996820702,210.12402664837103,214.7039216136756
0.3670337003670337,24.27407656841136,38.69902393617752,156.00771308308714,173.21427452307933,131.7568341510952,127.19491146559898,209.9352173415484,214.7536000052757
0.4004004004004004,24.63597875799585,38.71701003969942,156.6343020127732,173.71595451204206,131.7785318722163,127.15754803083468,209.68436555701464,214.8517426812887
0.4337671004337671,25.11518371237313,38.71602143786525,157.3826409450639,174.17341169860674,131.8012580484999,127.11177946456954,209.38041355645697,214.9840119855841
0.4671338004671338,25.693086537865504,38.69329550924301,158.23394214558687,174.56062930522646,131.8222383285969,127.06663556745892,209.0323036015624,215.13607026203164
0.5005005005005005,26.351082340795283,38.64606963240068,159.16941787996967,174.85159055435415,131.8386983611583,127.03114614015826,208.64897795401805,215.2935798545008
0.5338672005338673,27.07056622748477,38.57158118590625,160.17028041383998,175.02027866844296,131.84786379483486,127.01434098332292,208.23937887551105,215.44220310686123
0.5672339005672339,27.83293330425652,38.467067548328046,161.21774201282668,175.04067686994733,131.84696027827877,127.02524989760924,207.81244862773,215.5676023629843
0.6006006006006006,28.624760189273047,38.31545759869756,162.0368484460111,173.39763543590357,131.72085304369676,127.14210919724874,207.4108648467632,215.473280841466
0.6339673006339673,29.2199926485729,38.0652591940183,162.88667010468947,171.60738010218918,131.60041887281722,127.3697271406696,207.01623344951412,215.21153876513225
0.6673340006673341,29.775383961034283,37.801995464179896,163.64713390190505,169.78300327785266,131.44057905485138,127.69088971083052,206.6659995652856,214.8603674459612
0.7007007007007008,30.322235151829947,37.448708055889725,164.4455976128823,167.97586767331467,131.26925809953354,128.10529073541693,206.35727467094367,214.4186984866772
0.7340674007340674,30.855672458670288,37.12931339248286,165.18713196221074,166.20757054278792,131.14357369375378,128.65480731067487,205.96981747023912,213.76509686330056
0.7674341007674341,31.275883511012232,36.77223531144158,165.81891939623182,164.53381911397958,131.06612140586418,129.28627932572937,205.5875568567765,213.04169516648773
0.8008008008008008,31.74728877621929,36.48454941507081,166.4264130288546,162.9530134336092,130.9121672865924,129.9504393550217,205.28280801961407,212.2905441772133
0.8341675008341676,32.09949850024648,36.09617869135189,166.9825487246203,161.50571152980615,130.74332822307267,130.70870371420187,205.0549467749242,211.4266910987305
0.8675342008675342,32.44706933862483,35.59194410087668,167.27128194762383,160.33901590324547,130.5409002100596,131.44607332120256,204.9785681080528,210.65103788150523
0.9009009009009008,32.7108848837149,34.988563889111084,167.779983944784,159.23354548137272,130.3157802427087,132.19671218535763,205.02613642254292,209.9561562402208
0.9342676009342676,33.15772814836237,34.33736177724748,168.1993850877639,159.48937975708267,130.11046774387802,132.67244470031892,205.19831562685656,209.76733302236963
0.9676343009676344,33.769945865383264,33.68722487085725,169.4266180596567,159.32427477273225,129.8056733884779,133.175679582049,205.4930009977505,209.6311008568157
1.001001001001001,34.22800031336159,32.81038931599668,170.9492442095212,158.6527594258792,129.5856855641155,133.82880817321188,205.8031470191708,209.3121128230576
1.0343677010343677,34.454353670811415,31.808691868247973,172.8628661403393,157.7771050344457,129.41319328177693,134.576857241995,206.1513272393677,208.8543100141933
1.0677344010677343,34.40595265687264,30.129419525427146,179.53615795785322,158.45070225801788,129.30117474788372,135.2646075715661,206.55692557945312,208.47324523532163
1.1011011011011012,34.01812916090982,28.493641332365545,184.44816656839777,158.26124018265517,129.20409069570752,135.95516931130882,207.02290265184857,208.03845679255727
1.1344678011344678,33.05780614449155,27.215592293802903,181.59029040381776,157.41512492037893,129.0148690365061,136.6229034979853,207.5833870456505,207.56165319264625
1.1678345011678346,31.73221612711029,26.427522910502223,178.32783171914713,156.0852004234361,128.74067354879563,137.3065180685783,208.2152635150364,207.0209308393472
1.2012012012012012,30.849886119437446,26.21895539220485,179.4189254403701,154.74687615171266,128.29624270759163,138.00130216986017,208.8954446956816,206.4034640028317
1.234567901234568,29.89318649066707,25.53906248437736,179.8059124468302,152.91871196561002,127.85506000025885,138.71122438730242,209.61678846146924,205.71322727337028
1.267934601267935,28.3138234490398,24.985721742259432,174.66210610823748,150.31064614046358,127.5616645444662,139.37862873257964,210.357238117726,205.0435137360511
1.3013013013013013,26.325284406031763,24.464639364670965,170.88266947469177,147.31620586205491,127.3667527455088,140.04481371025213,211.0508135263348,204.36560450463267
1.334668001334668,25.230557367788865,23.664833424610247,173.14362077849214,145.2048928559396,127.27250634855965,140.67981462807774,211.7214297223882,203.66796481882807
1.3680347013680347,23.98502103211895,22.65512099458063,174.31736709705456,142.68097768821286,127.20988848180868,141.30826910387725,212.40292852429064,202.92975220899825
1.4014014014014016,21.81251319585464,21.326460282956912,168.8291987839538,139.8039140430173,127.21672901430188,142.00532731033002,213.05612285806205,202.1786594734805
1.4347681014347682,19.629081022029744,20.14959205515976,164.34996396176763,136.47325099832213,127.26083876108282,142.68055824130087,213.66650091967097,201.436119297578
1.4681348014681348,17.31755518375062,18.965906200903483,160.64364152764674,132.93158766618257,127.3399222975028,143.249716574561,214.23585307057263,200.69615216469188
1.5015015015015016,15.428324746265789,18.06130877187634,159.5762165902549,129.08805811362728,127.4309225404684,143.7264424479009,214.7578291499844,199.9720384735208
1.5348682015348682,13.680989195852169,17.67624847541388,158.54850898968746,123.80479502474662,127.53633077810711,144.23531979624508,215.20735072539057,199.28819170641128
1.5682349015682349,12.131752607080788,17.740020896685696,157.34499809852306,118.63735209666253,127.61058847107512,144.8032494227707,215.5651866791518,198.55554287672788
1.6016016016016017,10.241845388523249,17.99604786912543,155.7584197003342,110.03899041549178,127.61185700589692,145.38217893941484,215.69218177869857,197.98297589003468
1.6349683016349683,8.857616700380708,9.51436735023528,154.7362568703726,100.4850116817077,127.63650821353106,146.0009430960659,215.8658532898021,197.2237883154554
1.6683350016683351,8.0726401121265,14.110039095485316,154.9484056257325,94.72071768608669,127.6703891233673,146.49480988153894,216.1983212053248,196.40056799759284
1.7017017017017018,7.960691437645775,18.56120607840126,154.66927268349568,89.4505109241022,127.653389328432,147.0080087458931,216.65385077678644,195.3137876763437
1.7350684017350684,0.1936927057386763,22.720019114950908,154.2995757729528,85.73829921181124,127.68478969780293,147.4261806967198,217.1020254535221,194.0699910221372
1.7684351017684352,-4.329523550510968,26.805160994836616,153.67523765844223,82.40799274808057,127.77378142869372,147.9072738816944,217.50077379878468,192.7992276704281
1.8018018018018016,-5.7853918880450665,30.8307888044096,153.1634070317966,79.2198018957995,127.8068200703208,148.4662141740423,217.923954353414,191.47646398168783
1.8351685018351689,-4.662644247588557,34.740903681400376,152.59049570837513,75.44460331733579,127.82395233370409,149.0243197010242,218.5659462282962,190.1335294172519
1.8685352018685355,-1.1999495281842891,28.53812979956222,151.1222003469265,68.95274173671086,128.16710610899835,149.35267206195888,219.0376389862621,188.76324918649385
1.901901901901902,4.70686465580336,25.208803696937927,148.6246842885004,63.38381023902576,128.42986043283065,149.58366446396295,219.55693847752548,187.57497888988297
1.9352686019352687,4.70686465580336,33.02206478680052,145.2529665914086,60.572085272739386,128.6026439362105,149.80506767686887,220.1037912564852,186.52987306291112
1.968635301968636,4.70686465580336,40.68299937921911,142.50761800014334,59.056179735375295,128.70678513612643,150.07233760193537,220.6443725942181,185.6413614822788
2.002002002002002,4.70686465580336,47.68552861356887,141.98380908121658,57.42809636314274,128.4996218424728,150.2580711710404,221.1799478433472,185.12076831431
2.035368702035369,4.70686465580336,54.10017801851572,142.3381651438155,55.69606075431868,128.3455478024369,150.37136506061313,221.60961637974577,184.77657855938693
2.0687354020687354,4.70686465580336,60.04220146701753,141.40637889076325,56.206952817273134,128.50367463739627,150.14992435035316,221.9981884075702,184.5423604878315
2.1021021021021022,4.70686465580336,65.65841731296452,141.6254409202013,55.822066758318,128.6100203201822,150.28870707236965,222.31697763265169,183.9435092763164
2.135468802135469,4.70686465580336,62.09135779680352,141.59992216710242,55.01106860842179,128.84987855387888,150.4955005284239,222.5390217524332,183.2297008567035
2.1688355021688355,4.70686465580336,60.7130123492886,141.77273921480602,55.15076861816218,129.02086464508776,150.70343421800368,222.7838196452518,182.67423096635932
2.2022022022022023,4.70686465580336,61.31403711132295,141.8133850550782,55.726768306295725,129.14329213520995,150.92699347425503,222.965730921682,182.31206788474907
2.235568902235569,4.70686465580336,64.34049124388001,136.5555714279966,55.14161530066983,129.11886870224956,151.27298781070076,223.175751993347,181.9134780914356
2.2689356022689355,4.70686465580336,69.31508695149773,129.10761849651388,55.71148285573116,129.02667533370408,151.60247079584744,223.35018232042827,181.5704398091817
2.3023023023023024,4.70686465580336,75.6892030326572,127.94673429880636,56.82122160343732,128.89349035402086,151.96860457083605,223.52580702622447,181.2572479330636
2.335669002335669,4.70686465580336,82.88003233722516,127.74577569438776,58.60440124608167,128.79173371948022,152.35169479564163,223.71673503822896,180.97879442064144
2.369035702369036,4.70686465580336,90.3668160412161,123.13357355055096,60.16332911332593,128.86369426685016,152.76941821068294,223.91811928330068,180.7784809549025
2.4024024024024024,4.70686465580336,98.839032557235,120.66795874014646,61.584143547588845,128.6733462034643,153.36908163055625,224.0557428175739,180.698019232802
2.4357691024357693,4.70686465580336,107.7804479215871,124.13289504387794,62.9570193520379,128.47997020292993,154.0487185510387,224.2036681181086,180.6330737613181
2.469135802469136,4.70686465580336,116.94315171999736,126.9766176396436,65.57370470966202,128.4209997746811,154.70918963364193,224.3775626783584,180.53942010113607
2.5025025025025025,4.70686465580336,126.581944516504,123.18970914590756,67.27203581645156,128.445808286671,155.38525079688867,224.58035039941583,180.46930323741395
2.5358692025358693,4.70686465580336,144.68671898396136,118.93733219140314,68.48837896523655,128.41137467228026,156.23252402022808,224.77517773279547,180.33612064785544
2.569235902569236,4.70686465580336,161.20609671930674,120.50798288067848,69.63306882449146,128.39699442101207,156.97019047706905,225.03725694137592,180.22676334472965
2.6026026026026026,4.70686465580336,175.23405368535026,119.28942497873032,70.93747234682021,128.57235823905194,157.5410989341351,225.4601546682444,179.9014227758846
2.6359693026359694,4.70686465580336,187.2281312443274,119.09700886972364,71.41766104549744,128.66682382798305,158.11748987787308,225.93756741491933,179.6737165600702
2.669336002669336,4.70686465580336,196.99297020730785,120.55648405076369,70.98559669180159,128.5011219882819,158.8367347300716,226.7160940254612,179.44599196667784
2.702702702702702,4.70686465580336,204.38668603541,122.42631686533808,71.31372956745265,128.28300302361086,159.36932037542488,227.46886625542376,179.472007749556
2.736069402736069,4.70686465580336,209.6473792811083,119.3030929838315,71.72355671150922,128.1165997693474,159.68704583831294,228.1625738345342,179.75274117443482
2.7694361027694363,4.70686465580336,212.8167774873397,121.88812324456616,76.61686450097196,128.1146425530062,159.75908156714473,228.93374519896253,180.09074632520193
2.802802802802803,4.70686465580336,225.8194004804088,121.62329892071725,82.11206396545782,128.10557336506338,159.68689488474908,229.72308956856125,180.52701538397773
2.836169502836169,4.70686465580336,226.6412937108728,121.46663442313482,83.283211278323,128.1210144160581,159.52659806758396,230.288512214338,181.1096860917287
2.8695362028695364,13.09045260601843,225.37337860668012,123.24202426620164,85.55188685176178,128.20971710704862,159.32815813286294,230.72003074373444,181.69498673953265
2.902902902902903,23.35938818157385,221.62757860872244,124.69680776233017,86.01964246558596,128.2476342000692,159.09788830442812,231.131345392719,182.4537513505985
2.9362696029362696,35.23695500146172,216.0463053751049,125.11199997117028,83.63651555960756,128.28060152783036,158.81116960047453,231.5226406600697,183.38869316206527
2.9696363029696364,48.48062949002888,207.48742318723325,124.65594218004956,80.33569171542818,128.43184912028738,158.32513843017472,231.77583790261053,184.52458103452
3.003003003003004,63.07258868416015,196.0395542388209,120.14499956679956,74.95190998411134,128.6026379904743,157.60567459758818,231.7349700065928,185.8867164893231
3.0363697030363697,78.45945392804055,194.3727370735563,115.5950780932092,73.21508232768058,128.52498378558693,156.98831832729377,231.54020115928083,187.4256094331472
3.0697364030697365,94.30624683259327,192.4383016159779,111.4627601481456,71.0768194849188,128.37033053403204,156.37140470086752,231.16512355845987,189.0085785402955
3.103103103103104,110.55471295577668,179.78436882709482,110.1457035574442,67.06823906139978,128.25688474644727,155.6594574274334,230.5450422853514,190.69307396388555
3.1364698031364697,127.15551373662645,165.2543275632264,110.12249721329452,63.28273669235645,128.32583410608711,154.82371847319038,229.67236168814827,192.4707056196375
3.169836503169837,143.46591981566792,148.78698323450388,108.87949853735152,60.76019567340883,128.82516716854815,153.7928667553328,228.62461562007647,194.30106802626813
3.2032032032032034,159.75349692632133,130.23664763164078,108.0357054101601,58.996192504358255,129.42085924944064,152.433370525555,227.54688201321497,196.31430653968965
3.2365699032365702,176.1302790659573,109.65505818768646,109.206314847783,56.56531372960061,129.86363419682013,151.32116320060177,226.31290783848723,198.3770310312977
3.2699366032699366,192.4203727559648,86.60316353345598,110.41067209443102,54.33016048004031,130.27872687014025,150.1564053396665,225.01636465605336,200.49711721530653
3.3033033033033035,207.48651024311465,72.76663361218364,112.33572710429968,53.739975936111776,130.72294297433362,149.11353083166847,223.58805806112005,202.60697932984263
3.3366700033366703,221.39302075435515,59.63254765894291,114.59575643856942,53.51777412327686,131.0937423004853,148.12714422386003,222.24406554179225,204.82058870085044
3.3700367033700367,234.65664913980336,47.55660649715612,117.31902505957112,54.737623917037965,131.51540015296038,147.19455714566908,220.8496379673938,206.88571331125453
3.4034034034034035,247.2879087488132,37.06724855131635,119.63162835554525,57.39204269904657,132.0072083923732,146.28570829881275,219.3059050894672,208.75794181588267
3.4367701034367704,257.5605278862839,27.667080317985366,122.83785551801375,60.47211295044724,132.53492110009904,145.5367431345299,217.68632905747228,210.39858455821903
3.4701368034701368,265.98876723476366,19.818300775378177,127.747560530628,64.35393823564901,133.11072569004813,144.86844315700594,216.0267508939353,211.88965320201788
3.503503503503504,273.6314743593664,14.235906423525169,133.05085046928411,69.03546621976034,133.66690533874993,144.42635249286445,214.3221347580333,213.1476422078248
3.5368702035368704,289.84166030224264,11.057556685719014,138.86192670007594,74.51876723925798,134.23501282525433,143.7897204483268,212.4629910545519,214.5888317950656
3.5702369035702373,301.7126468678372,10.063276476906571,141.8267123397139,79.48220469554707,135.38452542192684,143.4038286132914,210.5134999246088,215.3831801757785
3.603603603603604,307.6037898510138,11.437234823878732,142.17381607688998,86.25175795240737,136.03294710033012,143.36734456889704,209.1983364201595,215.5197591831611
3.6369703036369705,309.8628753897452,15.479738200585588,142.86197423606194,92.32017315927956,136.70514114208646,143.59981285437942,207.9979443346644,215.18948158557285
3.670337003670337,308.3801699049366,22.30602890463548,143.24580218694257,97.26599482908544,137.47948019153327,144.10878853971056,206.74381808233272,214.4120564600833
3.703703703703704,303.21080254364085,20.58699678523426,142.59029742966928,102.62865687360195,138.52406030649644,144.62347711702512,205.57894299074744,213.3411763756079
3.737070403737071,294.5937663143358,19.39103898894009,141.94564819178845,107.0353750107143,139.81493892327427,145.26392622467915,204.39750244318125,211.90364081046823
3.770437103770437,281.38452611822555,18.453534587856865,144.79456762024367,111.21221712019812,141.04938518906812,146.102986486628,203.15096601929025,210.5114107681061
3.803803803803804,264.4011874138946,17.524459088296965,151.67155430814992,113.84808621196746,142.3189880810376,147.11730764126057,201.95740917024403,209.0772292462616
3.8371705038371706,254.1395628387932,16.909783585078117,153.66087128660342,117.29586331150531,143.85458712278316,148.0084619672792,200.47535905792145,207.72459444219373
3.8705372038705375,242.43799773795533,16.566038651578967,155.1994881618857,120.30535162313134,145.50592247315433,148.80361727801008,199.0149273075637,206.32684191388972
3.903903903903904,229.392448751592,16.266304420373963,159.52368113091742,123.45869008660028,147.19078666496614,149.62788575785785,197.55772331176505,204.84188378892688
3.937270603937271,215.59227907253955,15.597686013862752,157.20218914208965,127.75761167799983,148.9988094336706,150.35115060042384,196.04184966982987,203.28195038732005
