Time,Left Shoulder Angle,Right Shoulder Angle,Left Elbow Angle,Right Elbow Angle,Left Hip Angle,Right Hip Angle,Left Knee Angle,Right Knee Angle
0.0,30.96109638905721,34.05010604754281,165.36274545612562,167.2247192318283,140.9040336852458,143.93057172437295,208.3085266871309,201.58734521409053
0.0333667000333667,30.79757878447206,33.65753563954635,165.56110046364188,167.23266027161532,141.48625437579653,143.96611151231895,208.07968780822867,201.3890956271408
0.0667334000667334,30.645627840478063,33.31894652000607,165.65442731776284,167.19963137831496,141.97144416881108,143.95819916012553,207.89698337852093,201.230870998024
0.1001001001001001,30.508342870634674,33.03360910487634,165.65552511350097,167.12927911810016,142.36487011035328,143.90992973595723,207.75732609604435,201.1105212888213
0.1334668001334668,30.388823188501355,32.80079381011153,165.57719294586877,167.0252500571438,142.6717992464871,143.82439830797856,207.6576286588356,201.02589646161377
0.1668335001668335,30.29016810763756,32.61977105166599,165.43222990987863,166.89119076161882,142.89749862327642,143.70469994435393,207.5948037649311,200.9748464784825
0.2002002002002002,30.21547694160275,32.4898112454941,165.2334351005431,166.7307477976981,143.04723528678522,143.55392971324792,207.5657641123677,200.95522130150857
0.2335669002335669,30.167849003956377,32.41018480755023,164.99360761287463,166.54756773155455,143.1262762830774,143.375182682825,207.567422399182,200.96487089277304
0.2669336002669336,30.1503836082579,32.38016215378874,164.72554654188573,166.34529712936111,143.13988865821688,143.17155392124965,207.59669132341048,201.001645214357
0.3003003003003003,30.166180068066776,32.399013700164,164.44205098258882,166.12758255729065,143.09333945826756,142.9461384966863,207.6504835830899,201.0633942283416
0.333667000333667,30.218337696942463,32.466009862630365,164.15592002999642,165.89807058151612,142.99189572929342,142.70203147729956,207.72571187625687,201.14796789680773
0.3670337003670337,30.309955808444418,32.58042105714222,163.87995277912097,165.66040776821043,142.8408245173583,142.44232793125386,207.819288900948,201.25321618183665
0.4004004004004004,30.444133716132097,32.74151769965391,163.62694832497493,165.41824068354646,142.6453928685262,142.17012292671367,207.9281273552,201.37698904550936
0.4337671004337671,30.62397073356496,32.94857020611982,163.40970576257084,165.17521589369716,142.410867828861,141.88851153184353,208.0491399370493,201.51713644990696
0.4671338004671338,30.852566174302456,33.20084899249431,163.2410241869211,164.93497996483538,142.14251644442663,141.6005888148079,208.1792393445328,201.67150835711053
0.5005005005005005,31.13301935190405,33.497624474731744,163.13370269303823,164.70117946313408,141.845605761287,141.30944984377132,208.31533827568683,201.83795472920124
0.5338672005338673,31.4684295799292,33.83816706878649,163.1005403759347,164.47746095476617,141.52540282550606,141.0181896868982,208.45434942854823,202.01432552826003
0.5672339005672339,31.861896171937573,34.221747190613165,163.1543363306242,164.26747100590586,141.18717468314887,140.7299034123543,208.5931855011552,202.1984707163697
0.6006006006006006,32.45711342859487,34.85681323308293,163.67681892935968,164.33587187921958,140.82432909159215,140.37835529004406,208.729224510245,202.4294437246444
0.6339673006339673,33.21066451776369,35.51759232893465,164.42019808577774,164.3476701462425,140.40567436690944,139.91024583776772,208.85028066353368,202.71464895158056
0.6673340006673341,34.05508797647041,36.19904827483415,165.31587611666515,164.35598007334622,140.01154431302234,139.48874224428118,208.94028245579284,202.9914328466525
0.7007007007007008,34.90436872661278,36.98214961556808,166.18395677322405,164.52319429124125,139.606722820241,139.1229749327114,209.0554219662407,203.25726843628576
0.7340674007340674,35.77659992102004,37.72718976463812,167.0866387476377,164.60806099275288,139.23413984757866,138.8546486778887,209.15783304446288,203.48128884372565
0.7674341007674341,36.68688293914811,38.39134525169464,168.10580604561977,164.64412002636791,139.06590331449544,138.69214223263273,209.03243697716383,203.63917234067176
0.8008008008008008,37.61053148795667,38.982393304803786,169.16850688140846,164.5816652916639,138.97275597663452,138.63986311719026,208.8452777438706,203.73841001556136
0.8341675008341676,38.54349440577118,39.608189105475226,170.17971914573536,164.61206876897194,138.86708027491963,138.73294107274887,208.7207540415581,203.7698340027769
0.8675342008675342,39.46496661047678,40.16163838816784,171.2176793121199,164.54481263004243,138.75460876221015,138.93449290074057,208.64064540521912,203.75564567591024
0.9009009009009008,40.43537578160896,40.64540062375155,171.59512018074696,164.67451596551902,138.66830598756985,139.19157650795233,208.5446938903292,203.7355610330844
0.9342676009342676,41.403142378069255,41.01028092545673,171.97581045975502,164.60898109596187,138.59919135052056,139.50330174367508,208.4598985980821,203.7013061448445
0.9676343009676344,42.38885156578067,41.53468910139523,171.7441815623087,164.67910154410862,138.5420604658796,139.85281064059885,208.38148383978825,203.64741607227865
1.001001001001001,43.32241721785418,41.97981048462358,172.09566430006078,164.44832099581473,138.48145239451733,140.2050630218438,208.3347471711568,203.59195688758763
1.0343677010343677,44.51725523545312,42.38002651630543,172.40681524291756,164.01096911644552,138.3970479879545,140.56830436138827,208.33214917261125,203.5386659020412
1.0677344010677343,45.57446453393264,42.6144388558384,173.56209631174738,163.32361275735332,138.2940155269341,140.93852939272557,208.39216529220045,203.4855143237508
1.1011011011011012,46.741790332276445,42.98075707654714,181.6975555203876,163.0357880671171,138.18830639157667,141.31897333766668,208.49910323924823,203.41663039138075
1.1344678011344678,47.71920264499303,43.00154558879502,188.04253438311875,162.4544065039245,138.0907356449534,141.741081215061,208.62551285855145,203.3138316642818
1.1678345011678346,48.52992276046627,42.39977478812659,192.9248525791113,161.77903659388514,137.94373870637065,142.21218076138075,208.78286659511167,203.1630114619849
1.2012012012012012,48.83116827346653,41.245223127344254,191.7371505290412,160.50421500343327,137.7896778629915,142.7389026480572,208.95978258783208,202.96889378512807
1.234567901234568,48.680176957284736,39.58406335838296,191.12658188818708,158.86722091998791,137.61317238187934,143.3202681243601,209.19116894733145,202.73384453098464
1.267934601267935,48.00573133832062,38.09398842498221,190.8178022694545,157.124660660308,137.441003757601,143.9446029263059,209.4662643139892,202.48959791601968
1.3013013013013013,46.45541992367455,36.58339781150092,191.61888106118812,154.478914666324,137.30773716628875,144.54124789246114,209.76172977440555,202.2676815235993
1.334668001334668,44.36783099047211,35.30629094072159,192.8177107323107,151.41632815194825,137.24926620675782,145.17618209299818,210.06263530305685,202.0293772696779
1.3680347013680347,41.28786702518592,35.03601954323682,196.60877771910853,148.71469099541565,137.24343465511194,145.88417674820113,210.32705584795272,201.8721744997759
1.4014014014014016,38.25222614937982,34.606827513261614,199.29818861054332,145.81147065991004,137.30671806149485,146.64762793170797,210.5917319298084,201.6522241970372
1.4347681014347682,35.78285806385005,32.864394452664364,205.918256906706,144.3608321327236,137.48528099560983,147.3803729707875,210.8625386492524,201.38460560269613
1.4681348014681348,34.71800839361249,31.186761493903887,209.53019326213453,142.05970408161133,137.7023418828402,148.0411011376586,211.17576374244337,201.1138440811447
1.5015015015015016,32.629818905072135,29.009407091712408,212.55390479947505,135.96097096957337,137.87102975980724,148.67528069102312,211.6301915182869,200.983985232734
1.5348682015348682,30.8209111725048,27.069905497823434,213.7710449971018,129.95186520262035,138.09396724939268,149.35134871036362,212.15436862665675,200.7227853636574
1.5682349015682349,28.346002194871907,25.05895126803354,210.04766264794048,124.94786230536744,138.36847746353408,149.76223275941354,212.73656948363708,200.4206648563012
1.6016016016016017,18.22567526748844,23.828916946126345,205.03083406643216,120.45593326271954,138.65104427520654,150.1427717368695,213.2173524903558,200.11222389573663
1.6349683016349683,11.709544471414434,23.05436335838275,199.17021380514603,115.71810062818643,138.93929157436543,150.48771935153212,213.59031895252977,199.78140709988045
1.6683350016683351,7.902923154271383,22.536757746787792,193.48139175761585,110.7824988730253,139.24524093744668,150.91655629806576,213.8418315977882,199.3876626775217
1.7017017017017018,7.3083846961345715,15.037890462983976,186.99076291762145,106.2628315282896,139.60363002155805,151.502755565601,213.9545307578153,198.8977079726517
1.7350684017350684,9.01897281006655,10.31130317141665,180.5949413756227,101.94402214357638,139.9980740420838,152.13426235149035,213.95563607362908,198.3996951598857
1.7684351017684352,12.171480130954498,15.995433330619178,175.20527854578808,97.9369111032234,140.53845657306707,152.7353471822181,213.9038537233357,197.91281453802543
1.8018018018018016,17.14581831060645,21.94841111033959,170.0091061860987,94.28503588652148,141.17107338571697,153.45514285845462,213.7900170362672,197.40005722760048
1.8351685018351689,24.067066951164406,27.73933861088998,164.75506614419106,90.92701493119496,141.85119964667504,154.16760222733524,213.62291203034536,196.90675174434105
1.8685352018685355,32.67156143134423,33.36293882246057,159.79039242605666,87.60514559649906,142.6075736210977,154.8891132137776,213.33466976541013,196.4225748953419
1.901901901901902,42.68043719908649,38.78170986153992,155.27619395432657,84.21881205125928,143.40088385582058,155.58212247712314,212.9740936809801,195.9579350861317
1.9352686019352687,53.97625305300205,44.20459242507986,151.0176911312454,81.15454905434197,144.02300699086427,156.2466773969786,212.77510767802065,195.53842246257804
1.968635301968636,66.43925259698038,49.64106410086141,147.1446068591017,78.64064490074068,144.50955344998545,156.8688051799953,212.6604772476704,195.1679586460768
2.002002002002002,79.90357492494964,54.98277908516593,143.71875501977323,76.47598729378309,144.95054922203357,157.39305566736837,212.5061133307274,194.86512788324376
2.035368702035369,94.30886134868078,52.74274726782467,140.63973752777747,74.69734079283353,145.35787895757576,157.8180260023481,212.3002585571372,194.6213005613224
2.0687354020687354,109.3282972287185,52.819175076037965,138.91826425536522,73.11094132835234,145.67889481068292,158.18379760313306,212.12126507517772,194.41036769690115
2.1021021021021022,124.76001854697692,55.08208172485198,138.28419787660755,72.00591022168011,145.91328630520138,158.47702157303172,211.95277330417807,194.2388201616992
2.135468802135469,140.36390634605098,58.92852849322344,139.80119534267598,71.01389525147462,146.0973034137887,158.73280368165987,211.792115030796,194.10371646545784
2.1688355021688355,156.03555263031183,64.35424924675465,142.5516430954274,70.48030567578692,146.23871217940865,158.96853210923817,211.6305614143071,194.00228620232147
2.2022022022022023,171.176017016467,71.01258855008625,147.36339776236804,70.43755314040783,146.37695436182668,159.20005232766383,211.4413619536363,193.91319856572665
2.235568902235569,185.8515207431585,78.80293069147092,153.60619906574414,71.03048638797318,146.49270383275336,159.39065156936158,211.2265838355416,193.85472612914853
2.2689356022689355,199.5330973294178,87.1080747653146,152.98463264830178,71.43470074148144,146.58296078808644,159.55408928740755,210.9946929688049,193.82922512367767
2.3023023023023024,212.2104202181873,96.15977060405194,152.23829789834264,71.96779653069576,146.6035735115525,159.67761457373342,210.7912750492505,193.8469198330533
2.335669002335669,223.5552920596028,106.09342351989642,151.2851785158106,72.4263721711306,146.62970156693953,159.75018979881244,210.61433320572925,193.9298012157227
2.369035702369036,233.70762545590128,116.91000421440462,156.45237240976846,73.30599413659266,146.6513732788561,159.76431911824295,210.47778491844304,194.07336014785363
2.4024024024024024,242.4556064371893,128.639568005556,162.74723724278934,74.4458072069957,146.70938859708767,159.72416302084304,210.34875427773176,194.2801675989694
2.4357691024357693,249.7057496487193,140.56980338128463,170.29493655895948,75.48039499244034,146.79849212405264,159.64034031872623,210.22076124951604,194.5392105100452
2.469135802469136,255.78017128413373,152.69426367669183,178.10372853669264,77.30258471811763,146.92747992023004,159.5952460176727,210.11111932867624,194.8150936244668
2.5025025025025025,260.5308626575258,164.55454838387527,186.4590146340569,79.58034947750895,147.05801687388035,159.5447484904507,210.02247273814527,195.1281109056437
2.5358692025358693,264.6541113840142,174.83155718204495,192.1741227487396,81.39322822407456,147.21231119497426,159.44783147398283,210.02128060403567,195.33963376536784
2.569235902569236,267.34380565859186,184.1154329253056,198.1956307109625,83.04104728147962,147.3627251694044,159.26550967743415,210.08922652743647,195.55293346727763
2.6026026026026026,267.85352049759973,193.74921443380325,197.96747825178863,82.11874565612924,147.46124873596318,159.08596575938964,210.20762655138537,195.7613924025017
2.6359693026359694,265.02615129726087,202.64276540229235,197.9171871110705,80.53418443166962,147.52564492431316,158.93994697362982,210.3606698579943,195.9341399885731
2.669336002669336,260.98608564715624,211.4322546671324,195.2905301408045,82.14508739874823,147.71690461730032,158.802756359779,210.39616873603035,195.85833947483948
2.702702702702702,254.8546266687392,219.63192385838832,190.7610532625949,84.12146200601815,147.8910296502193,158.6295996331342,210.32305526973937,195.756239929538
2.736069402736069,247.4805464768822,227.6053191614133,188.78051597007948,85.32030722218522,148.04715603459397,158.73687650179346,210.10406641827268,195.6264505596153
2.7694361027694363,248.5187315944044,234.47943781750692,187.35403723615164,86.1712748146906,148.24515655664132,158.91648328547615,209.86687252176483,195.45822121337423
2.802802802802803,248.9886246233799,240.3888281377193,186.5836407042057,87.31041069622695,148.47449307807614,159.1669652163098,209.646755713072,195.316890159654
2.836169502836169,249.1334506214397,253.06302285508733,186.1256844658118,88.71204687545662,148.72894331457198,159.4570642013585,209.4528025381105,195.2008288148715
2.8695362028695364,248.47125660926065,272.1646631965269,186.74040224757584,89.73211204405062,148.99945618202327,159.6072910893924,209.3454134053408,195.2197844817506
2.902902902902903,247.57631829239685,290.51490107998296,187.6869270744716,90.5140888760351,149.24927634671567,159.6940188400623,209.31155872535803,195.2944078734704
2.9362696029362696,247.3036679285393,297.63946837144164,187.97405816064256,90.73929576964744,149.35028966253898,159.71614787054202,209.2940274118433,195.4846537415216
2.9696363029696364,247.4278748990761,301.15670973627107,187.9704992236212,90.28664008984256,149.38212007772395,159.7437550674984,209.23636584446947,195.62638498655184
3.003003003003004,247.60244080844848,301.2964948934131,188.0386712019523,89.40194669639533,149.3645090157322,159.71535994673422,209.2033174017377,195.8686750812633
3.0363697030363697,246.46543014934937,298.2592654157857,189.61612916441536,88.52008552306341,149.3246836180351,159.64109120524665,209.20132543610424,196.1542545538053
3.0697364030697365,253.57229319156588,291.75340529345027,190.92066481725803,88.38184527548329,149.2678103852437,159.50722870676785,209.1945967965009,196.55852573538303
3.103103103103104,260.47942793274734,282.0528223009837,193.83624964502624,87.96225560903274,149.17991037938452,159.33733810426645,209.23245818019,197.0773932379712
3.1364698031364697,264.8259278622279,268.7649550588887,195.23248700644052,87.14838571418656,149.0295690238248,159.10305249257175,209.327075296243,197.72339350328727
3.169836503169837,267.0913467464058,252.12075964825527,192.61991135773616,86.48269605612941,148.81507287577668,158.89723862686014,209.4079356680974,198.3965272295277
3.2032032032032034,264.2115857809878,241.8127229308977,197.6936013493753,85.71915190862376,148.57226186626642,158.64663728878776,209.5291355063191,199.19544760432512
3.2365699032365702,262.64591285273934,231.02689453773027,193.53479727912136,83.24963839557465,148.4016467454433,158.17875447122108,209.6521693484483,200.15913622117108
3.2699366032699366,259.32799262831287,219.2220816138852,190.49726194360508,80.51752322220723,148.19030474814352,157.5739125279514,209.8458227003769,201.27801190167293
3.3033033033033035,253.27192342200783,206.5544045135313,187.0096053348641,76.84868160914769,147.8084567093744,156.8348006294656,210.2268253831494,202.53054869938512
3.3366700033366703,245.66067794237225,192.926317573336,183.6642666929562,73.40261879788576,147.36327631629456,156.00400986520856,210.7154065995328,203.92065764785303
3.3700367033700367,236.2896123206976,178.44259148883248,181.5205517747605,69.57194890573832,146.9455017244913,155.20227607278144,211.3227553262677,205.3925752552343
3.4034034034034035,225.7524503168196,163.4200762769842,179.31197608602355,66.33358086797654,146.49629990025127,154.38510910326673,211.97855882809964,206.94417531726617
3.4367701034367704,213.791430702307,148.05989448731623,177.6896541952763,63.51782010881509,145.82454187259694,153.5914376612026,212.9823951585441,208.4023450644984
3.4701368034701368,200.9896216081946,132.49477060993794,176.39616366776926,61.531257459378764,145.16111646385005,152.75273970511705,213.89137272541564,209.90480810872788
3.503503503503504,187.24153355777744,116.83331797062836,174.48506362858976,59.99948351137431,144.5217313182083,151.7465771857432,214.6471183510289,211.64053705657784
3.5368702035368704,173.2106730994497,101.43042731879608,172.81497270160418,59.302316422408175,143.9243038164505,150.7774715293704,215.28444147677504,213.3624125103024
3.5702369035702373,159.1325455767244,86.3831280313527,171.692062159633,59.30841526359206,143.34944577062276,149.7917138804223,215.9046742747092,215.0890528414841
3.603603603603604,145.08368883114036,71.9549453364744,170.86834661940682,59.97064870191999,142.82147880781997,148.8097300530416,216.4128047088637,216.76640901560623
3.6369703036369705,131.35509275091945,58.28430371405558,170.58847590094751,61.18596883562271,142.3115956743661,147.81272197557803,216.8256291408608,218.4677014909446
3.670337003670337,117.94212131514216,45.68189724972927,170.51762362678255,63.02115273653144,141.8438276356052,146.91889210354347,217.11911558126505,220.03324234900617
3.703703703703704,106.01054892697906,34.03890200716336,172.50797827668512,65.22666818726061,141.3620055721458,146.15467014343136,217.28278126430857,221.498749694304
3.737070403737071,94.14813748823452,23.926391393283247,173.7102519514345,67.91930502766816,141.0309866949372,145.54079074212527,217.2886670127968,222.7224486470644
3.770437103770437,79.38008516421006,15.382245866211148,173.60412488759704,72.27950340862671,140.74329445784232,145.13899297906306,217.17240995915904,223.8021087309016
3.803803803803804,66.62037974156505,9.086257073936812,172.29827208711436,77.87622866862368,140.58334521958952,144.8266423466659,216.89552951675503,224.6096340641954
3.8371705038371706,57.32526380325159,3.971497052519463,173.1931753126265,82.01082789567691,140.45809475710288,144.75587878419134,216.5978876748639,225.12267597272628
3.8705372038705375,48.58383514876918,3.971497052519463,173.55737577924882,86.27108677698615,140.46681549284276,144.77485988008328,216.2062101133513,225.4144715514358
3.903903903903904,40.42394689597365,3.971497052519463,173.96341246219382,89.82364697145047,140.6156368849565,144.76897351444484,215.69042181779687,225.50001772843632
3.937270603937271,33.79266367688222,3.971497052519463,174.99398951955374,93.56476277671987,140.8855929643927,144.85441975770783,215.0425171915925,225.36906210448385
