Time,Left Shoulder Angle,Right Shoulder Angle,Left Elbow Angle,Right Elbow Angle,Left Hip Angle,Right Hip Angle,Left Knee Angle,Right Knee Angle
0.0,15.893506406004231,29.07985910580548,149.14446880659042,160.81099635826914,128.98384053854184,121.55922945076269,204.05872458386312,207.8911071273177
0.0333778371161548,16.970315054963244,28.973111963904973,150.06055906615893,160.32243725069227,128.14139679784745,121.70768529740394,204.88915428054145,208.0235733610647
0.0667556742323097,17.79030706776183,28.892232211198227,150.73381596035676,159.96985186653131,127.43069551431978,121.8260617650102,205.6281398353481,208.13438231826336
0.1001335113484646,18.375427523630208,28.83460620591152,151.18648022114368,159.74126082469718,126.84322894917402,121.91658586786028,206.27956118901005,208.2258591410234
0.1335113484646194,18.7476215017986,28.79762030627112,151.4407925804794,159.6246847441008,126.3704893636254,121.981484620233,206.8472982822545,208.3003289714545
0.1668891855807743,18.928834081497232,28.77866087050332,151.51899377032368,159.6081442436531,126.00396901888912,122.02298503640714,207.3352310558085,208.3601169516665
0.2002670226969292,18.94101034195632,28.77511425683437,151.44332452263626,159.67965994226506,125.7351601761804,122.04331413066156,207.747239450399,208.40754822376903
0.2336448598130841,18.80609536240609,28.78436682349058,151.23602556937686,159.8272524588476,125.55555509671444,122.04469891727508,208.0872034067532,208.444947929872
0.2670226969292389,18.546034222076763,28.8038049286982,150.91933764250524,160.03894241231163,125.4566460417065,122.02936641052646,208.3590028655981,208.4746412120849
0.3004005340453938,18.18277200019856,28.83081493068352,150.51550147398115,160.3027504215681,125.42992527237176,121.99954362469458,208.5665177676607,208.49895321251765
0.3337783711615487,17.7382537760017,28.86278318767281,150.04675779576434,160.606697105528,125.46688504992544,121.95745757405822,208.7136280536682,208.52020907328
0.3671562082777036,17.234424628716408,28.89709605789235,149.5353473398145,160.9388030831022,125.55901763558278,121.90533527289622,208.80421366434763,208.5407339364815
0.4005340453938584,16.693229637572905,28.93113989956841,149.00351083809144,161.28708897320166,125.69781529055896,121.84540373548737,208.842154540426,208.56285294423205
0.4339118825100133,16.136613881801413,28.96230107092728,148.47348902255484,161.6395753947373,125.8747702760692,121.77988997611052,208.8313306226304,208.58889123864137
0.4672897196261682,15.58652244063215,28.987965930195223,147.96752262516446,161.98428296662013,126.08137485332875,121.71102100904444,208.7756218516879,208.62117396181915
0.5006675567423231,15.064900393295344,29.00552083559852,147.50785237788006,162.309232307761,126.3091212835528,121.64102384856795,208.6789081683256,208.6620262558752
0.5340453938584779,14.593692819021214,29.012352145363447,147.11671901266138,162.6024440370709,126.54950182795656,121.57212550895994,208.5450695132705,208.7137732629191
0.5674232309746329,14.194844797040036,29.00584621771653,146.81636326146926,162.8519387734621,126.79400874775628,121.50655300450016,208.3779858272514,208.7787401250623
0.6008010680907877,14.368181511715362,29.33960501701844,147.20918011238308,163.43778115899832,127.13662842892944,121.4313809900288,208.06972779130103,208.86699463686145
0.6341789052069425,14.809138353715934,29.72230396208416,151.0623794645303,164.51376795960908,127.44986653641278,121.40397722357706,207.76791363303744,208.9879549039959
0.6675567423230975,15.65928947567492,29.839917477930666,154.03589169929202,165.88371163691315,127.64040470367962,121.45165417739256,207.51624554766275,209.15637244163872
0.7009345794392523,17.101176457672338,29.98237629112891,155.42985215370706,166.8720855849773,127.70819550984749,121.46263791326685,207.2597395776622,209.41177828513565
0.7343124165554072,18.19303723315288,28.27783001234628,152.74694327062923,166.3296527721877,127.63509673698442,121.52871320728926,206.97565826498675,209.74306577999704
0.7676902536715621,19.214410339942443,27.72605411195214,151.29318671983805,168.86873898980767,127.5114025108532,121.6227909274347,206.67504086349985,210.1334093957584
0.8010680907877169,20.178437874162483,27.245236751965884,150.26002319943763,168.7124230961128,127.29677059413471,121.7211702451218,206.4328840111831,210.54454577660536
0.8344459279038718,20.90557152477276,26.749896196868384,150.11679855909088,167.1926484155558,127.035970663386,121.85196754089496,206.20534672370025,210.88210110090893
0.8678237650200267,21.558064855557955,26.250767431443897,150.13997327719648,164.5399705048301,126.7435632439958,121.9874491632154,206.00713272545576,211.1693543065992
0.9012016021361816,22.07869656251955,15.93448694800834,150.03577019609574,157.81556310674347,126.34945314395443,122.14998458494766,205.9448223388144,211.39247766435577
0.9345794392523364,22.309914040021912,19.254419272382343,147.43805634199802,150.26414754681923,125.84389660414575,122.26271477872685,205.9569712493613,211.62882661073067
0.9679572763684912,22.12331310209828,21.770879380919624,152.21313918145864,146.1297919076987,125.34961809199902,122.26299616157084,206.0464416850972,211.8481459612459
1.0013351134846462,21.779916036266485,23.626294892842903,152.45346187352837,140.14703877578074,124.53706815359098,122.28585140915696,206.42806464710347,212.1269714417193
1.034712950600801,21.47527257452799,25.15272537449165,152.58690537368994,133.6074294229335,123.51768827323346,122.2428544424198,206.9887390065079,212.54698013949871
1.068090787716956,22.85477013492221,26.33160353527768,154.06098079330542,127.06655427053197,122.4078341172851,122.15795392421688,207.4380589392423,213.00704265964825
1.1014686248331107,24.0102872482888,27.55858276437059,155.40213519145686,121.0249784769055,121.40839432616411,121.9033565884198,207.7551236555456,213.4930856397993
1.1348464619492658,24.75105407496019,29.46539669514964,156.8582690481403,117.16620357352564,120.48321332811088,121.77732529002787,207.94850563217176,213.89430045557413
1.1682242990654206,24.68399705020381,30.863751642093035,159.57260625771804,116.4317810314718,119.64380563140163,121.52934460468342,208.0939760095153,214.1695166702508
1.2016021361815754,24.49736665271817,32.355429194568934,163.49704280023164,111.758255619448,118.8897118525664,121.36119539175876,208.2416051073708,214.15737098646463
1.2349799732977302,23.566214650477672,33.02055638770113,163.91615669064805,106.92236349821192,118.30662656599088,121.1530944701998,208.22203553844432,213.88893003198456
1.268357810413885,22.48163480215325,23.621990238965004,162.76959348817675,101.56692688032774,118.17969087313996,120.72245462912232,208.17092703599525,213.3977737537037
1.30173564753004,21.49599253430337,17.869601234640385,160.9466957774993,96.43747153827928,118.07930452230678,120.37226837720418,207.70165884092503,212.77809158399285
1.335113484646195,20.72617132640891,15.083757444120998,158.65516641886836,92.16138652744073,118.07655137710532,120.07288404842066,206.95585660943377,212.18947132766576
1.3684913217623498,11.921249152268416,14.586788316812854,156.0972595707444,89.24704339458971,118.31998277069752,119.97905520251668,206.00316925707736,211.31553223488984
1.4018691588785046,6.048607098162192,16.31606250743765,153.39627404638352,87.67617479106652,118.83960442269944,120.03581269395,204.90142334510296,210.2066535200176
1.4352469959946594,11.265536138594282,20.24437691932992,150.87275227707187,86.95093354319059,119.60384453980028,120.25515182210596,203.662292305477,208.88889328287289
1.4686248331108145,16.57447396110524,25.892086255037803,148.31572034976966,87.33906617913864,120.62289197285766,120.6938202065384,202.3069179906964,207.35453113150925
1.502002670226969,21.80017916404045,33.10554197232779,145.99357269806882,88.80721731448958,121.91378933501532,121.3968177538682,200.84425493023127,205.56298544173893
1.535380507343124,26.948967363425407,41.90905370634333,143.63518330798854,91.49620707121304,123.60515946553284,122.34338830020393,199.21246934345092,203.4653386657595
1.568758344459279,32.169364324309846,60.69771480953524,141.06446664423308,95.26180948366483,125.69080827375085,123.51490604544236,197.3723407577625,201.07939097606263
1.6021361815754338,37.47778713123167,78.41619896096695,138.1796171947624,99.56695390732597,127.975208253074,124.81816315341096,195.38008875322583,198.48635592019664
1.6355140186915886,42.83844501153845,94.6667958005312,135.3310867511292,104.20297428060596,130.35933143289574,126.29695973395022,193.2767579734158,195.69812587407625
1.6688918558077437,48.19871445241459,101.24499679717576,132.4534003553637,109.53082297264368,132.94119976005908,127.97520779364916,191.04686847291467,192.7631052835452
1.7022696929238983,56.14822797243809,116.15243787680276,127.99378651268869,116.25704262818932,135.68866348975033,130.0416252349887,188.6158069480751,189.69262100659512
1.7356475300400531,63.95422462316769,130.88565286902434,123.30417348863594,122.74764794677566,138.44413349052175,132.21668646115623,186.24899949979527,186.58761973742853
1.7690253671562082,71.43533981821231,145.19578476089356,118.41216857186168,128.8035983167557,141.16965531070102,134.479360353971,183.98647521591863,183.4786546783575
1.802403204272363,78.41020897118145,158.83397653946324,113.3453790510234,134.22585312648405,143.8272744986167,136.80861579525325,181.8682631842902,180.39627903169543
1.835781041388518,84.69746749568421,171.55137119178613,108.13141221477868,138.815371764315,146.3790366025974,139.1834216668232,179.93439249275514,177.3710459997561
1.8691588785046729,90.11575080533012,183.09911170491552,102.797875351785,142.373113618603,148.78698717097174,141.58274685050105,178.22489222915846,174.43350878485316
1.902536715620828,94.48369431372838,193.2283410659041,97.37237575069987,144.7000380777027,151.01317175206833,143.98556022810706,176.7797914813452,171.61422058930026
1.9359145527369823,97.61993343448836,201.69020226180467,91.88252070018086,145.59710452996816,153.01963589421578,146.37083068146143,175.63911933716048,168.94373461541105
1.9692923898531367,99.34310358121952,208.2358382796704,86.35591748888545,144.86527236375397,154.76842514574267,148.71752709238442,174.84290488444938,166.45260406549917
2.0026702269692924,99.47184016753114,212.616392106554,80.82017340547121,142.30550096741462,156.2215850549776,151.00461834269623,174.431177211057,164.17138214187833
2.036048064085448,97.82477860703251,214.5830067295087,75.30289573859565,137.71874972930465,157.34116117024922,153.21107331421717,174.4439654048283,162.13062204686207
2.069425901201602,94.22055431333308,213.88682513558703,69.83169177691626,130.90597803777823,158.08919903988607,155.3158608887673,174.92129855360844,160.36087698276413
2.102803738317757,88.47780270004193,210.27899031184225,64.43416880909056,121.66814528118982,158.4277442122168,157.29794994816703,175.9032057452425,158.89270015189814
2.136181575433912,80.41515918076865,203.51064524532697,59.13793412377612,109.80621084789408,158.31884223557003,159.13630937423648,177.4297160675755,157.75664475657774
2.1695594125500666,69.85125916912257,193.3329329230945,53.97059500963044,95.12113412624532,157.7245386582743,160.80990804879588,179.5408586084525,156.98326399911662
2.2029372496662214,56.60473807871293,179.49699633219743,48.95975875531104,77.41387450459803,156.60687902865828,162.29771485366555,182.27666245571865,156.60311108182842
2.236315086782376,40.49423132314905,161.75397845968868,44.13303264947545,56.48539137130624,154.92790889505054,163.57869867066563,185.6771566972189,156.64673920702674
