Time,Left Shoulder Angle,Right Shoulder Angle,Left Elbow Angle,Right Elbow Angle,Left Hip Angle,Right Hip Angle,Left Knee Angle,Right Knee Angle
0.0,21.49998708072865,31.6737173342483,158.49202886131545,159.13701782629795,136.77697493227106,131.08578442888228,191.91149407179253,212.50110574874
0.0333667000333667,21.12129389338224,32.12985414059158,158.01841920709052,159.5034885260529,136.9823820422033,130.79403962123294,192.3280301410938,212.291053522168
0.0667334000667334,20.78142211778094,32.49845428993176,157.59158744000544,159.7917752297275,137.16226677789382,130.5413904745735,192.71613241695755,212.108567601293
0.1001001001001001,20.47921461915652,32.785262474206235,157.21022969307592,160.00757482588477,137.31756730578724,130.32592830890468,193.07746883051868,211.95216060243652
0.1334668001334668,20.21351426274075,32.99602338535245,156.8730420993176,160.15658420308748,137.4492217923282,130.1457444442273,193.4137073129121,211.8203451419203
0.1668335001668335,19.98316391376538,33.13648171530783,156.57872079174618,160.24450024989858,137.5581684039613,129.99893020054213,193.72651579527272,211.71163383606583
0.2002002002002002,19.787006437462185,33.212382156009795,156.3259619033773,160.27701985488096,137.6453453071313,129.88357689784996,194.01756220873537,211.6245393011948
0.2335669002335669,19.62388469906292,33.22946939939577,156.11346156722664,160.2598399065975,137.7116906682827,129.7977758561516,194.28851448443504,211.55757415362865
0.2669336002669336,19.49264156379934,33.19348813740318,155.93991591630987,160.19865729361118,137.75814265386023,129.73961839544776,194.5410405535065,211.5092510096892
0.3003003003003003,19.392119896903218,33.11018306196945,155.80402108364268,160.0991689044848,137.78563943030852,129.70719583573927,194.77680834708485,211.4780824856979
0.333667000333667,19.32116256360632,32.98529886503201,155.7044732022407,159.9670716277813,137.7951191640722,129.69859949702692,194.99748579630483,211.4625811979765
0.3670337003670337,19.2786124291404,32.824580238528284,155.63996840511965,159.80806235206356,137.78752002159587,129.71192069931146,195.20474083230133,211.4612597628465
0.4004004004004004,19.26331235873723,32.63377187439569,155.60920282529517,159.62783796589449,137.76378016932426,129.74525076259368,195.40024138620936,211.4726307966296
0.4337671004337671,19.274105217628563,32.418618464571665,155.61087259578292,159.43209535783697,137.72483777370195,129.7966810068744,195.5856553891637,211.4952069156473
0.4671338004671338,19.30983387104617,32.18486470099363,155.6436738495986,159.22653141645395,137.67163100117358,129.86430275215432,195.76265077229937,211.52750073622136
0.5005005005005005,19.36934118422181,31.93825527559901,155.70630271975784,159.01684303030825,137.60509801818384,129.9462073184343,195.93289546675115,211.56802487467328
0.5338672005338673,19.45147002238724,31.684534880325224,155.79745533927635,158.80872708796284,137.52617699117732,130.04048602571507,196.098057403654,211.6152919473247
0.5672339005672339,19.55506325077439,31.429448207109942,155.91582784117108,158.6078804779818,137.43580608659977,130.14523019399857,196.25980451414432,211.6678145704989
0.6006006006006006,19.731806470975144,31.280954531528494,156.00543143762033,158.5887586251034,137.34011681621217,130.20064214478185,196.33719293235407,211.7180664257837
0.6339673006339673,19.913404764005016,31.10736350705368,156.1212734304727,158.59391170598894,137.30431401929525,130.27519041739924,196.35375625908307,211.75652578330755
0.6673340006673341,20.14311046423155,31.01995148750888,156.33790474495748,158.8120128736141,137.2616394090921,130.36662656101387,196.4254697441276,211.80204568247703
0.7007007007007008,20.36908779164746,30.941377030758296,156.5855488356862,158.9171598106962,137.18186544136034,130.4776322809448,196.58658460437152,211.8562621102182
0.7340674007340674,20.51539425609053,30.86136247663153,156.71714286474813,158.90104015059677,137.08116635756932,130.60291629177516,196.8081252108039,211.9122420392793
0.7674341007674341,20.6594059581174,30.81035883664825,156.8786729719607,158.89344893209184,136.94277934045908,130.73335124700395,197.0976787226029,211.9576749299289
0.8008008008008008,20.80853301840921,30.7696924838284,157.0757635609564,158.88027022002518,136.77006671984162,130.87918894220266,197.4313482307348,211.99304232759093
0.8341675008341676,20.986888870356832,30.7419991288486,157.35670290624716,158.8673663741587,136.55467100532135,131.03374267971807,197.7994058980221,212.0211746004133
0.8675342008675342,21.21364026562605,30.720598026410062,157.66765724230245,158.68277143945025,136.34284372472916,131.2221735944171,198.14055943970263,212.0432519598889
0.9009009009009008,21.46794358480157,30.68493280274966,158.0758765302437,158.5546350100319,136.10654865841948,131.39612817998744,198.50857775291863,212.0678789308228
0.9342676009342676,21.71289493466772,30.66713167270976,158.5073127824002,158.4141226214359,135.90908297659405,131.56577243620077,198.82040873765325,212.0749983140709
0.9676343009676344,21.971974151368087,30.670325518703287,159.0510053495017,158.411713487494,135.6984949398597,131.72441308286724,199.1431488971744,212.074916968944
1.001001001001001,22.24882547766228,30.764331279307143,159.6797804135752,158.7167625079541,135.44395406899483,131.84389841323747,199.52383081461707,212.09223413719167
1.0343677010343677,22.524129651913555,30.88639757079845,160.41812061679246,159.23869761479378,135.13986229149614,131.940386757688,199.9624292556556,212.12147971384155
1.0677344010677343,22.847711314337992,31.004978613919736,161.26487799457402,159.85445378397668,134.84112281624832,131.9544183171034,200.36992865559645,212.1515870000296
1.1011011011011012,23.22902990096532,31.1040819184312,162.3020313808807,160.55979618997756,134.5104925204843,131.92033705995252,200.797279149482,212.17970573011232
1.1344678011344678,23.64528955918424,31.219491110313243,163.49876461456995,161.40404728863547,134.11516565349598,131.85697854720925,201.34549948180828,212.231323225572
1.1678345011678346,24.076185999622894,31.28756549160372,164.80024116830032,162.26518109171363,133.65213556502357,131.8147188765871,201.98493712820004,212.28035500269604
1.2012012012012012,24.468376926187496,31.343010295422445,165.9829251696152,163.1129332074026,133.09597250366554,131.79850341379648,202.70300558550213,212.3094873191751
1.234567901234568,24.88894050275143,31.351500676262265,167.26985321954248,164.06560280862016,132.48310802066925,131.80390974831957,203.45024107585897,212.3214333890936
1.267934601267935,25.29764175874021,31.31283257198575,168.63797054707817,165.09264478602995,131.8934155578648,131.81859935132223,204.2126692088098,212.31326287890968
1.3013013013013013,25.672766549392072,31.18241614736764,170.05799321446946,165.95371167441488,131.29672846631163,131.87960133292705,204.9632799557406,212.2998981122273
1.334668001334668,25.994908458013903,30.969510664247924,171.49244527789324,166.76015141439402,130.7915746681089,132.00312747145097,205.6199982331008,212.24762930083887
1.3680347013680347,26.27005672106452,30.660957203595565,172.92306947390665,167.46213000554954,130.3127880096488,132.1650379719926,206.21622561638617,212.17536632906416
1.4014014014014016,26.490631004877542,30.310841778106365,174.3294396896698,168.07299054954524,129.6949385337992,132.47479448818507,206.8460772324657,212.00265800941025
1.4347681014347682,26.64687830618264,29.85471336422429,175.69429205185813,168.49577328957042,129.1456743320807,132.7771969431621,207.44998771025973,211.8549016545364
1.4681348014681348,26.820244959791182,29.37380863340221,177.05719358318748,168.76467813764054,128.61205264266772,132.9867458906736,207.98593523851625,211.76747761442903
1.5015015015015016,26.97741372113008,28.837581627333066,178.38758250093915,168.9531118782938,128.0818759803314,133.14732652618392,208.4472039001276,211.71263904717893
1.5348682015348682,27.125555625952945,28.29751492755957,179.61444651207012,169.03244191657194,127.62670103807538,133.2856247609018,208.68947801263545,211.64111372232372
1.5682349015682349,27.188921549969795,27.69162268501916,180.74820710728625,169.0077176494286,127.21230295747056,133.42301015488152,208.85054163200263,211.5596911207425
1.6016016016016017,27.21254856215055,27.082745094935937,181.72561205572683,168.85718492539672,126.78276652056974,133.5361058350962,209.02672437197552,211.4712468426472
1.6349683016349683,27.252866452373468,26.38962977730076,182.5636840344769,168.6112391884018,126.35849999675976,133.657523653613,209.18563443014068,211.3780430266797
1.6683350016683351,27.26107028846326,25.736759919542703,183.28345352975728,168.36139273602225,125.98998057965876,133.7520284515287,209.2733083326372,211.28992033614165
1.7017017017017018,27.27354714348062,25.024289773011134,184.0819232000349,168.14960532002803,125.65002477903376,133.8709614101189,209.31087484032253,211.21344834689003
1.7350684017350684,27.34572035874643,24.30945530580696,184.8794763773317,167.96263172694407,125.376416639347,133.9855765382459,209.23429875380327,211.164525948973
1.7684351017684352,27.332662851380423,23.540078874477764,185.63830599547825,167.74245902351728,125.05002257266094,134.1233438625424,209.2732618658944,211.15428835654052
1.8018018018018016,27.262809497410668,22.64884833304949,186.27479451640696,167.73283318180452,124.71195204971036,134.24456965111526,209.39249786008543,211.17807606548843
1.8351685018351689,27.046763372173025,21.517947133210228,186.7144446382096,167.39690035457244,124.35357030243148,134.40011975889308,209.5492098278042,211.204888984541
1.8685352018685355,26.70318454709919,20.28293656025344,186.74336241946912,166.72666930323183,124.00153236633336,134.5810183936904,209.7239885189067,211.2657640829675
1.901901901901902,26.308181192966167,19.002671820117733,186.8086111054088,165.8881755755277,123.63132898374802,134.8086870407638,209.92845923836404,211.33248797564983
1.9352686019352687,25.83645075860447,17.642064018342438,186.73829521128408,165.04834615644324,123.28045372438064,135.10088360995664,210.1496537709466,211.39789390092383
1.968635301968636,25.27209494826944,16.302410899181,186.6595442341748,164.07771885340475,122.94274177803328,135.43173053989275,210.38641463596016,211.45151957259048
2.002002002002002,24.68237488298197,15.006855471342828,186.44169960906652,162.88172054090762,122.60242297208876,135.77483964844754,210.66323696630732,211.49944436491683
2.035368702035369,23.990489092035343,13.7702937263533,186.3013189156181,161.73076118217782,122.23690934964732,136.09771579019187,211.00222091674848,211.5321444969496
2.0687354020687354,23.329320474134093,12.28118848475338,186.1827823795834,160.77942729783655,121.81660429543577,136.3336547630989,211.382443727724,211.58008399077
2.1021021021021022,22.602513860352484,10.897342339533353,186.19040711570173,159.97793174761668,121.31942773194493,136.52064400990568,211.89432091504247,211.63728341144247
2.135468802135469,21.581091164210555,9.616977674351334,185.9405099226673,159.0424676771291,120.7402905300661,136.70698034565655,212.488892053068,211.6624480478374
2.1688355021688355,20.45932867414829,8.549497124180869,185.7978378300696,157.87817718179534,120.17630212531436,136.91940946907485,213.1057766330767,211.6501024156292
2.2022022022022023,19.09710836732066,7.609626184224516,185.7510558155266,156.64750690033367,119.63643807985852,137.1341546853573,213.7288818885981,211.61223937314344
2.235568902235569,17.69134704316535,6.892513821747913,185.9342137221549,155.4523787515394,119.06880480674468,137.41890860318176,214.45550154282125,211.56474948143435
2.2689356022689355,16.129526057766416,6.354096359324829,186.0012590807919,154.05671625379628,118.45837913670093,137.7566942009683,215.2786666502085,211.5038524711717
2.3023023023023024,14.652343474776822,6.096972523986341,186.20866640068064,152.64682892774653,117.89063116620426,138.16375493165134,216.0511354560645,211.388417099064
2.335669002335669,13.107864979805704,6.096972523986341,188.71116929476705,154.44684870304943,117.39880251674217,138.61631498718083,216.7515774100297,211.2213999078301
2.369035702369036,11.763938290036624,6.096972523986341,190.7852791457243,155.33141203396258,117.07091841857364,139.10501296804995,217.3468696834684,211.0135452010776
2.4024024024024024,10.555849360839009,6.096972523986341,192.521265168916,155.3000841114976,116.90658374464984,139.62921892576628,217.8347905127191,210.76656880453663
2.4357691024357693,9.599718415113417,6.096972523986341,193.648756441077,154.38287249441495,116.85710221501138,140.19343310795338,218.19790268755943,210.48161050006115
2.469135802469136,8.746030331109068,6.096972523986341,194.4498991514135,150.75655846645077,116.95328958610298,140.7791451828025,218.4406205316019,210.14808558665723
2.5025025025025025,8.204369243773268,6.096972523986341,194.72507030192892,144.76063136252856,117.06514020745384,141.35388777355556,218.6563555265027,209.8033787348816
2.5358692025358693,7.876210836886598,6.096972523986341,194.58465873304235,142.70561550612973,117.26286609721416,141.9342114065897,218.7489193113204,209.42946477619856
2.569235902569236,7.876210836886598,6.096972523986341,193.9755960404636,140.4212258933501,117.69664419082056,142.34563716046165,218.68651676228623,209.14993605137727
2.6026026026026026,7.876210836886598,6.096972523986341,192.6269421337364,138.73560908408652,118.18777337109933,142.70040224355438,218.48676485384524,208.8706408795788
2.6359693026359694,7.876210836886598,6.096972523986341,190.8718927808577,136.7741324950266,118.75997416552872,143.08577092083203,218.18884619490143,208.55186283245243
2.669336002669336,7.876210836886598,6.096972523986341,188.67266990476435,135.15432367926576,119.3633141139178,143.41754200274406,217.79969945524616,208.23900022094705
2.702702702702702,7.898581298645721,6.096972523986341,186.3380237585696,133.2221058135832,119.94377705741095,143.70515331692908,217.48762790366945,207.96151878575995
2.736069402736069,7.929724044317114,6.096972523986341,183.78110265396327,131.14888395189348,120.50951004476777,143.9184090144915,217.23034674471683,207.7411302549418
2.7694361027694363,8.298712177968246,6.096972523986341,181.15188116745435,128.73471468186733,121.11397190301574,144.10466588985983,216.9346868268471,207.56473881167528
2.802802802802803,-0.0349059524254629,6.096972523986341,178.58350451836594,126.13481527209451,121.75263277484916,144.23757410363578,216.59633360848915,207.42467499635868
2.836169502836169,-5.110251343843586,6.096972523986341,175.9223294829114,123.22558921203895,122.36063456715333,144.35575767097734,216.29150260657065,207.318956905586
2.8695362028695364,-6.883166998685423,6.096972523986341,173.29814591387435,120.10531687931524,122.99221514770554,144.45183929839715,215.9438973312933,207.23784174405188
2.902902902902903,-5.920030874402866,6.096972523986341,170.52351754647148,116.80278678552204,123.58639888112664,144.5436797760305,215.6756223411643,207.1755684397639
2.9362696029362696,-2.2861527894357083,6.096972523986341,167.65018665221518,113.36624744933648,124.19476718619502,144.63215348255605,215.4212511528748,207.1244673089124
2.9696363029696364,3.66132710520138,6.096972523986341,164.69470126110232,109.54434929636568,124.74000428019744,144.75326779732052,215.2636631592541,207.0834489772536
3.003003003003004,3.66132710520138,6.096972523986341,161.63808954016164,105.40318347498588,125.23324571580626,144.89708983138613,215.18657659867748,207.06637077530257
3.0363697030363697,3.66132710520138,6.096972523986341,158.77665258970086,101.3399439775696,125.6678810022086,145.0623151484539,215.1814338236526,207.02569931976103
3.0697364030697365,3.66132710520138,6.096972523986341,155.81125266205214,97.4946008976954,126.02336158354524,145.21963540325504,215.2429915776557,206.9801284795873
3.103103103103104,3.66132710520138,6.096972523986341,153.16077314236736,93.65219673367028,126.27027245237234,145.33957738393238,215.39814609312063,206.9324721699313
3.1364698031364697,3.66132710520138,6.096972523986341,150.83435406622803,89.94266198154668,126.37695344668307,145.39716177834086,215.65468682580047,206.903943595168
3.169836503169837,3.66132710520138,6.096972523986341,148.8948790758486,86.5020997076554,126.40927091651795,145.43485656278938,215.9588919629586,206.86855998197507
3.2032032032032034,3.66132710520138,6.096972523986341,147.31482540240884,83.38855807173286,126.3851370848306,145.43778460003622,216.292002047278,206.8359096444911
3.2365699032365702,3.66132710520138,6.096972523986341,146.0714409573253,80.3937799497913,126.36885861157566,145.50957066652478,216.65509364266097,206.7568759243956
3.2699366032699366,3.66132710520138,6.096972523986341,145.4473850693715,77.64595987608381,126.36350372810242,145.6283859341442,217.0467655950113,206.65062664697132
3.3033033033033035,3.66132710520138,6.096972523986341,145.3952973769169,75.40843125142726,126.42984881699724,145.75574434919457,217.4562490906617,206.5563812279632
3.3366700033366703,3.66132710520138,6.096972523986341,145.80050894974036,73.69065625111882,126.48919406487089,145.89555747721792,217.85025243169932,206.45915631489123
3.3700367033700367,3.66132710520138,6.096972523986341,146.5998601122583,72.44930796260932,126.52951783349336,146.05692837367408,218.2351798745952,206.34388972967028
3.4034034034034035,3.66132710520138,6.096972523986341,148.12354465128368,71.75154351101625,126.51482083838884,146.23665335374585,218.6273333273353,206.2081275484805
3.4367701034367704,3.66132710520138,6.096972523986341,150.4995870025244,71.9549540929883,126.5388971168982,146.4444642342652,218.99300138744408,206.0511114493033
3.4701368034701368,3.66132710520138,6.096972523986341,153.66176241026105,73.15056550992317,126.56470151998698,146.6377522230942,219.35638825636264,205.8918600723863
3.503503503503504,3.66132710520138,6.096972523986341,154.62625877704588,70.9347196033915,126.6380547602523,146.84304805707032,219.7193959728224,205.7203316728192
3.5368702035368704,3.66132710520138,6.096972523986341,155.31802003831146,68.27691899847564,126.79207796509434,147.0432036163633,220.02627433318443,205.55113027056808
3.5702369035702373,3.66132710520138,6.096972523986341,155.3447369967101,65.34990338761779,126.97571755069109,147.25381956768055,220.29393617428585,205.36062421224173
3.603603603603604,3.66132710520138,6.096972523986341,155.893590285314,62.660089157995465,127.19644001643655,147.50827939899335,220.5461431698693,205.09604313820165
3.6369703036369705,3.66132710520138,6.096972523986341,156.0745852049844,62.483919664275184,127.42231172394597,147.79721712710105,220.77077774619244,204.78988791932352
3.670337003670337,3.66132710520138,6.096972523986341,156.22755943990646,65.74348758412306,127.6439035172202,148.1786015624067,220.9491943899504,204.3679556749132
3.703703703703704,3.66132710520138,6.096972523986341,156.17000934526718,66.19424837400513,127.80874296194744,148.54235939658506,221.16794367212705,203.9648238992229
3.737070403737071,3.66132710520138,6.096972523986341,156.62179863119565,67.41806470255015,127.97411006774882,148.9173380111672,221.34059388615336,203.58776348188977
3.770437103770437,3.66132710520138,6.096972523986341,157.2752987976315,67.41592784911754,128.08382612978895,149.19898707151418,221.5055219138665,203.3026665829952
3.803803803803804,11.736022936162415,6.096972523986341,157.4353847516213,67.49203503512706,128.12702922623075,149.42607279315362,221.66229450372384,203.00943892003392
3.8371705038371706,21.56697484538492,6.096972523986341,155.50617016564848,66.87645836859936,128.16241205795518,149.60007910079818,221.7972569057244,202.77913751426155
3.8705372038705375,33.13144007746108,6.096972523986341,154.11815441331422,65.78946149860629,128.1115156330205,149.5108614430316,222.0102964201521,202.6979946890043
3.903903903903904,46.06875305792093,6.096972523986341,153.28170315538705,64.9077582450115,128.0058778646482,149.34049504506504,222.2437443204968,202.69857310251348
3.937270603937271,60.22343243583039,6.096972523986341,153.69789110168645,62.735564321766496,127.76089969121924,149.0070754739609,222.5709534242438,202.8367614383596
