Time,Left Shoulder Angle,Right Shoulder Angle,Left Elbow Angle,Right Elbow Angle,Left Hip Angle,Right Hip Angle,Left Knee Angle,Right Knee Angle
0.0,24.080099783935022,8.571782577123647,175.51245266139304,212.65982931300675,225.97662006064263,200.18114588663465,166.84350848962728,171.67211518127274
0.0333667000333667,27.98601860801178,3.012454394596607,165.92922418353626,205.3618392656388,224.94382090604955,199.6656850086385,167.6569012300007,171.01058868037515
0.0667334000667334,31.25068223939192,-0.8768280504147672,157.1876436362892,199.72653839462805,224.21176163860207,199.05521835582005,168.2251112929819,170.6361501491332
0.1001001001001001,33.91348034467386,-3.2247739026265467,149.26305788201432,195.6328911744056,223.75257779304675,198.3607661931475,168.5676126231293,170.5220798470842
0.1334668001334668,36.01380259045601,-4.160092306754795,142.13081378307402,192.95986207940223,223.5384049041301,197.59334878558897,168.70387916500135,170.64165803376548
0.1668335001668335,37.59103864333679,-3.811492407515585,135.76625820183074,191.5864155840492,223.54137850659865,196.7639863981126,168.6533848631565,170.96816496871438
0.2002002002002002,38.684578169914616,-2.307683349624986,130.144738000647,191.39151616277744,223.73363413519888,195.88369929568643,168.43560366215317,171.47488091146823
0.2335669002335669,39.3338108367879,0.2226257222009398,125.2416000418852,192.254128290018,224.0873073246773,194.9635077432788,168.07000950654975,172.13508612156434
0.2669336002669336,39.57812631055506,0.2226257222009398,121.03219118790778,194.05321644020177,224.57453360978056,194.0144320058576,167.5760763409047,172.92206085854008
0.3003003003003003,39.4569142578145,0.2226257222009398,117.49185830107724,196.6677450877599,225.16744852525505,193.04749234839107,166.9732781097765,173.80908538193273
0.333667000333667,39.00956434516466,0.2226257222009398,114.59594824375594,199.97667870712337,225.8381876058473,192.07370903584737,166.28108875772347,174.76943995127962
0.3670337003670337,38.27546623920393,0.2226257222009398,112.31980787830642,203.8589817727232,226.55888638630395,191.1041023331946,165.51898222930413,175.77640482611812
0.4004004004004004,37.294009606530736,0.2226257222009398,110.63878406709108,208.1936187589904,227.30168040137133,190.1496925054009,164.7064324690769,176.80326026598556
0.4337671004337671,36.1045841137435,0.2226257222009398,109.52822367247238,212.8595541403559,228.0387051857961,189.2214998174344,163.86291342160015,177.8232865304192
0.4671338004671338,34.74657942744063,0.2226257222009398,108.96347355681276,217.73575239125088,228.74209627432472,188.3305445342632,163.0078990314324,178.80976387895643
0.5005005005005005,33.25938521422053,0.2226257222009398,108.9198805824747,222.70117798610625,229.3839892017037,187.48784692085547,162.160863243132,179.73597257113457
0.5338672005338673,31.682391140681634,0.2226257222009398,109.37279161182062,227.63479539935292,229.93651950267963,186.7044272421793,161.34128000125747,180.5751928664909
0.5672339005672339,30.0549868734226,0.2226257222009398,110.29755350721386,232.4155691054241,230.3718227120009,185.9913057632045,160.5686232503684,181.3007050245644
0.6006006006006006,28.53714646160677,0.2226257222009398,111.1051796049745,233.747305776308,230.3431600464155,185.17611178044783,160.3872493676597,181.50844372798608
0.6339673006339673,26.75222852833766,0.2226257222009398,113.04799288006988,238.53350938407465,229.90391107109247,184.84353565315425,160.42710240090975,181.4411138012368
0.6673340006673341,24.67914261167728,0.2226257222009398,116.44446199318976,245.2517055898101,229.34970661396807,184.9546790543384,160.46264444198965,181.2395278189338
0.7007007007007008,23.165544058862,3.6507256632461047,122.6557772063811,249.193472309942,228.56143070777216,184.99223753790216,160.525100177804,180.8486603967398
0.7340674007340674,21.863441299046897,7.847907328794462,129.58984152045494,246.0179509377785,227.43472440192247,185.2974634935086,160.69191503330336,180.19730719888443
0.7674341007674341,22.00845729550884,12.685461574129928,137.20197875326784,242.33644378456827,226.0330463774565,185.58859675343268,160.87960167657744,179.4426009666404
0.8008008008008008,22.4029246706741,18.03467925453645,141.73424795534734,243.80443423208544,224.3938763930036,185.9190137267248,161.09352080862024,178.2916202404198
0.8341675008341676,22.57123309918008,23.76685122529794,144.9494781542552,243.90592766994885,222.48354372967216,186.4303325537055,161.2926455143881,176.79453374452984
0.8675342008675342,17.440094599504,29.753268341698337,144.3479735768028,239.6066543794862,220.33500093756527,186.95743870389907,161.43234832739685,175.0958793135209
0.9009009009009008,16.450915926222837,35.86522145902158,138.78964200466908,230.70251695000985,218.02354562820463,187.3742958014895,161.5135254814979,173.1937218012851
0.9342676009342676,17.510234966206742,41.97400143255159,135.8406926064222,221.7743288682064,215.68152979216543,187.7658959224652,161.62148948550993,171.08268520109098
0.9676343009676344,20.34848290971937,47.95089911757229,132.39158291612313,211.970411615384,213.3233925440018,188.23774520269416,161.7194885740844,168.799212154552
1.001001001001001,23.730362371601448,53.667205369367856,130.75306013866472,202.04529830313567,210.9844173178773,188.7461163237123,161.79396714618375,166.4244141053461
1.0343677010343677,27.926075767596576,56.06975938669095,130.79142291696834,194.2198067230867,208.6920743005128,189.2104133299952,161.81744211203772,164.02628085411328
1.0677344010677343,32.67811078100547,57.60503019902739,132.16853559579226,187.8901581314496,206.44461683494288,189.6219683957933,161.77603700546,161.67836711346783
1.1011011011011012,37.67327126747398,58.9309838499147,134.9873156491351,184.66226836439995,204.2187092197211,190.01224753718068,161.71440651164093,159.40088473981032
1.1344678011344678,43.16517287251592,60.49190836806826,138.0008660467538,169.35956718293224,202.02438383179884,190.24059392557623,161.64897618491423,157.1912589067625
1.1678345011678346,49.11979348768672,62.23895830829681,141.29499971139316,151.7894443667294,199.90894427056708,190.41193810578585,161.5869266121723,155.04867368410422
1.2012012012012012,55.16987343922546,63.306163181609286,144.92798001664778,147.08424258041592,197.9243011789966,190.51924771070355,161.5304110287041,153.0794302604338
1.234567901234568,61.53320959485395,63.65619461748654,149.24662033919697,127.87659343567007,196.07111164337527,190.5448037244402,161.4563879469286,151.3644620911599
1.267934601267935,67.72406872367807,62.91338419241204,154.82098955795382,122.01078016331375,194.3777812555066,190.53993726556988,161.342391689668,149.83296404547366
1.3013013013013013,74.02665250019854,58.885511388063904,161.46924435723477,117.6534594744505,192.85223876819035,190.57591608826425,161.2061527878526,148.4773578322146
1.334668001334668,80.17918941414855,51.7202551998659,168.00204136739342,114.95139124645036,191.472463284422,190.60399518692563,161.1077293381612,147.31217400884125
1.3680347013680347,86.08616368717429,46.19470817750175,175.24154091870793,114.09719719345696,190.3380305767242,190.54777457379515,160.95898643454768,146.38008861142936
1.4014014014014016,91.60258758073832,42.92246698623845,182.58969441342367,115.44285194908572,189.4103405782073,190.24122234078072,160.802369651325,145.8366579718652
1.4347681014347682,97.9041334516988,40.37776799085468,191.00057586664667,117.69740065454388,189.1727003707693,189.47886296121385,160.25120611421784,145.8380424382225
1.4681348014681348,103.81132393962343,38.63560587529704,199.6916696566121,120.703330222764,189.0322861912271,188.6795195181116,159.7365174783511,145.98745457779978
1.5015015015015016,109.22528369454764,37.37348618778452,208.5897965447785,124.34642168164186,188.96274570818656,187.8631800140976,159.27938936852976,146.26520289840045
1.5348682015348682,114.04713736650731,36.736575959502446,217.6217772926053,128.51245605907474,188.9377265902552,187.0498324517973,158.90090740956012,146.65159590782915
1.5682349015682349,118.17800960553852,36.700712938129634,226.7144326615524,133.08721438295964,188.93087650604053,186.25946483383595,158.62215722624848,147.1269421138906
1.6016016016016017,121.5190250616773,37.76465193904925,235.7945834130792,137.9564776811941,188.9158431241501,185.5120651628389,158.46422444340115,147.67155002438946
1.6349683016349683,123.97130838495944,40.02027796535274,244.7890503086452,143.0060269816751,188.8662741131914,184.82762144143143,158.4481946858244,148.26572814713046
1.6683350016683351,125.43598422542108,43.32950030054196,253.6246541097101,148.12164331229965,188.755817141772,184.2261216722389,158.59515357832458,148.88978498991818
1.7017017017017018,125.81417723309806,47.52983150219554,262.2282155777335,153.18910770096525,188.55811987849933,183.72755385788653,158.92618674570795,149.52402906055735
1.7350684017350684,125.00701205802652,52.60590400978073,270.52655547417504,158.09420117556908,188.2468299919809,183.3519060009997,159.46237981278082,150.1487688668527
1.7684351017684352,122.91561335024228,58.66151560229256,278.44649456049416,162.72270476400814,187.79559515082445,183.1191661042037,160.22481840434946,150.7443129166088
1.8018018018018016,119.4411057597814,65.55017808896426,285.9148535981505,166.96039949417968,187.1780630236372,183.0493221701239,161.23458814522024,151.29096971763045
1.8351685018351689,114.48461393667984,73.23538112417533,292.85845334860363,170.69306639398096,186.36788127902685,183.16236220138552,162.5127746601994,151.76904777772225
1.8685352018685355,107.94726253097352,82.86756620476149,299.2041145733133,173.80648649130913,185.33869758560087,183.4782742006139,164.08046357409324,152.15885560468888
1.901901901901902,99.73017619269852,92.4118951365176,304.8786580337388,176.18644081406137,184.0641596119668,184.0170461704344,165.9587405117081,152.4407017063351
1.9352686019352687,89.73447957189074,101.6675105915131,309.8089044913399,177.7187103901349,182.51791502673208,184.79866611347225,168.16869109785023,152.59489459046551
1.968635301968636,77.8612973185862,110.43355524181796,313.92167470757624,178.28907624742692,180.67361149850427,185.8431220323528,170.73140095732597,152.60174276488482
