Time,Left Shoulder Angle,Right Shoulder Angle,Left Elbow Angle,Right Elbow Angle,Left Hip Angle,Right Hip Angle,Left Knee Angle,Right Knee Angle
0.0,12.151856910657644,35.5199073463274,168.94078831753103,164.9713749415454,145.0059217050606,148.34206228313414,196.17624730121696,189.8450270021262
0.0333667000333667,9.883350945164011,35.01093920996995,162.8384576283618,164.1098743312896,146.01988222283325,148.7098442502098,195.70556153855105,189.5332207658995
0.0667334000667334,8.147828517764184,34.585916883002234,157.6454836207641,163.38255925972356,146.9354448816368,149.0405298186474,195.2153093798211,189.2507957452144
0.1001001001001001,6.912808584327302,34.239932322317856,153.3138873671802,162.78080479446703,147.75641695706426,149.33510216576246,194.7074500325696,188.9957177489854
0.1334668001334668,6.145810100722507,33.96807748481037,149.7956899400523,162.29598600313966,148.4866057247085,149.59454446887045,194.18394270433885,188.7659525861272
0.1668335001668335,5.81435202281894,33.76544432737337,147.04291241182267,161.9194779533612,149.1298184601625,149.81983990528698,193.64674660267147,188.55946606555423
0.2002002002002002,5.81435202281894,33.62712480690045,145.00757585493355,161.64265571275135,149.6898624390192,150.01197165232753,193.09782093510984,188.3742239961812
0.2335669002335669,5.81435202281894,33.54821088028516,143.64170134182714,161.4568943489298,150.1705449368715,150.17192288730766,192.53912490919643,188.20819218692264
0.2669336002669336,5.81435202281894,33.5237945044211,142.8973099449457,161.3535689295163,150.57567322931232,150.30067678754284,191.97261773247365,188.05933644669307
0.3003003003003003,5.81435202281894,33.54896763620184,142.72642273673148,161.32405452213052,150.90905459193465,150.39921653034867,191.400258612484,187.9256225844071
0.333667000333667,5.81435202281894,33.61882223252096,143.0810607896267,161.3597261943922,151.17449630033138,150.46852529304064,190.82400675677,187.80501640897936
0.3670337003670337,5.81435202281894,33.728450250272054,143.9132451760736,161.45195901392103,151.37580563009547,150.5095862529343,190.24582137287388,187.6954837293244
0.4004004004004004,5.81435202281894,33.87294364634869,145.1749969685144,161.59212804833672,151.51678985681986,150.52338258734514,189.66766166833827,187.5949903543568
0.4337671004337671,5.81435202281894,34.047394377644444,146.81833723939138,161.771608365259,151.60125625609749,150.51089747358873,189.0914868507056,187.5015020929912
0.4671338004671338,5.81435202281894,34.24689440105291,148.79528706114678,161.98177503230755,151.63301210352125,150.47311408898057,188.51925612751828,187.412984754142
0.5005005005005005,5.81435202281894,34.466535673467654,151.05786750622278,162.2140031171021,151.61586467468413,150.41101561083622,187.9529287063188,187.32740414672384
0.5338672005338673,5.81435202281894,34.70141015178227,153.55809964706168,162.45966768726234,151.55362124517904,150.32558521647118,187.3944637946496,187.24272607965145
0.5672339005672339,5.81435202281894,34.9466097928906,156.248004556107,162.71014381040936,151.4500890906001,150.21780608320228,186.84582060005465,187.1569163618408
0.6006006006006006,5.81435202281894,35.150641317559284,157.92898283461858,162.72020892446784,151.02774406308427,149.94741911838076,186.3861532245668,187.0091176537048
0.6339673006339673,5.81435202281894,35.35369494295112,160.37580588426982,162.77418886943232,150.89960972565723,149.73205147361782,185.8586037820696,186.85588632666023
0.6673340006673341,5.81435202281894,35.56773023110871,162.9353032613083,162.86311944321213,150.82615198715325,149.50756227147335,185.32070652299177,186.7250663761477
0.7007007007007008,5.81435202281894,35.80588213329285,165.75007388138238,162.95937775987764,150.75968277092394,149.21093140164757,184.8153818570719,186.64735421718007
0.7340674007340674,5.81435202281894,36.0185662223114,168.6042660104618,163.10405406028372,150.59741393549612,149.01314649256938,184.3556434394952,186.51237644952616
0.7674341007674341,5.81435202281894,36.25735114686055,171.50204085011327,163.3735851022259,150.43114222477809,148.8517836168259,183.87844413751893,186.3874306967464
0.8008008008008008,5.81435202281894,36.400179531792446,174.16545989186864,163.4692324025302,150.1388092619422,148.68581434728574,183.44023234379057,186.2513673721612
0.8341675008341676,5.81435202281894,36.5816925353323,176.76287717889417,163.61537756060594,149.81134040937914,148.54283492829833,182.95887509668165,186.07166738950983
0.8675342008675342,5.8859533064857406,36.76721414485366,178.944253486876,163.71273891077763,149.64006439200318,148.355311719054,182.41731514419297,185.8956286095704
0.9009009009009008,6.328132907592052,36.96200610105785,181.0946572719766,163.80378714641137,149.5392189662169,148.12983997040425,181.87707837252952,185.70988399365464
0.9342676009342676,7.108409782007014,37.08666206614251,182.8637184170778,163.79801169155726,149.4075590464246,147.92634002048166,181.41083038468847,185.5101870555877
0.9676343009676344,8.194302885599765,37.20373883652051,184.48829596614132,163.8257366950365,149.2481338591897,147.75028365621642,181.00183098430708,185.3077007563633
1.001001001001001,9.55333117423945,37.26637275664484,185.79391526000032,163.74919209248313,148.9648794824261,147.58628889629838,180.72854293239544,185.090318218932
1.0343677010343677,11.153013603795207,37.33208217283116,186.5895369650892,163.59584988775453,148.63195091467134,147.41501103417673,180.5341823765017,184.8630660380641
1.0677344010677343,12.960869130136183,37.3468351035638,187.0969020850734,163.2491475182851,148.2562814445898,147.22733868794802,180.3567717690948,184.66287327836932
1.1011011011011012,14.944416709131511,37.37076547186948,186.76940672185168,163.0192557144903,147.7998381574694,147.05000319655855,180.32113773709327,184.4635768873441
1.1344678011344678,17.071175296650335,37.39587867509524,186.8819951058438,162.86349466718826,147.31912585914242,146.9458973147779,180.34426967461823,184.23258563070007
1.1678345011678346,19.3086638485618,37.46764767624983,186.8475704345809,162.80714703910814,146.7683989271828,146.8397624444315,180.51483337632268,183.9893776621068
1.2012012012012012,21.62440132073504,37.37045128082364,186.4371129905481,162.56898595743803,146.13560397192344,146.82458997295953,180.8097653648314,183.7031044773177
1.234567901234568,23.98590666903936,37.179886081656925,184.07220925613856,162.46075306731063,145.52693806056752,146.8637299046264,181.065911037908,183.39516903131943
1.267934601267935,26.7147826178394,36.807459336767614,188.7981415606428,162.07859373280888,144.84279590681496,146.96601786226677,181.3470920051153,183.0708937472576
1.3013013013013013,28.453520376906045,36.34607928545408,192.40019688198305,161.43621617826753,144.10647570345603,147.124963010977,181.81692367793852,182.74936391220547
1.334668001334668,30.22855895505743,35.73082461459147,194.92337205081887,160.48650051088552,143.30011978478865,147.37163793151984,182.44897134571107,182.45445425595577
1.3680347013680347,31.971704145590603,35.029350959100135,196.2818097037413,159.44521499455627,142.5712764246555,147.71021404015403,183.15413266617708,182.16831999343947
1.4014014014014016,33.74857831870822,34.09189035969846,196.8961553240977,158.05069146655396,141.77686409992972,148.08286006080593,183.96490511219503,181.94095112410787
1.4347681014347682,35.42400857660481,32.85916966261743,196.45554761885364,156.7040954149776,140.9707547379357,148.50153931206864,184.81800856597576,181.769472614566
1.4681348014681348,37.098416458795775,31.47501466068785,195.1924924405764,154.9949780597926,140.08211337881153,148.90159764902296,185.7887995911824,181.6640908480076
1.5015015015015016,38.65038516159362,30.0723806411815,192.9859583419126,153.11482619701124,139.13235954455948,149.32386469182393,186.89573357120813,181.60300826672065
1.5348682015348682,39.93926392907009,28.54695946443422,190.1186869071008,150.82480544731436,138.11567696602188,149.76124637831776,188.0871719689201,181.4290478694013
1.5682349015682349,40.96813537731844,26.923114470528844,186.6218215350069,148.37490797099747,137.01857680966492,150.19163179248423,189.40330378706955,181.20649689842105
1.6016016016016017,41.61776183893101,25.176427646546067,182.5669969890373,145.485152561195,135.87922859304328,150.63823658021883,190.78236744803,180.9579755956618
1.6349683016349683,42.07951730622726,23.177899258101963,178.53428987597064,142.29167618218128,134.73648211418873,151.09880619351597,192.1836822880559,180.70970044508863
1.6683350016683351,42.6589586397405,21.10760342379772,174.20716722540516,138.7564592462131,133.62886633392648,151.5132609790484,193.5872104056834,180.5172821007816
1.7017017017017018,43.04219303647806,18.565518123693217,169.44288621048386,135.2624834383223,132.55018147573475,151.92469867218807,194.95675113698985,180.3771163455013
1.7350684017350684,43.43811499805015,15.990081190259064,164.28826721489125,131.5618832016077,131.4519671063343,152.3810784140326,196.31635994840727,180.26255967452795
1.7684351017684352,43.61122132400909,13.93444438096282,158.91834577928458,129.62127525884137,130.35931058238123,152.81138519916797,197.68027158843407,180.1504489562343
1.8018018018018016,43.92493172497754,12.22193269654866,153.78633665363722,126.8396360072699,129.30687554562445,153.1630097320497,199.0078408817916,180.0897604823253
1.8351685018351689,44.15980254247506,10.69722948119613,148.58850589392245,123.4487598308404,128.38103899811904,153.44120132153802,200.208063054217,180.08689751672625
1.8685352018685355,44.05642383080348,9.41876423125018,143.30943898266472,119.4233535790462,127.54517518116164,153.6949225496629,201.3210882648797,180.0988630427687
1.901901901901902,43.806592920585146,8.312014887535048,138.2211483673377,114.64622925148984,126.83507747591416,153.8890261853385,202.31291563526625,180.13479535146823
1.9352686019352687,43.690602090487936,7.43391054121258,133.33642010563415,109.38275912798936,126.22579149622086,154.073323558445,203.20785312372303,180.1262933713003
1.968635301968636,43.51251836385509,6.838520640310372,128.91063360051032,103.8346415684354,125.7196916293824,154.2160561166534,203.99119264862208,180.1150700542434
2.002002002002002,43.243456695838965,6.5059361985567286,124.760877561628,97.964816502998,125.24523757907444,154.30228954910436,204.7917982616945,180.129632275556
2.035368702035369,42.98374676304977,6.420080837314109,120.76212163970987,91.75447469370955,124.85923373526064,154.32797199320677,205.54356036306012,180.17148833164256
2.0687354020687354,42.75968880996127,6.420080837314109,116.94232594789122,85.41445490192432,124.49108272938676,154.31517254021114,206.2873246507276,180.2388601203274
2.1021021021021022,42.59564721329345,6.420080837314109,113.49864530132764,79.2560440191906,124.15976365637606,154.23956272728435,207.0368013202973,180.31543913675
2.135468802135469,42.33512774782002,6.420080837314109,110.40374913144709,73.13850365647184,123.83844222437118,154.10762440235675,207.82174375328896,180.38957745559972
2.1688355021688355,41.96546854966701,6.420080837314109,107.576346746674,67.08976882061346,123.61863416759228,153.93397993393836,208.51350038600012,180.45278431104308
2.2022022022022023,41.32142308628912,6.557389413404607,105.3030560342986,61.24599646940022,123.42513267288798,153.75482983060482,209.18765932997167,180.50553626977123
2.235568902235569,40.38885525293428,6.908575405366979,103.46471945387304,55.73363382153753,123.28549653181508,153.55648955517464,209.7914676032475,180.54869543084203
2.2689356022689355,39.115675207440006,7.4619793085090995,102.86904067693634,50.32882155877403,123.16826315059036,153.3392934713385,210.31952436723176,180.5837727430041
2.3023023023023024,37.508081382308426,8.212376863242968,103.4318940108864,45.29643600604575,123.09953435203992,153.0919009538171,210.7405989368645,180.61164747269063
2.335669002335669,35.717090926139946,9.122131128606654,105.43168726282438,40.55940717132746,123.12373215332872,152.88084932975042,210.99535862950145,180.62458281748783
2.369035702369036,33.36990570225392,10.204359987375229,108.71645199937583,36.299883442219965,123.21769678844451,152.6733633726972,211.103749920797,180.62352531106097
2.4024024024024024,30.937476303335423,11.39369994599926,115.7457153722785,32.26801671034796,123.2718217909218,152.49604793662155,211.318694842261,180.60542807513733
2.4357691024357693,28.512034528111435,12.76891093974504,116.8269131235264,28.75173127995245,123.33601380156816,152.34297676776444,211.590504574307,180.5814195416188
2.469135802469136,26.292085246645527,14.19912769150102,117.69277655239698,25.73910147361713,123.48329333443056,152.2194580080772,211.76128260535324,180.551096610905
2.5025025025025025,24.05486920330988,15.740079520637345,118.552765747627,23.415974238446186,123.6962047470907,152.10798491208263,211.8352619590742,180.53208921142704
2.5358692025358693,21.90004116208487,17.34948337902428,119.36908216839424,21.510198356345093,123.85811992827088,152.01010873861108,211.9167820600349,180.50903721356207
2.569235902569236,19.79712109305269,19.00865084415852,120.11749605975764,20.24546979471445,124.00349806707648,151.9294345135483,211.9502636288512,180.48193652106573
2.6026026026026026,17.937292033570465,20.653127451050988,120.96613906394457,19.16435007558105,124.08246441425646,151.86981464967144,212.0131290804837,180.43806177231625
2.6359693026359694,16.567616880143955,22.36976911191943,121.8539491247646,18.465657492271127,124.14737534521922,151.8755687045684,212.01560912283367,180.32580496141296
2.669336002669336,15.453391054803664,23.999821721375405,122.97627196962964,17.996324900447956,124.17510074075432,151.90495356458058,211.99183887581256,180.196022153347
2.702702702702702,14.297845382057972,25.57584073596537,124.26783204955396,18.07879361326449,124.19095259572882,151.94052950320372,211.9035429354821,180.07965358197714
2.736069402736069,13.317006367238308,27.1970905988444,125.78171423009483,18.46615409018045,124.19296406224338,151.99454985362448,211.7845130475028,179.9781385094439
2.7694361027694363,12.56733873963624,28.725856155635288,127.8117303312612,19.492442638691827,124.0757298023024,152.05315236625134,211.7162685773728,179.91089565881222
2.802802802802803,12.044708444145344,30.016189808383466,129.4536457906882,21.00794992134016,123.8922312071734,152.11936290872055,211.69447566378227,179.8724246186958
2.836169502836169,11.599521630105649,31.185076261512144,130.85400397080036,23.12800754992041,123.69378798407382,152.2116892108648,211.68744596911927,179.81552201527745
2.8695362028695364,11.40607003060302,32.15810110186473,132.1919758120643,25.366859677625552,123.50608989574572,152.26787226834887,211.7214585556673,179.76645276299377
2.902902902902903,1.7754285990972989,33.04911839457585,133.5122369831015,27.93089774274521,123.36004717659968,152.31372329463036,211.74374360833744,179.65849629783128
2.9362696029362696,-4.278154732378631,33.925717161463986,134.76108067387204,28.3281216171374,123.29401870715262,152.3551521066197,211.7323818329864,179.5821014418593
2.9696363029696364,-6.984552301582159,34.68607584166622,135.44217527651958,28.916284634230404,123.2911292628203,152.46346786324324,211.6936658682557,179.42754347336452
3.003003003003004,-6.664640165298735,35.86193058559709,135.98956081076864,29.12744031437713,123.289161143524,152.54876892927237,211.7251437337802,179.32548860893962
3.0363697030363697,-3.4715348567817177,37.42237765062414,136.98520869269294,27.119279319575103,123.23393207302458,152.66466480264685,211.8273219867293,179.11928471141556
3.0697364030697365,2.235901685354558,38.6367124933817,138.0349523353166,26.145568153775777,123.14433649742683,152.734249649319,212.0173444382182,179.00157892157583
3.103103103103104,2.235901685354558,39.52269875826358,133.78401591248382,25.032817636874853,122.96629358335552,152.67136080782802,212.29521350604327,178.97927133920686
3.1364698031364697,2.235901685354558,40.2077125234495,131.16847444879494,24.140518653120235,122.80212411432748,152.48642391141874,212.6125151285831,179.17587762291726
3.169836503169837,2.235901685354558,40.29114670337233,126.8172656608068,23.727983018690765,122.63171249566597,152.29131019703215,212.96625451818136,179.4749551044865
3.2032032032032034,2.235901685354558,40.33458396358228,130.52819632030722,23.993966176098663,122.5856257899384,152.0484171126658,213.3031390858542,179.93085307829128
3.2365699032365702,2.235901685354558,41.32626389019994,135.22649007936968,23.819299119159552,122.52806528807474,151.7350251407514,213.7801947610524,180.4785329937189
3.2699366032699366,2.235901685354558,41.81764870577309,138.1741642630214,23.75750915406789,122.581346385373,151.41673712169984,214.16248675263577,181.161183797528
3.3033033033033035,2.235901685354558,41.57848490227886,132.9203725397314,23.548304808065527,123.0180183000262,151.23640759821376,214.2015307895973,181.8461427492724
3.3366700033366703,2.235901685354558,41.02207002701586,128.38329294047392,24.09815622946093,123.59729819485582,151.06271152046955,214.1307976516886,182.66703062957612
3.3700367033700367,10.302392899668847,40.30324157545205,125.38708970194465,24.96714182692464,124.26640045852916,150.89683368120217,214.0180162937013,183.5678411065508
3.4034034034034035,20.325803014773296,39.362099778546046,123.50795231860812,26.557294428075814,125.04021792074418,150.74309984032917,213.82243942472937,184.62258623014907
3.4367701034367704,32.15152550318437,37.94774774412491,122.2820651360538,28.743347519400874,125.8693277971434,150.55254762810725,213.4679636460437,185.8319295301792
3.4701368034701368,45.33790665617588,36.330057192480986,121.74705243939984,31.49870879948856,126.80362083816038,150.31915413082822,213.0028557043837,187.18473517531888
3.503503503503504,59.86370424543332,34.51740591186407,122.09224275772108,34.74408588722264,127.67226024682496,149.9691811959757,212.5084962873312,188.7805728176833
3.5368702035368704,75.27628423858418,32.65907417294788,123.1409423295949,38.64843251153018,128.53999888253725,149.57628261828128,211.98459120088688,190.509864097957
3.5702369035702373,91.53431518382828,30.75742237976604,125.69742717945914,43.20051508294571,129.54609953262403,149.1901261537096,211.37159105876583,192.1609536322609
3.603603603603604,108.29039456352088,28.878374407834368,128.88237105074532,48.18104862015865,130.62238586258047,148.8575320823022,210.74946199120524,193.8435440391358
3.6369703036369705,125.36455510143546,26.926224351242137,132.12290684055628,53.29445696007548,131.79616068759748,148.53293988029796,210.06329378683373,195.52576118304447
3.670337003670337,142.61416357597017,25.150636829528707,135.55593063528505,58.693470976188685,133.04838173317285,148.30155774388072,209.36060690337493,197.11387607411703
3.703703703703704,159.57215822073653,23.66910046928059,139.31268631983664,64.61019069846809,134.4234097701547,148.14341313365,208.6532695553704,198.69711125407093
3.737070403737071,185.90729458903743,22.43664769023124,143.03090979226036,70.68488369719815,135.85124371883123,148.07763195482823,207.90222356945165,200.14031223148675
3.770437103770437,209.11337840825195,21.316058069186266,146.1629496615759,75.87122180774259,137.4695551529454,148.1879367799375,207.10508085749183,201.36313312106628
3.803803803803804,229.6631249715244,20.261905228149807,149.3487237376265,82.15146480907536,138.8717317639187,148.43124425073609,206.53471325621888,202.3864373975824
3.8371705038371706,247.4321669970128,19.50882886437504,153.44146637836374,89.04425087418521,140.22176003361648,148.70574742965272,206.02610328939588,203.2726187691593
3.8705372038705375,262.1375367606501,18.92661174553704,157.41630206204854,95.89515285691178,141.42784991549055,149.08199737544408,205.7140905827393,203.9628395763177
3.903903903903904,273.5531633942321,17.848046812090463,162.5735611790017,104.71710865170049,142.46825221339878,149.56644963014176,205.7086196679425,204.46892199307692
3.937270603937271,281.8479781851009,17.14398598142224,166.91930255432,113.33574738651072,143.54807083712203,150.07931730762783,205.68452091806927,204.83272681533208
