Time,Left Shoulder Angle,Right Shoulder Angle,Left Elbow Angle,Right Elbow Angle,Left Hip Angle,Right Hip Angle,Left Knee Angle,Right Knee Angle
0.0,93.77676591953086,61.49805734745056,149.89314310748213,134.5842278046255,148.89116443254258,158.4394645497781,198.0110268284031,194.39611973662292
0.0333667000333667,64.95868559354224,49.28833950615754,157.14657032845454,145.20487336369712,147.1120965401617,158.65436208897367,201.5057882116053,195.60350126046703
0.0667334000667334,40.86986971910336,38.71430472438425,163.5660507647807,153.75825038978758,145.49923634223327,158.85825138834846,204.4993931120128,196.61656405920257
0.1001001001001001,21.243241061912784,29.7053977704404,169.1837367911316,160.36588018636775,144.04411790323104,159.05232537533354,207.0241536894428,197.447237787216
0.1334668001334668,5.811722387669093,22.191063412635742,174.0317807821783,165.14928405690853,142.73827528762874,159.23777697735986,209.1123821037127,198.10745209889365
0.1668335001668335,5.811722387669093,16.100746419280014,178.14233511259178,168.22998330488076,141.5732425599001,159.41579912185844,210.79639051463977,198.6091366486218
0.2002002002002002,5.811722387669093,11.363891558682951,181.5475521570431,169.72949923375532,140.54055378451886,159.58758473626028,212.10849108204133,198.96422109078688
0.2335669002335669,5.811722387669093,7.909943599154282,184.27958429020327,169.7693531470031,139.6317430259588,159.7543267479964,213.08099596573484,199.18463507977515
0.2669336002669336,5.811722387669093,5.668347309003757,186.3705838867433,168.47106634809495,138.8383443486936,159.91721808449776,213.7462173255375,199.282308269973
0.3003003003003003,-5.6917635379291625,4.568547456541118,187.85270332133425,165.95616014050182,138.15189181719705,160.0774516731954,214.13646732126665,199.2691703157668
0.333667000333667,-13.53429394918338,4.539988810076096,188.7580949686471,162.34615582769447,137.56391949594283,160.2362204415203,214.28405811273964,199.1571508715427
0.3670337003670337,-17.982946080395024,5.512116137918426,189.11891120335287,157.7625747131439,137.0659614494047,160.39471731690347,214.22130185977383,198.95817959168724
0.4004004004004004,-19.30479716586545,7.414374208377836,188.9673044001227,152.3269381003209,136.64955174205642,160.55413522677588,213.98051072218647,198.68418613058668
0.4337671004337671,-17.766924439896158,10.176207789764106,188.3354269336275,146.1607672926963,136.30622443837171,160.7156670985686,213.59399685979503,198.3471001426274
0.4671338004671338,-13.636405136788568,13.727061650386943,187.2554311785383,139.38558359374113,136.02751360282429,160.88050585971254,213.09407243241668,197.95885128219567
0.5005005005005005,-7.180316490844092,17.99638055855607,185.75946950952613,132.12290830692612,135.80495329988793,161.0498444376388,212.51304959986885,197.53136920367788
0.5338672005338673,1.334264263635859,22.913609282581263,183.87969430126208,124.49426273572224,135.63007759403638,161.22487575977829,211.88324052196884,197.0765835614604
0.5672339005672339,1.334264263635859,28.408192590772288,181.64825792841867,116.62116818360144,135.49442054974452,161.4067927535634,211.2369573585356,196.60642400993103
0.6006006006006006,1.334264263635859,37.83073904430539,179.96920947027766,109.6427107381364,135.1236120545391,161.70901128458115,210.99845112071685,195.78493413331464
0.6339673006339673,1.334264263635859,46.691041332441074,174.17108287817004,102.4333086079394,134.26735330603196,162.09734061983795,211.5937517605695,195.02805400459903
0.6673340006673341,1.334264263635859,54.82902017373225,169.5591054041439,93.4643224283603,133.57230206647387,162.70624214353023,212.3255980366099,194.37610060507103
0.7007007007007008,1.334264263635859,61.67033831583037,165.92422193297102,85.27285781272084,132.90078324639455,162.80122227407497,213.18698143938644,194.46615549618804
0.7340674007340674,1.334264263635859,67.28821403941016,162.9018508685367,78.73935382986367,132.3330931608055,162.95322407781484,213.6948954672897,194.9241700745827
0.7674341007674341,1.334264263635859,72.36281184798548,161.01000166288568,74.11308803812759,132.00979462411493,162.87269816997954,214.1926843092334,195.49947309333788
0.8008008008008008,1.334264263635859,74.66993183238664,160.1438819498246,71.5512342373182,131.88681904619528,162.90352176920587,214.56824113143105,196.1339604629567
0.8341675008341676,11.640259892349846,74.88782398852867,158.87573854723726,61.75240552612857,132.06050654197443,163.16487415365836,214.84710871721697,196.71156759785816
0.8675342008675342,23.47059316099641,75.33756749688986,157.05753449346352,54.68146740045915,132.5016326510492,163.3538885391016,214.9711230815497,197.08060246966812
0.9009009009009008,36.55818683527416,75.85275679832581,152.8602566967843,51.14371389311229,133.2548657439202,163.48276151341855,214.9334445362161,197.40939202893287
0.9342676009342676,50.63596368088166,76.34249267029239,147.93501856253096,50.176625571787895,134.29850047115517,163.5563962179614,214.6876640068893,197.6865322665297
0.9676343009676344,65.43684646351787,77.23032808902411,143.1285061330667,50.98821722391213,135.54452834700928,163.56532151727964,214.30472939384308,197.9891186759777
1.001001001001001,82.51051127382695,78.82979686728669,138.90137641374108,53.53820133141739,136.70754422410462,163.49522563205923,214.06987610746532,198.266834351446
1.0343677010343677,97.5499634451315,80.87235065484874,136.7125541987226,57.74970113529458,138.1352240939528,163.32834268262974,213.5303074249281,198.5788174303896
1.0677344010677343,110.29045167264678,82.97846608492765,136.14623107838182,63.75251253615062,139.5911112860298,163.1487619993443,212.69876879706405,198.8387444486944
1.1011011011011012,121.82546516867832,85.33495111804285,135.81899629960472,71.12443108318392,141.1589123251572,163.01698045744226,211.60455700581144,199.0156345808618
1.1344678011344678,132.09664300088215,88.01094243624351,137.13954255413307,80.3613975196936,142.4571262744204,162.9174763836996,210.685190764214,199.07454503149137
1.1678345011678346,141.7064309094201,91.29158229459073,140.79974855089444,90.04341904389425,143.92573159315913,162.8038743866617,209.8519051218702,199.0908900851389
1.2012012012012012,144.09729504437635,93.83832196788195,146.38013372213814,103.15480843351196,145.42383458699092,162.72804885897895,208.92183771405627,198.99291260688065
1.234567901234568,146.04998761712,106.00533372895212,151.79191624432022,114.47809155765933,146.90001181539006,162.81229971558614,208.062697841576,198.7140130205392
1.267934601267935,147.61897497018504,116.26987938810778,152.03467532657848,126.41176629917965,148.73386933640748,163.0677769580505,206.8631750795775,198.2455832975072
1.3013013013013013,149.9940856703398,125.23129308061787,151.1917875478608,136.42484537357157,150.6276820987673,163.42386836029766,205.3568364045664,197.61480417162463
1.334668001334668,152.3121575163077,133.2156020192494,151.96459367406928,147.16685789917722,152.946919560156,163.71344201232588,202.81987821785887,196.6725324602353
1.3680347013680347,153.89002046471478,140.97567625632374,152.16579348836808,157.26956710162025,155.2561418332134,164.06520762869266,200.216845201597,195.62966833616545
1.4014014014014016,154.80866307652127,148.3527304418938,151.6864530919177,166.51859378226584,157.52431005832636,164.48234198389108,197.59252996377043,194.49675593842497
1.4347681014347682,154.2304269099453,155.1879792260133,150.41763858588018,174.69955874247967,159.72038537588298,164.9680218524156,194.9917251123705,193.2843394060252
1.4681348014681348,152.64695996212507,161.32263725873608,148.25041607141762,181.59808278362783,161.81332892627134,165.52542400876072,192.45922325538845,192.0029628779775
1.5015015015015016,150.5757712338336,166.5979191901159,145.07585164969203,186.9997867070763,163.77210184987956,166.15772522742088,190.03981700081576,190.6631704932932
1.5348682015348682,147.8458747907172,170.85503967020637,140.78501142186548,190.6902913141909,165.56566528709573,166.86810228289056,187.7782989566437,189.2755063909837
1.5682349015682349,144.05217001967512,173.93521334906129,135.2689614891001,192.4552174063375,167.16298037830796,167.65973194966423,185.7194617308637,187.8505147100604
1.6016016016016017,146.6532348988525,175.67965487673462,128.41876795255791,192.0801857848823,168.53300826390435,168.53579100223638,183.908097931467,186.39873958953444
1.6349683016349683,147.80636325421503,175.9295789032798,120.125496913401,189.35081725119096,169.644710084273,169.49945621510145,182.38900016644504,184.93072516841733
1.6683350016683351,146.44751651006047,174.52620007875072,110.2802144727914,184.05273260662943,170.467046979802,170.55390436275394,181.20696104378905,183.4570155857205
1.7017017017017018,142.63545654741063,171.31073305320126,98.77398673189109,175.9715526525639,170.96898009087946,171.7023122196883,180.4067731714905,181.9881549804552
1.7350684017350684,143.75968907888543,166.12439247668505,85.49787979186235,164.89289819036009,171.11947055789352,172.94785656039903,180.03322915754063,180.5346874916328
1.7684351017684352,145.043839759307,158.80839299925574,70.34295975386708,150.60239002138377,170.8874795212322,174.29371415938056,180.13112160993086,179.1071572582647
1.8018018018018016,146.40404840360773,149.20394927096729,53.20029271906745,132.8856489470013,170.2419681212837,175.7430617911274,180.74524313665248,177.71610841936217
1.8351685018351689,147.7564548267216,137.15227594187337,33.960944788625454,111.52829576857836,169.15189749843606,177.29907623013395,181.9203863456969,176.37208511393663
1.8685352018685355,149.01719884358266,122.49458766202758,12.515982063703175,86.31595128748067,167.58622879307734,178.96493425089477,183.70134384505533,175.08563148099944
