Time,Left Shoulder Angle,Right Shoulder Angle,Left Elbow Angle,Right Elbow Angle,Left Hip Angle,Right Hip Angle,Left Knee Angle,Right Knee Angle
0.0,-20.49956138193674,4.062219250028116,155.38249467413942,137.28324740955793,150.8630390072351,146.90726803939117,189.7827237876214,203.9126656095214
0.0333667000333667,-6.543153702054983,13.176822466973851,159.22560239150732,148.01305895706153,150.77728075786533,147.70977044087897,188.3976458905897,202.4838924073937
0.0667334000667334,4.587390480582098,20.434198008362053,162.64884619623496,156.98286858438638,150.62547811541523,148.51468150857227,187.30462162222057,201.1265778971588
0.1001001001001001,13.132979591342984,25.98019172656995,165.66853595677895,164.28892137656538,150.41302951913562,149.31905260637834,186.4879125498927,199.83964444730685
0.1334668001334668,19.334522055596143,29.960649473974776,168.30098154159583,170.02746241863147,150.14533340827722,150.1199350982046,185.9317802409849,198.6220144263285
0.1668335001668335,23.43292629871006,32.521417102953755,170.5624928191422,174.2947367956175,149.8277882220909,150.91438034795829,185.6204862628757,197.47261020271395
0.2002002002002002,25.669100746053207,33.808340465884115,172.46937965787455,177.1869895925564,149.4657923998274,151.6994397195468,185.5382921829441,196.3903541449537
0.2335669002335669,26.283953822994068,33.96726541514308,174.0379519262495,178.80046589448102,149.0647443807375,152.47216457687747,185.66945956856864,195.3741686215381
0.2669336002669336,25.51839395490112,33.14403780310789,175.28451949272358,179.2314107864243,148.630042604072,153.22960628385763,185.9982499871281,194.4229760009576
0.3003003003003003,23.61332956714283,31.484503482155773,176.22539222575335,178.57606935341917,148.16708550908172,153.9688162043946,186.5089250060012,193.5356986517025
0.333667000333667,20.80966908508768,29.134508304663942,176.8768799937954,176.93068668049847,147.6812715350174,154.6868457023957,187.1857461925667,192.71125894226324
0.3670337003670337,17.34832093410414,26.23989812300966,177.25529266530629,174.3915078526951,147.17799912112986,155.38074614176827,188.01297511420333,191.9485792411302
0.4004004004004004,13.470193539560714,22.94651878957012,177.37694010874253,171.05477795504203,146.66266670666985,156.04756888641967,188.9748733382897,191.24658191679376
0.4337671004337671,9.416195326825807,19.400216156722543,177.25813219256074,167.01674207257207,146.1406727308882,156.6843653002572,190.05570243220475,190.6041893377444
0.4671338004671338,5.427234721268011,15.74683607684421,176.91517878521748,162.37364529031817,145.6174156330357,157.28818674718826,191.239723963327,190.02032387247232
0.5005005005005005,1.7442201482557105,12.13222440231232,176.36438975516927,157.2217326933132,145.0982938523631,157.8560845911201,192.5111994990353,189.4939078894681
0.5338672005338673,1.7442201482557105,8.702226985504078,175.6220749708727,151.6572493665901,144.58870582812122,158.3851101959601,193.8543906067084,189.023863757222
0.5672339005672339,1.7442201482557105,5.6026896787964935,174.70454430078573,145.77644039518316,144.09404999956203,158.8723149256169,195.25355885372645,188.609113844226
0.6006006006006006,1.7442201482557105,7.776566716140545,173.5665278529481,141.46390144025963,143.75336316499047,159.27244595446746,196.5508755041373,188.1383136891602
0.6339673006339673,1.7442201482557105,10.07702509525375,172.38150302859006,136.53033295526504,143.4055025756289,159.6292133042477,197.9473147772848,187.5681641207392
0.6673340006673341,-1.3919399668425676,12.747792021776874,170.58465268586815,130.88240775984747,143.17607740623765,159.93779076717968,199.3876052291204,187.1487715646874
0.7007007007007008,-3.740337198658925,16.010392515330384,172.28313702058892,127.3530828649418,142.9111361881807,160.17471988170706,200.85322682360143,186.7619688498392
0.7340674007340674,-0.7654529538647132,20.85697341930041,173.54297481429725,122.11245063799072,142.62359347754642,160.50393793234915,202.2944560894532,186.2753280682089
0.7674341007674341,-0.7654529538647132,25.345847023211103,165.93156935769298,117.1199674908278,142.45959248047407,160.97741840632338,203.586369504922,185.7159653353808
0.8008008008008008,-0.7654529538647132,29.82530620894629,162.59762431587774,109.4869455258832,142.25642166478917,161.38167906309013,204.9830730496545,185.60700943246377
0.8341675008341676,-0.7654529538647132,33.84275192147127,160.19977758794948,102.01313060931903,141.73039976982673,161.4683108812555,206.67699087096315,186.01636494547745
0.8675342008675342,-0.7654529538647132,37.34136768776615,158.69985231842824,95.02862312462976,141.23386676934433,160.9962413148397,208.5680590836106,186.5973576907824
0.9009009009009008,-0.7654529538647132,40.35233878208202,157.51889584066132,89.38868006485404,140.5345373182287,160.46861521568715,210.3510990385925,187.4985031528259
0.9342676009342676,-0.7654529538647132,43.480117004842704,156.50048011840516,84.1163042841906,139.85352219678893,159.8725045339487,211.72600455419465,188.57179464168027
0.9676343009676344,-0.7654529538647132,43.57244674158746,157.03735836026587,80.81536101568312,139.44398245358016,159.2177567935529,212.667892004829,189.6477116996816
1.001001001001001,-0.7654529538647132,43.84837120293479,157.4094676208382,78.55280567891245,139.22890256660497,158.77788321496837,213.12476639911443,190.73228858202648
1.0343677010343677,4.287092166370274,45.124859753591736,157.1526037518381,78.29177892892204,139.28210323651166,158.29801607284816,212.9042467177783,191.64148920539844
1.0677344010677343,17.03701371812515,46.65005163257331,157.6408787590449,77.93706302376316,139.4312452622639,157.8738066870931,212.46783948508624,192.15681584152
1.1011011011011012,33.5531860423794,47.96207041642627,156.10936727313307,73.7478077640369,139.72162758529396,157.5369328325536,211.59759359019745,192.6738209914791
1.1344678011344678,48.51748593734469,46.94266713078249,152.75922076462965,75.19339985605878,140.27747318014187,157.25211568843707,210.2179681886821,193.03135890458407
1.1678345011678346,62.66916071807956,46.27760836990983,150.25092324399833,79.6786423852473,140.92942276661535,156.8786763332389,208.68781938001231,193.3373675287984
1.2012012012012012,75.45413114473753,47.14156109093518,148.26061759606475,85.15597241781873,141.57280264441428,156.49650364311418,207.0451413117904,193.56362607918692
1.234567901234568,87.20245135743858,49.21023555713905,146.7414385651624,91.74842305841766,142.18768586932512,156.08832902257058,205.3013261307561,193.8760394261552
1.267934601267935,98.82501145511924,52.430872788024345,144.2252229295511,99.8814537976554,142.7734118397922,155.72767359543562,203.43732283867143,194.10192315157164
1.3013013013013013,108.84721850906192,58.668080547165246,142.62674836782213,106.90570023767098,143.5413015269467,155.43162917195986,201.35808302184807,194.25689569107783
1.334668001334668,117.3418200450318,63.28795147640989,141.7472452111144,117.5674865493203,144.41325856565467,155.2092800378298,199.22108536867893,194.265513947134
1.3680347013680347,124.44657450208402,73.04179727486387,134.07518246402512,126.72312371450316,145.47866391815285,155.150746301523,197.04457462442005,194.24304913637172
1.4014014014014016,130.20201105553846,76.36709036387884,133.6490348185317,134.34809625514805,146.71457895794182,155.23939964007317,194.96349374473863,194.13274058722425
1.4347681014347682,134.36930833114707,79.94037510078155,134.14403807373444,142.52984027712145,148.03579408030092,155.48572349147966,192.9523234087449,193.99780563467627
1.4681348014681348,136.23502134213527,90.0788062959474,135.04112167348435,150.39497851122016,149.5073443932364,155.8200716786586,191.0156328079992,193.8208808129948
1.5015015015015016,128.2657309806168,99.21187669057797,133.27381855908064,162.01250522824867,151.1595423279156,156.23147221700975,189.1005922465556,193.56345296899727
1.5348682015348682,122.71455434870812,106.38379037414585,130.92883522196755,165.5766338552877,152.87566964915575,156.71356457941528,187.2887549954237,192.9567180136158
1.5682349015682349,117.5683366797581,112.1745731500945,128.2715402736107,168.69737067568204,154.6738451151143,157.33384779427027,185.5918733140844,192.39112075726567
1.6016016016016017,113.31903188843432,118.7575232238593,125.25599826839124,174.47312971954742,156.52338035306195,158.1031927722682,184.03894423079328,191.7669866528248
1.6349683016349683,109.73323872344956,124.09425692975891,122.27424598174429,178.76789550739798,158.4103102656896,158.7930856005781,182.59196699204787,191.02015273126688
1.6683350016683351,107.62301418209138,128.38689499525793,118.95681043456204,182.0931089411702,160.28589125918515,159.5285761907195,181.2940440236048,190.1364006352422
1.7017017017017018,105.25313717908033,142.94089091371865,115.6214600480948,186.22748169474852,162.12698042440482,160.26709639953583,180.15104816773092,189.17342987614583
1.7350684017350684,103.11708724634138,148.973211631949,112.22568444465232,189.33884054270496,163.94018526979048,161.04777698258007,179.1974354516711,188.13282505466577
1.7684351017684352,101.21980114533508,156.13405488534517,108.733823178367,194.92655093244304,165.74091177152363,161.8957124315505,178.4139615463308,186.97375958363332
1.8018018018018016,99.26430787552428,159.6881891340848,104.9360938783416,197.39612988160545,167.3902363271996,162.77025094787163,177.867059544753,185.82540344632625
1.8351685018351689,97.26580246288128,163.65434262380847,101.67759920170542,198.9671841884292,168.73137046738069,163.6277268358798,177.55961724825795,184.7215068083456
1.8685352018685355,95.55356367583116,165.41893210030784,93.9334399087399,194.919820497688,169.85341231478077,164.5013507161533,177.49798700789356,183.71991131848503
1.901901901901902,94.01998348749257,164.39976411323673,84.611059484465,191.0836182659156,170.73826231817068,165.16115987500856,177.72704909731166,183.1118462463906
1.9352686019352687,92.71639616312028,159.10044313388914,82.29151472031484,186.89377706181452,171.3792476212083,165.37318583340317,178.20337521627306,183.0855192128213
1.968635301968636,91.17422646006855,152.86418487726473,80.05042676165803,182.2907561749354,171.91614373895007,165.54611111310493,178.7170183661774,183.116520246268
2.002002002002002,89.59290305663923,145.85517913068355,77.82024742303875,177.38459410244226,172.3557873904924,165.69042783831372,179.23927646736936,183.1880167953117
2.035368702035369,99.33699034999393,138.23761568146637,75.53342851900233,172.28532934150098,172.7050152949329,165.81662813323072,179.7414474401952,183.2831763085352
2.0687354020687354,111.27838504651189,130.1756843169344,73.12242186409404,167.10300038927744,172.97066417136932,165.9352041220572,180.1948292050012,183.38516623452088
2.1021021021021022,125.5779111852464,121.83357482440891,70.51967927285921,161.94764574293748,173.1595707388992,166.0566479289943,180.57071968213336,183.4771540218514
2.135468802135469,142.35921430709143,113.3754769912109,67.65765255984311,156.92930389964692,173.27857171662026,166.19145167824323,180.8404167919381,183.5423071191093
2.1688355021688355,161.70892040900202,104.96558060466168,64.46879353959102,152.1580133565717,173.33450382363014,166.35010749400527,180.9752184547617,183.5637929748772
2.2022022022022023,183.8481117403093,96.76807545208231,60.88555402664835,147.7438126108774,173.3342037790265,166.54310750048154,180.94642259095028,183.5247790377376
2.235568902235569,201.06090689042333,88.94715132079382,56.84038583556031,143.7967401597301,173.284508301907,166.78094382187325,180.72532712085007,183.4084327562732
2.2689356022689355,213.9602632438508,81.6669979981174,52.26574078087225,140.4268345002956,173.1922541113693,167.07410858238163,180.28322996480733,183.1979215790664
2.3023023023023024,233.8886395852894,75.09180527137444,47.09407067712945,137.7441341297398,173.06427792651104,167.43309390620794,179.5914290431683,182.8764129546999
2.335669002335669,245.6195480546836,69.38576292788566,41.25782733887718,135.85867754522826,172.90741646642988,167.8683919175533,178.62122227627918,182.42707433175627
2.369035702369036,256.16135424910664,64.71306075497287,34.68946258066077,134.88050324392708,172.7285064502235,168.39049474061895,177.3439075844862,181.83307315881805
2.4024024024024024,265.37728223258256,61.23788853995633,27.321428217025613,134.91964972300195,172.53438459698953,169.00989449960608,175.73078288813562,181.07757688446785
2.4357691024357693,273.13055606913656,59.124436070157614,19.0861760625169,136.08615547961887,172.33188762582563,169.73708331871592,173.75314610757366,180.1437529572882
2.469135802469136,279.28439982279394,58.53689313289833,9.916157931680004,138.49005901094353,172.12785225582945,170.58255332214964,171.38229516314652,179.0147688258617
