Time,Left Shoulder Angle,Right Shoulder Angle,Left Elbow Angle,Right Elbow Angle,Left Hip Angle,Right Hip Angle,Left Knee Angle,Right Knee Angle
0.0,33.91248311491943,39.3089788117362,168.6819804211218,166.85535744372964,134.79671088676668,134.88223173810783,204.1419756579417,204.3227135651153
0.0333667000333667,33.8757686361558,39.1593660398604,168.11867855673947,166.56748529854505,134.59768677850607,134.685648330488,203.8394036520208,204.6578886403912
0.0667334000667334,33.79368085806529,39.018746212824574,167.54556080651054,166.33597699826848,134.42927191663446,134.54207391330513,203.5858468579493,204.9379724054367
0.1001001001001001,33.671108148869166,38.88645750445468,166.96742938255466,166.15687442135024,134.28935278320043,134.44770731282856,203.37873793659583,205.166006431856
0.1334668001334668,33.51293887678868,38.7618380885767,166.38908649699152,166.02621944624065,134.17581586025258,134.39874735532766,203.21550954882892,205.34503229125323
0.1668335001668335,33.32406141004508,38.644226139016574,165.81533436194076,165.94005395139007,134.08654762983952,134.39139286707177,203.0935943555172,205.47809155523265
0.2002002002002002,33.109364116859616,38.53295982960028,165.25097518952208,165.89441981524882,134.0194345740098,134.42184267433026,203.0104250175289,205.5682257953984
0.2335669002335669,32.873735365453534,38.42737733415376,164.7008111918551,165.88535891626722,133.97236317481205,134.4862956033725,202.9634341957328,205.6184765833547
0.2669336002669336,32.622063524048095,38.32681682650299,164.16964458105952,165.90891313289563,133.9432199142948,134.5809504804678,202.95005455099712,205.6318854907057
0.3003003003003003,32.359236960864536,38.230616480473934,163.66227756925497,165.96112434358434,133.92989127450673,134.70200613188558,202.96771874419056,205.61149408905567
0.333667000333667,32.09014404412412,38.13811446989254,163.18351236856114,166.03803442678372,133.93026373749635,134.84566138389516,203.0138594361816,205.5603439500088
0.3670337003670337,31.81967314204809,38.04864896858479,162.73815119109767,166.13568526094411,133.94222378531228,135.0081150627659,203.0859092878387,205.48147664516912
0.4004004004004004,31.552712622857705,37.96155815037663,162.33099624898426,166.2501187245158,133.9636579000031,135.18556599476716,203.1813009600304,205.37793374614105
0.4337671004337671,31.294150854774205,37.876180189094015,161.96684975434053,166.37737669594912,133.99245256361743,135.3742130061683,203.2974671136251,205.2527568245286
0.4671338004671338,31.048876206018846,37.79185325856293,161.65051391928617,166.51350105369443,134.02649425820383,135.57025492323868,203.43184040949143,205.1089874519361
0.5005005005005005,30.82177704481288,37.70791553260931,161.38679095594082,166.65453367620208,134.0636694658109,135.76989057224765,203.58185350849783,204.94966719996768
0.5338672005338673,30.61774173937756,37.62370518505914,161.1804830764242,166.79651644192236,134.10186466848722,135.96931877946457,203.74493907151287,204.77783764022752
0.5672339005672339,30.441658657934365,37.53856038973868,161.03639249285715,166.935491229307,134.13896634828254,136.16473837115993,203.91852975940665,204.59654034432145
0.6006006006006006,30.304303708886813,37.38441951085875,160.97717013418952,166.94628638968535,134.1642092385402,136.35500651525146,204.13415879352132,204.37766739552475
0.6339673006339673,30.250797380206947,37.26519442937225,161.06321779485953,166.97969209010603,134.17522158463163,136.50045074076448,204.3122565653783,204.2011830634588
0.6673340006673341,30.25009827176984,37.1596967423485,161.231304494983,166.94273117415506,134.1761954390368,136.61046359271717,204.5004203360998,204.0282472931336
0.7007007007007008,30.315021370820283,37.06687844173209,161.4989429048806,166.90605418303332,134.15228026476777,136.68977490471133,204.69703578156336,203.8620111428363
0.7340674007340674,30.400336634784544,36.94445850001832,161.74134696312188,166.86684163564732,134.14009871525494,136.7755479485793,204.84366050745297,203.6934265550485
0.7674341007674341,30.55565934618896,36.81177951344627,162.07694369922373,166.84721267121523,134.11284755869414,136.8490187640333,204.96887100555568,203.53316953625435
0.8008008008008008,30.7842577518044,36.69191821673808,162.5419309228241,166.86635715453886,134.0851916208025,136.88213626931028,205.064212317854,203.38693721964503
0.8341675008341676,31.10016293974822,36.58654211362137,163.17309993048514,166.91331852612095,134.0421449569794,136.87771018973788,205.14336665791163,203.25949631812443
0.8675342008675342,31.50251125045907,36.4709893527904,163.96874439909027,166.9044282559288,133.99288916189434,136.80487883080747,205.1913851676304,203.1967045462246
0.9009009009009008,31.903056591629685,36.34686992313058,164.76770444954838,166.87467563622369,133.93184124186334,136.69625736649,205.22670435837583,203.16009660883333
0.9342676009342676,32.33934026503476,36.24452075200242,165.6240745820553,166.8772566508853,133.8453239745352,136.59028383743296,205.26389963528132,203.108691780402
0.9676343009676344,32.797292601771794,36.14860489996504,166.4514615044579,166.90134032173145,133.74086532774928,136.48851725019216,205.2884773298128,203.05003831271
1.001001001001001,33.29650933817636,36.05916307566254,167.331384380537,166.92708955420048,133.5805842765994,136.37097789060113,205.3504388100788,203.0019722771532
1.0343677010343677,33.77421897197047,35.946277638171985,168.167782703619,166.94247953641965,133.3830187872299,136.25716523459295,205.44806222052983,202.95868433905616
1.0677344010677343,34.276018398335005,35.84672698216042,169.01624041730747,167.0484669373218,133.1727158171252,136.12980207465876,205.56867088712903,202.91803565781348
1.1011011011011012,34.7728201320853,35.73172084040935,169.8729270885109,167.15364363454393,132.98045761476152,136.00390378954197,205.6669006495563,202.881807032041
1.1344678011344678,35.26074596942435,35.61473001469595,170.74907275442374,167.24844792528015,132.84998800449003,135.88795572390845,205.69056355615967,202.83493605079585
1.1678345011678346,35.67170413991172,35.46745637208282,171.48689154872378,167.315804431542,132.7427870369844,135.8114710595509,205.65735341374835,202.77729813526977
1.2012012012012012,36.02067996939263,35.26343877042296,172.01520013555515,167.24925423693207,132.676962429937,135.73796105546654,205.53292259828123,202.71777988928088
1.234567901234568,36.35670642413236,35.0445096104033,172.57142612331117,167.15803933960078,132.60592364353943,135.6841275695621,205.4197236705199,202.65960216680165
1.267934601267935,36.67172798097199,34.96231855775361,173.10537200071303,167.2016818056889,132.51942147368655,135.65169935222838,205.34685947012292,202.60401657250364
1.3013013013013013,36.94202214726428,34.93263320321003,173.64437539200975,167.32669941834325,132.41703175927603,135.64272888142605,205.3214969849192,202.55516911117323
1.334668001334668,37.15253553872704,34.81530680857853,174.1145060200609,167.31761304442938,132.3078513473803,135.62939975869023,205.32909757314013,202.52816812881164
1.3680347013680347,37.28388621906867,34.679676690299424,174.5432223907366,167.2983706536944,132.1845820706012,135.6389272366022,205.3994519939276,202.5180044696384
1.4014014014014016,37.36346004521261,34.70542482619879,174.79664207477762,167.55181751882185,131.99380472171276,135.65103569641127,205.56356738688885,202.5053628787965
1.4347681014347682,37.369399477206485,34.69899086064207,175.02981515353065,167.81496809337605,131.7847881687789,135.70989186454688,205.78559307279127,202.46004033036027
1.4681348014681348,37.35871683066246,34.6272137167011,175.2868681245676,167.92807130986228,131.54233949397897,135.76495888254863,206.0751237635179,202.38583628844785
1.5015015015015016,37.30635807227272,34.47390592636472,175.64424536167516,167.92929916471454,131.2839837620971,135.83263400523413,206.42540839542937,202.3156693989332
1.5348682015348682,37.29679151494226,34.32849888597762,176.22937832025588,167.93420579550175,131.07588016145493,135.9280946395163,206.8186191405386,202.24402614284003
1.5682349015682349,37.25990312722312,34.16071078578668,176.94531844950666,167.93442102903853,130.92058466677264,136.07363606137994,207.2065929174568,202.16715941061003
1.6016016016016017,37.18404275485226,33.91486439831939,177.7402959418514,167.77069572804422,130.8459217811807,136.2310032964732,207.5928593781215,202.1132943957184
1.6349683016349683,36.98817442761482,33.56729815824552,178.44709951385437,167.5128926591132,130.79124047138149,136.44823892095147,207.95165704119492,202.02294451500907
1.6683350016683351,36.746067951777135,33.21034531217355,178.97901544074293,167.3047339700182,130.74787799657958,136.6953685188917,208.2771734425125,201.90785612548223
1.7017017017017018,36.376434692603794,32.76832001036757,179.43121311914163,167.0141090275981,130.73351312062857,136.98678906328277,208.5675760631364,201.7577816684558
1.7350684017350684,35.8736969592809,32.24827876972018,179.6781660193189,166.6356961898183,130.7348481925363,137.35363615673913,208.8372477171456,201.55727005832225
1.7684351017684352,35.249601044724834,31.64896271464427,179.8475212031118,166.17751602730056,130.76774912604935,137.78596713441686,209.04344975944483,201.31493607925063
1.8018018018018016,34.529223093250195,30.920846008422025,179.92217833279005,165.4752032446494,130.84963900744287,138.26218553050427,209.18705500122968,201.0448929882304
1.8351685018351689,33.72440525156373,30.077722756607667,179.9651385891835,164.73737716221845,130.9436236926497,138.78316868077906,209.24030947256875,200.7684652252925
1.8685352018685355,32.893236741770544,29.18772761424601,179.94346027655956,163.97041538496086,131.0426943789277,139.32435527428945,209.23063679868275,200.49898983225523
1.901901901901902,32.03543595917291,28.28055258725412,180.05053893436576,163.24072853144037,131.10336914131287,139.8445806157202,209.2163653134554,200.2519632979084
1.9352686019352687,31.21508097115694,27.368443631087263,179.98552992558473,162.45798943584435,131.16543095072717,140.3564267437903,209.164619571181,200.0132986356308
1.968635301968636,30.35969471684578,26.40673928105257,180.03578706699278,161.66034310730203,131.21804950156644,140.87724510581194,209.09002158395137,199.78463465940425
2.002002002002002,29.440919105618978,25.42007718245905,180.0677289362091,160.8644677094071,131.2633086282096,141.39476807755057,208.9901423631182,199.5754960587317
2.035368702035369,28.390642695948536,24.436798219021203,180.09430576992895,160.1837353318846,131.29768387201008,141.94420751756238,208.88418020089927,199.3289470679161
2.0687354020687354,27.036881574799484,23.54190887156399,180.29727388020976,159.59215164312894,131.32373832589403,142.501230821806,208.77094181106392,199.06086961652744
2.1021021021021022,25.55511577345084,22.684313277547943,180.47866535503283,159.11691444917355,131.3496004390116,143.02286231914383,208.64774762685465,198.81480010104733
2.135468802135469,23.93732761758516,21.90033700570223,180.8370922187256,158.69146897395166,131.37874977587617,143.50544790821766,208.51435498964105,198.5893015472252
2.1688355021688355,22.253125045257665,21.08434444288913,181.0845905304273,158.36060079561184,131.45247464661568,143.97351053958613,208.32871031681452,198.3640796765268
2.2022022022022023,20.481874293128808,20.35836744398529,181.16585519172656,158.73062410304982,131.56225889838873,144.42039061102716,208.09998042935496,198.14032101191663
2.235568902235569,18.771282345302843,19.478246544071453,180.9887724225904,159.0497593442704,131.7103150728923,144.87027609548775,207.8056694899202,197.91717374262032
2.2689356022689355,17.08520753106414,18.51192219607693,180.65774798049875,159.19655140259803,131.89085576991752,145.29941673673767,207.46215164629572,197.702648254479
2.3023023023023024,15.544103214263544,17.623115086153454,179.95224200110218,159.11524588021106,132.04312481051068,145.6962977397875,207.133243950314,197.5096545686386
2.335669002335669,14.15202952958519,16.69264570979334,178.98569565450276,158.76110792882042,132.10613825906717,146.0227101660852,206.8534521314372,197.3588134855857
2.369035702369036,12.914634701512345,15.780697498974376,178.0106271119137,158.48203538757943,132.09956336982194,146.3234781652507,206.6658217543176,197.24386076915567
2.4024024024024024,11.808056334742997,14.944280989351435,176.94104849063592,158.38140049684802,132.0507508444446,146.5893271738972,206.526193379113,197.14796115691425
2.4357691024357693,10.85458812477466,14.004109683536084,175.84970718230426,158.14860862286812,131.97950431808806,146.81938782484283,206.41034145493185,197.06624268550573
2.469135802469136,10.047249369702804,12.82730032695336,174.3721948021762,159.99968110353203,131.89999625497595,147.00652420499912,206.31671003472184,197.00079912432463
2.5025025025025025,9.451284385765131,11.864439280926284,172.66251897332148,161.63994216801234,131.79686557901235,147.1743986560387,206.272939712635,196.9381170001033
2.5358692025358693,8.861738742999098,10.939994600507584,170.45198359159485,162.4978205111556,131.66783281563227,147.30302411337837,206.2808096951552,196.86091935326985
2.569235902569236,8.454391182668406,9.983547178725956,168.8976998811488,162.3988032704285,131.5927260583651,147.43134076498305,206.28108477229924,196.777431002102
2.6026026026026026,8.27180374499461,9.589816925023651,170.61071608310823,162.2394866995267,131.55008639870937,147.5390700005299,206.292543612821,196.6868353321317
2.6359693026359694,8.306921320249572,9.446649068960284,172.03696842154602,161.4185679438845,131.58940265721836,147.6594968641496,206.2788440248441,196.60500964417403
2.669336002669336,8.491820215248197,9.199662273499294,173.11698074938752,160.08491191118307,131.692135372576,147.78066746646417,206.2376995208481,196.52114961464767
2.702702702702702,8.871659959449076,8.74432444163532,173.76245395271562,157.96311094967527,131.8263949686312,147.8997215154706,206.16197893602143,196.4338383449561
2.736069402736069,9.40449585855464,8.521011213324513,174.2647876719839,155.89867043885278,132.01562978438167,148.00958743367087,206.06309363722752,196.33175609058807
2.7694361027694363,10.078981284503527,8.139080333477748,174.29770797354595,153.42493533075222,132.20135244793516,148.15078485138943,205.9402682650737,196.18073763432847
2.802802802802803,10.919956042630956,7.720395302968858,174.12248572348605,150.39678380773856,132.3772934608764,148.30025844576554,205.80239865038047,196.02204102699315
2.836169502836169,11.871693514242612,7.2642606867993695,173.68425054217118,146.6714732521373,132.56354258973198,148.4883715635826,205.65294517354369,195.8465022939265
2.8695362028695364,12.90647146135918,6.576825285931371,172.93316266964945,141.93252268703026,132.7968878108573,148.7186536058691,205.4959526378658,195.6594205884063
2.902902902902903,14.030861993995517,5.812676706262112,171.85139347059885,136.15179238038988,133.0808105612664,148.93438505948052,205.3169824662152,195.4844797965071
2.9362696029362696,15.292057120527572,5.5164315670528365,170.76253526828918,131.01786301084795,133.3714317876375,149.14029875162893,205.12379090619908,195.3292479499381
2.9696363029696364,16.347795527687257,5.5164315670528365,169.05792215290847,125.77190087562748,133.64421130492372,149.32332854557652,204.94237371884992,195.1901708041376
3.003003003003004,17.831350588591633,5.5164315670528365,167.42630085238292,120.50456627330296,133.8734667500756,149.49047649572802,204.76245776461172,195.0628537289782
3.0363697030363697,19.40161199809252,5.5164315670528365,165.6975061680648,115.26666213865852,134.12432752374207,149.6518826558879,204.57200668118548,194.93390260956625
3.0697364030697365,21.068431435880164,5.5164315670528365,163.79745755370172,110.208608824008,134.41269251801953,149.7938867234688,204.36841221863435,194.8009191936464
3.103103103103104,22.48767598158956,5.5164315670528365,161.8798059079943,105.28799380544488,134.7159801315352,149.90509986628052,204.1715864910267,194.68138895092875
3.1364698031364697,23.56708985710132,5.5164315670528365,159.66608112702892,100.92013378984682,135.05173098656738,149.9757866027897,203.977778001546,194.5764390404168
3.169836503169837,24.24015404998209,5.5164315670528365,157.118504422522,96.76423987260888,135.4173998179916,150.01319859480964,203.7856581561353,194.4796292929002
3.2032032032032034,24.257965235609788,5.5164315670528365,153.96892607123274,91.64208525731384,135.84170078382095,150.02038372656244,203.6060412061446,194.39503223359029
3.2365699032365702,24.322007261495937,5.5164315670528365,150.854338842226,87.02740039561357,136.27126176779288,150.00958353760453,203.4391740281428,194.3253892062985
3.2699366032699366,24.412029109403896,5.5164315670528365,147.79734148715167,83.9740798742081,136.6583846154616,149.98580459284932,203.2832292202717,194.2654753113123
3.3033033033033035,24.61501709201116,5.5164315670528365,144.52085323395443,81.04552792303744,136.99344765775348,149.9486346220645,203.15227486276365,194.21279235830497
3.3366700033366703,24.88165205601304,5.5164315670528365,141.26240089518325,78.52715185933214,137.2928279740205,149.89721979825947,203.0436968746376,194.1716108639061
3.3700367033700367,25.338881805570328,5.5164315670528365,138.05055000853605,75.78082180014303,137.54538875575037,149.83064131627106,202.9564439012304,194.1435283535065
3.4034034034034035,25.86343332680601,5.5164315670528365,134.8983780478123,73.48975478626863,137.7596534065842,149.7405071148041,202.8925537245025,194.12939827977863
3.4367701034367704,26.60311354028575,5.5164315670528365,131.7027362841882,71.74967722990634,137.8973796318136,149.63684864185387,202.85329433168525,194.12714182727947
3.4701368034701368,27.196900903037964,5.5164315670528365,128.42032740119615,70.58962940854255,137.94649606332925,149.52111771567766,202.8471025919238,194.1335390904109
3.503503503503504,27.71277557821073,5.5164315670528365,125.12157657346096,70.29517552954076,138.0050360615888,149.42109954801822,202.82050371923248,194.1273265481883
3.5368702035368704,18.52197615819728,5.5164315670528365,121.14355607147483,70.78926213915055,138.035547829971,149.34632078466012,202.7894741781596,194.1093432438205
3.5702369035702373,12.520017806354293,5.5164315670528365,117.34220971677756,71.99534041907111,138.0547528745244,149.28329353162917,202.75143463893903,194.08655313261457
3.603603603603604,9.207373060435394,5.5164315670528365,114.18546711624695,74.01595412503177,138.05279486044216,149.22424183157963,202.71301038160152,194.06222143976203
3.6369703036369705,8.445135951975589,5.5164315670528365,112.22172619552032,74.09809950602005,138.02427882669144,149.1650154828076,202.6839315739406,194.04172028804072
3.670337003670337,9.991880861108388,5.5164315670528365,111.68682705208944,74.00358099765556,137.963411072983,149.11288115571617,202.66074953144863,194.025294549027
3.703703703703704,13.941548066752931,5.5164315670528365,113.22718990578296,74.27400916854292,137.88638067929995,149.08001774064618,202.6374688519689,194.0040026607268
3.737070403737071,20.501741084915626,5.5164315670528365,115.80067121387692,74.78304173155045,137.80840268416924,149.07222632335862,202.61259100959816,193.9805235444776
3.770437103770437,28.91457389578633,5.5164315670528365,116.11313045525392,74.77490881222045,137.73614376692692,149.08492224241226,202.5778563127012,193.95302489813056
3.803803803803804,39.2004667991032,5.5164315670528365,116.60013992544307,74.9289705910398,137.67152522865717,149.11877412366152,202.5368098485972,193.9215391974921
3.8371705038371706,50.98026191832726,5.5164315670528365,117.57139190529516,75.10140671886504,137.6392521530463,149.17329967389358,202.48776756046047,193.8832361453107
3.8705372038705375,64.31945815460698,5.5164315670528365,118.6703981737037,75.3414085903456,137.6229884382632,149.26320089840186,202.4295311515825,193.84035177910127
3.903903903903904,78.58036666850523,5.5164315670528365,120.054974213668,74.8830275704433,137.60788794195594,149.37254793648037,202.3632341827398,193.8108117290862
3.937270603937271,93.67008767817404,5.5164315670528365,121.95744322225887,74.1245599718176,137.5952621827806,149.51980575716314,202.2614974805107,193.7840598590861
