Time,Left Shoulder Angle,Right Shoulder Angle,Left Elbow Angle,Right Elbow Angle,Left Hip Angle,Right Hip Angle,Left Knee Angle,Right Knee Angle
0.0,19.55128557406392,27.873090131007626,146.59497673419068,159.2961446915287,142.59377333021985,138.45222439319204,207.55648453316093,207.3908186859325
0.0333667000333667,20.338032207030444,27.38364902502209,150.56734534872214,158.7550834758898,143.80118273690778,139.35111952752868,206.9196739098861,207.390707726581
0.0667334000667334,20.897073538735665,26.909174115611435,154.08185833611105,158.26418825043143,144.90039989970256,140.182567963122,206.3174190006245,207.36012667971863
0.1001001001001001,21.24717435528194,26.4502579250045,157.1617220177243,157.82157444754802,145.8956575983097,140.94881846543464,205.7481430878074,207.3017807801885
0.1334668001334668,21.407099442771614,26.007492975430136,159.83014271492883,157.42535749963403,146.79118861243478,141.65211979992918,205.2102694538661,207.21837526283372
0.1668335001668335,21.39561358730705,25.5814717891172,162.11032674909166,157.07365283908388,147.5912257217833,142.29472073206827,204.702221381232,207.11261536249745
0.2002002002002002,21.2314815749906,25.17278688829453,164.02548044157962,156.76457589829204,148.30000170606084,142.8788700273145,204.22242215233624,206.9872063140227
0.2335669002335669,20.933468191924604,24.782030795191,165.59881011375967,156.49624210965294,148.92174934497294,143.40681645113045,203.76929504961024,206.84485335225256
0.2669336002669336,20.52033822421143,24.409796032035445,166.85352208699877,156.266766905561,149.4607014182251,143.88080876897877,203.3412633554853,206.68826171203028
0.3003003003003003,20.01085645795343,24.05667512105672,167.8128226826638,156.07426571841071,149.92109070552294,144.3030957463221,202.93675035239264,206.52013662819888
0.333667000333667,19.42378767925295,23.723260584483683,168.49991822212172,155.9168539805965,150.30714998657194,144.67592614862298,202.55417932276364,206.3431833356014
0.3670337003670337,18.777896674212347,23.410144944545173,168.9380150267395,155.7926471245128,150.6231120410777,145.0015487413441,202.1919735490296,206.16010706908108
0.4004004004004004,18.091948228933973,23.117920723470053,169.15031941788402,155.69976058255403,150.8732096487457,145.28221228994803,201.8485563136217,205.9736130634809
0.4337671004337671,17.384707129520187,22.84718044348717,169.1600377169222,155.63630978711467,151.0616755892815,145.52016555989738,201.52235089897133,205.78640655364416
0.4671338004671338,16.674938162073335,22.59851662682537,168.99037624522103,155.6004101705892,151.19274264239067,145.71765731665477,201.21178058750985,205.60119277441376
0.5005005005005005,15.98140611269577,22.37252179571352,168.66454132414742,155.59017716537195,151.27064358777875,145.87693632568283,200.91526866166848,205.42067696063293
0.5338672005338673,15.322875767489856,22.169788472380457,168.20573927506828,155.60372620385746,151.29961120515128,146.00025135244417,200.6312384038785,205.2475643471448
0.5672339005672339,14.718111912558042,21.99090917905524,167.63717641935187,155.63917271844142,151.2838782742151,146.0898511624025,200.3581130965729,205.08456016879404
0.6006006006006006,14.131616958294432,21.869499554814336,166.55249453983532,155.80211361473076,151.07047266898812,146.12251699681568,200.18973911940327,204.98964086421208
0.6339673006339673,13.944881252289775,21.78222767595474,166.21194252149382,155.97304272710645,150.91086935588217,146.15115689982505,199.9688231668228,204.9112181061642
0.6673340006673341,13.973521947122752,21.733070925270088,165.78717580127997,156.18046907973024,150.80262105877986,146.18887877011124,199.6541124234284,204.82505045862968
0.7007007007007008,14.206970108216664,21.68225486415226,165.2953118833426,156.32621359625446,150.71734398932824,146.21800223671465,199.2882850361989,204.7472707370764
0.7340674007340674,14.58321424262151,21.642717598519543,164.7815494152945,156.41564359840433,150.63264818504834,146.17017928624432,198.9078222473504,204.71859712253385
0.7674341007674341,15.052783384608087,21.62235340558148,164.28941087635926,156.48849938247528,150.52156334887255,146.10211618972218,198.58651749879084,204.70799679052925
0.8008008008008008,15.568734015641846,21.62847452083365,163.82781532965137,156.52868710326985,150.3860486248574,146.01068462646663,198.26502314292827,204.724929205268
0.8341675008341676,16.24054303218032,21.67899225295552,163.40752258996324,156.54063246621135,150.24569661304986,145.88637021253714,197.9449384200153,204.7680070449713
0.8675342008675342,17.046799665031052,21.76437595749081,162.97882796706978,156.51782008329928,150.1034509981363,145.74226601532527,197.6456305709268,204.83603990982235
0.9009009009009008,17.97442632023849,21.87822871913289,162.71372338882367,156.57751437148437,149.97895405317058,145.61243484487025,197.3678291127113,204.9334469539388
0.9342676009342676,19.00949523912259,21.9622676582314,162.54919774546627,156.62044989951568,149.88056855532008,145.4676987046275,197.1084739374413,205.0665803556793
0.9676343009676344,20.217493278192546,21.99835044977215,162.4097235637924,156.58411136447717,149.8045224671718,145.30491425518113,196.8309214230597,205.22780832185973
1.001001001001001,21.55228044184943,22.04953052289712,162.22368065760296,156.60433983034702,149.74331864617287,145.10646876719218,196.6060085071345,205.4095065074639
1.0343677010343677,22.134080317313263,22.169909916081124,162.3927952879017,156.7455544415051,149.69599343949258,144.8802236096469,196.402964117319,205.6174145212635
1.0677344010677343,22.72115640093785,22.3554845836976,163.33355531979691,157.00599847628973,149.656496262993,144.6334185067442,196.2916316490884,205.8411489284157
1.1011011011011012,23.51855843927088,22.61270035462579,164.45533970766894,157.27456377605813,149.57445546464345,144.36489176037028,196.28798115360493,206.07895998626947
1.1344678011344678,24.45839897878061,22.883295560676338,165.59051892080925,157.4513398014779,149.54785551112005,144.11789190457236,196.2871616871523,206.3303089920373
1.1678345011678346,25.505923786071097,23.18806265303544,166.7108764810615,157.57205031061514,149.53536161044852,143.8844090031105,196.29703128866475,206.5748129059018
1.2012012012012012,26.64062875417624,23.72896499189511,167.78605746810385,158.00659942898497,149.50894713230346,143.63293843837812,196.3300948985342,206.8141331804296
1.234567901234568,27.757180815088688,24.137914838183505,168.8411985210879,158.29227972222506,149.39719632233323,143.38609895596312,196.45952499711697,207.0566540232684
1.267934601267935,28.82136982164154,24.508273201610905,169.89398925298997,158.6520202114868,149.25791238017368,143.1578982168596,196.58591118416737,207.2626164048229
1.3013013013013013,29.68895934390517,24.777960054911144,171.12273144997712,158.90072813810832,149.08945966286842,142.99665189253068,196.7491177938679,207.43442199275253
1.334668001334668,30.343599577599857,24.89188800338356,172.00281953509153,158.93586071557277,148.87534245349332,142.84590582563328,196.9912546258721,207.58588941207304
1.3680347013680347,30.82489950723496,25.18757318753802,173.43864819343818,159.1192771940845,148.6008836575976,142.72306584953486,197.28765164660504,207.70338558247053
1.4014014014014016,31.078642427244308,25.54713282828717,174.7775701687115,159.52993572743128,148.31214431114046,142.66071491046628,197.59854691803343,207.7845813867319
1.4347681014347682,31.280955206667542,25.573823749706857,175.73099653575883,159.85473989020724,147.9767722680445,142.64262735944374,197.95770527361069,207.82257905270268
1.4681348014681348,31.60283610504532,25.376317703270978,176.39016616703032,158.95690127087664,147.41392248877096,142.5788355384327,198.4725537315238,207.8796681750776
1.5015015015015016,31.97774972043721,25.01857682279886,176.78616149709214,157.8357903792937,146.7181404688502,142.5357915478129,199.0663104688097,207.89962434954987
1.5348682015348682,32.15882897124393,24.496263775666183,176.54866478774707,157.03645746877802,146.0432703961476,142.5005233324049,199.6490106968049,207.8849248942183
1.5682349015682349,32.38694261161697,23.86763517507908,176.45579921361897,156.15174832969768,145.42296305162478,142.50140574269977,200.1818019115947,207.8346072226668
1.6016016016016017,32.47928142860096,23.007726931930527,175.92978353934743,155.31666478789072,144.9032585631209,142.583039037747,200.67688151443392,207.72045655385617
1.6349683016349683,32.515027369448894,22.053055112112794,175.3936376698906,154.34663399198834,144.40664921289957,142.76267121555765,201.14935913127988,207.5503139892952
1.6683350016683351,32.52511309548196,21.11672248757996,174.9409646951646,153.17532614319757,143.89484378066268,143.0206258232728,201.607524593947,207.33142559244345
1.7017017017017018,32.64538972021282,20.21460174276781,174.55801326683516,151.81762408098888,143.40676485415227,143.30928492831498,201.9762120074089,207.11079873783035
1.7350684017350684,32.77303516581905,19.09508242847261,173.5133674176783,148.84037018539397,142.9652229524382,143.66020097841852,202.2221633442528,206.8656025318712
1.7684351017684352,32.84355041367279,18.024380392163632,172.9195884669033,146.17842027302936,142.62124516124794,144.06065103501473,202.34240516004485,206.5736379232604
1.8018018018018016,32.875261039116175,16.987317611691225,172.2041531309013,144.5263328906131,142.32943114464723,144.52597135590725,202.39375784267904,206.2149822222764
1.8351685018351689,32.89302823840456,16.007581690397757,179.04266386524654,143.80651542641175,142.02909364866989,144.96209475382895,202.4828531836944,205.8382449660324
1.8685352018685355,32.89557418492564,14.9782216252165,184.7136156560761,142.77298333390289,141.71162447993763,145.38072629416567,202.6113400524932,205.43956409250805
1.901901901901902,32.8854904851352,14.06674236879356,189.10870803449805,141.4632587852673,141.40679230471832,145.80465971865584,202.7441725179121,205.021917818738
1.9352686019352687,32.92870012545767,13.495965260328669,192.7773151054902,141.4394580456064,141.09646669790692,146.23307946199017,202.8672263824338,204.5860550219527
1.968635301968636,33.02360029319327,13.082197375072894,195.1490677278456,141.01570301302635,140.83567426302366,146.6560655552801,202.98094667500249,204.13810878547545
2.002002002002002,34.11342858645965,12.866330233208176,194.97784456338323,140.58368903346636,140.6092605891481,147.0724907939683,203.0706684702177,203.69505110510508
2.035368702035369,34.65032395868899,12.589104082934348,191.3295869862065,137.07659094035986,140.46423628532418,147.43818987639645,203.1677807265621,203.2743619457031
2.0687354020687354,34.42090225196395,12.375076780721756,189.9102791605157,136.61164258805064,140.39967696405503,147.75830433168036,203.24355760985227,202.86876084035777
2.1021021021021022,34.069376939295246,12.23053028815242,188.1337840734605,136.08357881339154,140.38979780647335,148.0431236959491,203.29975201247308,202.4620019217673
2.135468802135469,33.60451495987302,12.144196903668156,186.59109675713307,136.25704178533348,140.46247365318897,148.3175991684638,203.3611010461481,202.07348151733
2.1688355021688355,33.14765917706554,12.007190434287416,184.72212227155416,135.92910065363736,140.58793120051183,148.56252260751324,203.3974969326157,201.7151132654297
2.2022022022022023,32.33979559923983,12.03124611476851,181.7410553741464,131.60046102551607,140.77264191465233,148.71765295350633,203.4065751652842,201.38957196277588
2.235568902235569,31.5452375754292,11.863805816346824,177.9107660632288,127.94342206105036,141.00181128368985,148.82724413903523,203.36307650168044,201.09222631017727
2.2689356022689355,30.46202569558702,11.527822634729873,174.61564873703898,125.53822892580126,141.28252356604955,148.94182047007027,203.2652307767952,200.80768682870337
2.3023023023023024,29.40156569084089,11.423905966155694,170.95600996346866,123.92513659973714,141.5084665049591,149.00269242556206,203.21774218866497,200.5496150847977
2.335669002335669,28.83363811399253,11.388820203041778,167.554769993733,122.88438249283516,141.70584342431417,148.9861268478645,203.190127718654,200.3175821514612
2.369035702369036,28.274480373837896,11.38835874823218,163.69313871910575,121.80825998415465,141.84263302799943,148.97099651755184,203.1883628150109,200.10390874965887
2.4024024024024024,27.653779810773344,11.655215355774876,159.45452929782414,121.1463836018678,142.00700661439345,148.95183899354902,203.1490429644981,199.9019104659676
2.4357691024357693,26.68963798825145,12.033788631655666,154.333233957573,120.4772270787593,142.12722065466048,148.92458846292766,203.15416518390347,199.76126164116383
2.469135802469136,26.287615397711267,12.635685451958269,149.88199464606518,119.955213318736,142.1655257919478,148.8669395073389,203.16542137191203,199.6685392007616
2.5025025025025025,25.974489122603234,13.452603085167944,145.30857633303577,119.74136071499912,142.17403253602106,148.79693542606353,203.18686191414105,199.6151380577484
2.5358692025358693,25.486140941342736,14.025468218337588,140.31226374162117,120.1981383761006,142.19378634246925,148.70925060579677,203.2369871533831,199.6112143404756
2.569235902569236,24.79833103173067,14.338040948278428,134.78721024162152,120.41231026698632,142.17374711726254,148.58789721833395,203.36349222075825,199.6391336698072
2.6026026026026026,23.921257862143527,14.646732348188976,128.88969482334772,122.23538758051806,142.1184941092596,148.4069064848409,203.5469165737779,199.69943459969213
2.6359693026359694,22.62391292884008,15.036162278917976,122.6289208596816,127.4327393459887,142.23560401841183,148.31242093278587,203.6532373849889,199.7103722905604
2.669336002669336,21.051220627483104,15.309647131386477,116.09488473758,131.06681199431532,142.46564510149213,148.24322470224297,203.71860130156588,199.6985740431969
2.702702702702702,19.57040420262448,15.63809718173613,109.86486822447374,133.3470891209502,142.72959147899294,148.25515350558584,203.7862275181801,199.6462973100904
2.736069402736069,17.430594323231855,15.846296585078036,103.07742096517651,134.17811342323347,143.09956593186126,148.36239883777392,203.8567840073299,199.57005178467628
2.7694361027694363,15.431257304456764,16.21416594685827,97.1232673855972,133.70404004899297,143.4179020274257,148.54750279847684,203.95258082789704,199.4831658403889
2.802802802802803,13.447916665797116,16.52179405248351,91.82840331251484,131.76527607416318,143.66344339479926,148.77178177032638,204.0586351479617,199.38871712473068
2.836169502836169,11.952523570415822,16.806517477789697,87.78298173385726,128.8880597078073,143.93461723655406,149.0399854759612,204.1622266109506,199.27461871297456
2.8695362028695364,2.432117367478276,16.926326995362306,84.83988744648482,125.52676759727224,144.19145781438692,149.36542482408183,204.254488679003,199.13043137496004
2.902902902902903,2.432117367478276,17.491318788748806,84.70012408595028,123.70166813418015,144.3671806362295,149.6995767744844,204.42113204034808,198.96125065250183
2.9362696029362696,2.432117367478276,18.261221061338645,86.73745780291308,121.922300588313,144.4875777321291,150.0564846265375,204.630906288682,198.7739709770244
2.9696363029696364,2.432117367478276,19.30069002234816,91.99933541337418,119.36165394638664,144.55021275378377,150.40651740954576,204.86745270929163,198.5859003512531
3.003003003003004,2.432117367478276,20.43054739118436,90.77318512561732,115.50122748332194,144.5629690486253,150.7644762606192,205.1203786834706,198.4065986107425
3.0363697030363697,2.432117367478276,21.96452227823694,89.68179843891663,111.63501787078168,144.5547002529586,151.1240716734736,205.36537214323803,198.24374989292133
3.0697364030697365,2.432117367478276,23.72006807330253,88.7993366402599,107.80803995846864,144.5071042895176,151.4740150259531,205.61022508373424,198.097999734679
3.103103103103104,2.432117367478276,25.47728339919609,87.4930045757479,102.3380417453919,144.4780408527355,151.80125782817947,205.83464623966185,197.97793626167663
3.1364698031364697,2.432117367478276,27.21581793888884,86.41826460718404,96.5617415901146,144.4500621471655,152.10402209177047,206.02274148485063,197.8788355443752
3.169836503169837,-3.741071527293798,28.90773235873665,87.14228639558011,90.17881325816428,144.47439064329484,152.3738218903811,206.19670187082653,197.79421988392943
3.2032032032032034,-6.734561579420999,30.791302563771872,91.95969121162062,87.11889431180593,144.50395093774924,152.6235324060913,206.33823008807465,197.7151460846281
3.2365699032365702,-6.971017397408392,32.76369832803942,95.3709606319175,81.49032131085944,144.5606958690736,152.85488230222782,206.41287089539185,197.6492573118051
3.2699366032699366,-4.493881043782906,34.82761754732869,99.38334816817164,75.6121454150449,144.65834136591434,153.0615361158798,206.4313339925759,197.59966453275973
3.3033033033033035,0.3476939138077721,36.950941209319446,103.10736634418392,68.47978010930032,144.773891252856,153.2341496978256,206.4056813606224,197.5474575262367
3.3366700033366703,7.472795075880575,39.15413609873201,106.79700880043274,60.9338746200141,144.90588293771174,153.37588814599826,206.34267311798183,197.5038906552681
3.3700367033700367,16.473575215565532,41.20853662020019,111.4154292422717,57.70115717477602,145.05483519352356,153.5582272941106,206.24657015075903,197.45211355063145
3.4034034034034035,27.20843660914996,43.42288066962254,116.91794161686155,55.23284621503517,145.21824395274544,153.75655658035586,206.1005949191809,197.39139346829447
3.4367701034367704,38.09622181586528,45.93981465649072,122.0045614515278,52.844020156049766,145.4103683303449,153.92271508454184,205.9099818070445,197.3397098212516
3.4701368034701368,50.29784962710538,48.4883645250284,127.32685347189268,50.96744073558414,145.70380888182325,154.04804195170988,205.46982489388245,197.2978927155186
3.503503503503504,64.04045607189957,51.26963560937105,132.09263950126876,49.75495489641928,146.00045585521315,154.16779185938182,205.012184670965,197.270301896758
3.5368702035368704,78.64255493755475,53.98872112664864,136.78041905886374,49.37918862583314,146.29923018519668,154.26499480437812,204.54587172854303,197.2621386374964
3.5702369035702373,93.90080502916292,48.97797591360293,141.30167406409262,49.85864430071181,146.5585073515065,154.34833919789395,204.1254151306263,197.26988632861665
3.603603603603604,109.62939446418262,46.34945454002617,146.35765326005622,51.51154647306802,146.80249063139473,154.43332803608652,203.77841277479743,197.2617885154705
3.6369703036369705,125.9902575536688,45.79390053254344,150.1911185891792,54.45377552839842,147.07034108558923,154.51669257109174,203.60312746852287,197.2241042793732
3.670337003670337,142.57702242034964,54.89955823501585,153.27723628298205,58.86500458866088,147.3582380309401,154.59670859459558,203.503738641863,197.14853861533075
3.703703703703704,159.48967087618902,63.409692912066376,155.77568247662808,63.85609342141328,147.64103485676387,154.68227273021876,203.491149108014,197.03791579101824
3.737070403737071,176.3710404805267,71.22622248278189,157.63586891409733,69.732440485282,147.91084527268427,154.78505396356886,203.5783706361072,196.890707798239
3.770437103770437,192.4292071591297,78.41989369350685,158.7988108968638,74.19961225715195,148.1770124024931,154.91889238729107,203.7485909171145,196.7371708502276
3.803803803803804,207.77278224459624,84.90494108036432,159.5732979902264,75.26255561824307,148.4754565028163,155.05385546080984,203.98697081620537,196.5910027307669
3.8371705038371706,222.2957939164631,90.77314311652412,159.91725868883125,76.48520293479791,148.7678702568738,155.2032210982132,204.3091467381556,196.46341288243272
3.8705372038705375,236.19801367429284,96.00519097544738,159.62251629257133,77.46515453985566,149.03436320960492,155.3480561661283,204.7284868696572,196.35376965945315
3.903903903903904,248.3664859631445,100.57446813094386,159.63314056080108,78.396257576095,149.1685070041056,155.46016150638556,205.22553371614435,196.26299774022652
3.937270603937271,258.78203110086554,104.40941625900528,159.78337377130896,79.23894071403866,149.25740577236516,155.62641890727082,205.7598950334764,196.09050747926685
