Time,Left Shoulder Angle,Right Shoulder Angle,Left Elbow Angle,Right Elbow Angle,Left Hip Angle,Right Hip Angle,Left Knee Angle,Right Knee Angle
0.0,1.2467794872663558,5.870476521985437,191.7918418753005,171.56896899810204,160.14345943200675,193.96614907792016,180.43499567708028,181.3814922357305
0.0333667000333667,1.1520219356137889,6.339078739530409,190.9476210832676,172.29833073314964,160.3289295375639,194.1681679652684,180.1778866780956,181.2118925766127
0.0667334000667334,1.0645241951735789,6.731253185919521,190.19212910367327,172.91500192451716,160.50108128817345,194.34764893013104,179.9604853599808,181.04539195204973
0.1001001001001001,0.9840419232701494,7.05128152040483,189.52144813895708,173.42566213462644,160.66079654393542,194.50546699746005,179.77953455356524,180.88255373638145
0.1334668001334668,0.9103307772279255,7.303445402238388,188.9316603915582,173.83699092589924,160.80895716494987,194.6424971922073,179.63177708967845,180.72394130394747
0.1668335001668335,0.8431464143713316,7.492026490672252,188.418848063916,174.15566786075743,160.94644501131685,194.7596145393246,179.51395579914984,180.5701180290876
0.2002002002002002,0.7822444920247915,7.621306444958479,187.9790933584699,174.38837250162285,161.07414194313637,194.857694063764,179.42281351280891,180.4216472861416
0.2335669002335669,0.7273806675127298,7.695566924349123,187.6084784776592,174.54178441091727,161.1929298205085,194.93761079047715,179.35509306148512,180.2790924494491
0.2669336002669336,0.6783105981595705,7.719089588096239,187.30308562392307,174.62258315106257,161.30369050353332,195.0002397444161,179.3075372760079,180.14301689334997
0.3003003003003003,0.6347899412897382,7.696156095451883,187.0589969997011,174.6374482844805,161.40730585231086,195.0464559505328,179.27688898720675,180.01398399218382
0.333667000333667,0.596574354227657,7.631048105668109,186.87229480743247,174.59305937359295,161.50465772694116,195.077134433779,179.2598910259111,179.89255712029046
0.3670337003670337,0.5634194942977514,7.528047277996975,186.73906124955656,174.49609598082174,161.59662798752427,195.09315021910663,179.25328622295038,179.7792996520096
0.4004004004004004,0.5350810188244455,7.391435271690534,186.6553785285128,174.3532376685886,161.68409849416025,195.09537833146769,179.2538174091541,179.67477496168098
0.4337671004337671,0.5113145851321634,7.225493746000843,186.61732884674032,174.17116399931547,161.76795110694914,195.08469379581385,179.25822741535168,179.57954642364433
0.4671338004671338,0.4918758505453299,7.034504360179955,186.62099440667865,173.95655453542412,161.84906768599097,195.0619716370972,179.26325907237262,179.4941774122394
0.5005005005005005,0.476520472388369,6.822748773479929,186.66245741076705,173.71608883933635,161.92833009138585,195.02808688026943,179.26565521104635,179.4192313018059
0.5338672005338673,0.465004107985705,6.594508645152817,186.73780006144483,173.456446473474,162.00662018323374,194.98391455028263,179.26215866220235,179.35527146668358
0.5672339005672339,0.4570824146617679,6.354065634450734,186.84310456115284,173.18430700026028,162.08481982163607,194.93032967209007,179.2495122566716,179.3028612812136
0.6006006006006006,0.3967874939682427,6.149144529816095,187.06691560958967,172.98316434627597,162.16257060129664,194.90462560937664,179.26269884538263,179.24299880528207
0.6339673006339673,0.332734271824269,5.947838633548413,187.2825127444769,172.7844527343135,162.25781050322956,194.8658940644141,179.21890578243355,179.20344577593565
0.6673340006673341,0.2928435830592085,5.7560247538496325,187.46804782688568,172.61202531782533,162.39321415481936,194.81798083856648,179.09411227835253,179.189681811083
0.7007007007007008,0.2796263796476443,5.571923870100909,187.63255721983128,172.46211995079184,162.5443802152987,194.75361304924664,178.91425177154514,179.20612593437292
0.7340674007340674,0.2976996218805356,5.409045808297277,187.7580552282141,172.32354272633984,162.69260708052397,194.6616616576301,178.69377404285345,179.26429770661707
0.7674341007674341,0.3459333083282381,5.250852775281831,187.85278751334485,172.19756361171787,162.82833536825228,194.5491807597785,178.4429190324243,179.3457330678985
0.8008008008008008,0.4328237607244115,5.101187327390349,187.89789721349013,172.08577782062952,162.96581601727218,194.42962057075545,178.14158822437506,179.44091676348157
0.8341675008341676,0.4328237607244115,4.947011017503884,187.9349654228861,171.9918673428934,163.09257232579844,194.3023789435924,177.81481003239335,179.5497961390394
0.8675342008675342,0.534069746931871,4.787683661722714,187.9923605334336,171.8453300869989,163.20350365509552,194.12760325575107,177.47972066914065,179.74294603888828
0.9009009009009008,0.534069746931871,4.616955668221025,188.069596328112,171.7103725886177,163.29886573781172,193.9349595379635,177.14856364226017,179.94040420719267
0.9342676009342676,0.534069746931871,4.44165580053571,188.1918084956878,171.58446264372117,163.3888403690087,193.7277324812009,176.8224871443027,180.1308015755446
0.9676343009676344,0.6417583779462809,4.272909217141337,188.28080498785727,171.51100811012654,163.45899612750193,193.53690289344712,176.51052227613013,180.29951488139733
1.001001001001001,0.6417583779462809,4.1147731071231455,188.3526394314868,171.43379600741378,163.51212459751898,193.3673634479476,176.21697530402938,180.4350483979009
1.0343677010343677,0.6417583779462809,3.964751953106455,188.4179341143277,171.39926984699298,163.5482293616114,193.21822680718805,175.92700560463507,180.5424110209608
1.0677344010677343,0.6417583779462809,3.8531663164558174,188.4569752443629,171.4429923027185,163.5677152870583,193.0942774127408,175.64715701300642,180.60651166908465
1.1011011011011012,0.7655663381161855,3.763826382212488,188.4903230664295,171.57638906163334,163.5543356734915,192.9895921149225,175.39475801731834,180.63294460940145
1.1344678011344678,0.7655663381161855,3.683452086549612,188.54259418798304,171.73556268704488,163.49017809980884,192.89805540667072,175.1842014499367,180.62436621424555
1.1678345011678346,0.7655663381161855,3.6179909592615913,188.6148086085869,171.99901884340687,163.38822768840404,192.8343359320905,175.01651444557143,180.56142592936607
1.2012012012012012,0.8786499337705568,3.5749506317259985,188.7080160292026,172.3286970678179,163.26057121035512,192.7992547122366,174.8970930816791,180.45529697621748
1.234567901234568,0.8786499337705568,3.5237793389342187,188.79872791788029,172.69774885556805,163.10420282736675,192.7859713243764,174.81150545124038,180.30687786084505
1.267934601267935,0.8786499337705568,3.4086742173843967,188.88323677465883,173.12753980259728,162.92259498216256,192.7881990128084,174.7614371197988,180.12273645560023
1.3013013013013013,0.8786499337705568,3.261171359493521,188.937754183716,173.59369136341542,162.7128497627182,192.77986903414143,174.73977846360535,179.90884722758744
1.334668001334668,0.9900682642058856,3.071945670598255,188.97726258620105,174.12168860639642,162.45908555149356,192.74621408528083,174.7509614881329,179.69012762866262
1.3680347013680347,0.9900682642058856,2.8543790236060964,189.0292466208644,174.6205453093126,162.183059990515,192.72342407533424,174.79268878648247,179.45345908460283
1.4014014014014016,0.9900682642058856,2.605920526681593,189.06329647859712,175.0108445931039,161.85306078137378,192.6405454518588,174.87215938564637,179.24019600698026
1.4347681014347682,1.1338024157670863,2.368708344881434,189.07399462384183,175.35759692710258,161.50028299912253,192.554790766982,174.99027462694272,179.02013900964124
1.4681348014681348,1.1338024157670863,2.127950463307956,189.10172760549727,175.61959321263487,161.12460402497834,192.4906898044324,175.15796796419383,178.79205313713777
1.5015015015015016,1.1338024157670863,1.922118944818444,189.1154660906413,175.87593050429143,160.74043745423893,192.4813476526612,175.37437173306554,178.54605924984824
1.5348682015348682,1.1338024157670863,1.7421958547403384,189.0572170246545,176.13889701424102,160.3710793991133,192.55903901191908,175.60736596795869,178.2715175331245
1.5682349015682349,1.1338024157670863,1.6057829266819192,189.0032057254411,176.4084674351305,160.02703967468,192.7008549371111,175.86902126253952,177.98074018322163
1.6016016016016017,1.30151856764504,1.5164289458774505,188.96070713143823,176.67680074881406,159.73224326851093,192.95972671626865,176.1498668798623,177.64270123415034
1.6349683016349683,1.30151856764504,1.4586178586316023,188.9643098342104,176.930037123493,159.4909514018306,193.3225300577775,176.4216064837694,177.24098875726753
1.6683350016683351,1.30151856764504,1.463973217299872,188.9242334594988,177.21896192512253,159.3111907843724,193.7698784099044,176.6435390357653,176.79623391139637
1.7017017017017018,1.30151856764504,1.5398900770419603,188.893488618175,177.47930290899745,159.1967734809007,194.2486012818593,176.81348434900391,176.33509574320254
1.7350684017350684,1.30151856764504,1.5398900770419603,188.86273706468543,177.70892327037492,159.1452251503825,194.764620405938,176.93823123067057,175.85638741908198
1.7684351017684352,1.478690873717295,1.6791318594328817,188.78168066412783,177.94569565339756,159.1474785208886,195.3067445179992,177.01767849282913,175.3822860433892
1.8018018018018016,1.478690873717295,1.6791318594328817,188.69208450494816,178.18119252240044,159.21378823824003,195.883109278024,177.04334990179296,174.91035059800208
1.8351685018351689,1.478690873717295,1.6791318594328817,188.6149874147701,178.38884701228224,159.31771687666796,196.45466378259144,177.0429960512326,174.46743290336036
1.8685352018685355,1.478690873717295,1.6791318594328817,188.501932752371,178.54786069250278,159.4671845476766,196.9979713817036,177.00120016504096,174.06807958881947
1.901901901901902,1.478690873717295,1.6791318594328817,188.40800866206,178.6537257316339,159.6633523229365,197.5037177634731,176.9177236164309,173.71682214273085
1.9352686019352687,1.478690873717295,1.8670854172613616,188.32296636275973,178.6495345294867,159.89906539804974,197.95253991768232,176.8008837186577,173.4375146395148
1.968635301968636,1.6661999110981307,1.8670854172613616,188.2898035362605,178.6009892851584,160.15416003141027,198.3296692621841,176.67563006275918,173.23690963615508
2.002002002002002,1.6661999110981307,1.8670854172613616,188.3255963024582,178.64353153863982,160.42003469911876,198.62812438694056,176.53436637028665,173.1110972687821
2.035368702035369,1.6661999110981307,1.8670854172613616,188.38989241330705,178.7508401996001,160.70574475613495,198.90279314320227,176.3766629890239,172.96328954307495
2.0687354020687354,1.6661999110981307,1.8670854172613616,188.460909516763,178.84481873575564,161.00094673971307,199.1201753136837,176.2118104533387,172.839641285434
2.1021021021021022,1.6661999110981307,1.8670854172613616,188.51475636805745,178.89112100011647,161.29919966351957,199.2946740342951,176.03855487274356,172.74943955541053
2.135468802135469,1.8570189694933736,2.111258781525748,188.61119223253027,178.9280126764282,161.60275326419463,199.4237453638348,175.85548218234467,172.69066739080935
2.1688355021688355,1.8570189694933736,2.111258781525748,188.7413772276589,179.00568640316234,161.8988702506473,199.5111782606003,175.6684720971882,172.66625127337383
2.2022022022022023,1.8570189694933736,2.111258781525748,188.91100787329933,179.0589929511214,162.19228401778545,199.5651055166356,175.46978641445932,172.66060873638355
2.235568902235569,1.8570189694933736,2.111258781525748,189.12403473727625,179.07565360264738,162.4680829135975,199.57777133986104,175.27214521649353,172.69126334917266
2.2689356022689355,1.8570189694933736,2.111258781525748,189.33769136626617,179.02392771158296,162.73852135030594,199.55418111415528,175.0669862856957,172.75757522104252
2.3023023023023024,1.8570189694933736,2.111258781525748,189.5445740459065,178.99326518687442,163.010413512737,199.49325156831944,174.851620551464,172.8570106834715
2.335669002335669,2.046197139474083,2.111258781525748,189.75182892042585,178.87049242170096,163.28577921770292,199.3925598120491,174.6256296984373,172.9881425104037
2.369035702369036,2.046197139474083,2.111258781525748,189.94457008698984,178.81454555705747,163.53004984362087,199.24043203662444,174.3971928248623,173.1451681740091
2.4024024024024024,2.046197139474083,2.4078010491612045,190.14090995539323,178.83999836163946,163.73744450970725,199.0474709090568,174.16653287382616,173.32287159854806
2.4357691024357693,2.046197139474083,2.4078010491612045,190.34282947901173,178.88126575355707,163.89742411770908,198.7876551053588,173.9434590533773,173.5376952262787
2.469135802469136,2.046197139474083,2.4078010491612045,190.5262094750428,178.74349883438234,163.9962116441629,198.4606598313551,173.7447811726304,173.80458092088514
2.5025025025025025,2.2178280786460243,2.4078010491612045,190.64472009165243,178.45560018534172,164.04193027114383,198.0830164482928,173.5812347170056,174.10641797826423
2.5358692025358693,2.2178280786460243,2.4078010491612045,190.72056877091305,178.1141544766079,164.02671038676877,197.64251917854983,173.45308945246282,174.44850049147342
2.569235902569236,2.2178280786460243,2.4078010491612045,190.7976547089959,177.89009309667344,163.9949002512151,197.24567002422057,173.35774910087028,174.7719395498733
2.6026026026026026,2.2178280786460243,2.4078010491612045,190.95540834186045,177.7644125803592,163.94944895189255,196.8877771819104,173.28668697573238,175.0865637161753
2.6359693026359694,2.2178280786460243,2.4078010491612045,191.09218279941453,177.75160637816091,163.90873648246702,196.57306446052377,173.22307224339832,175.3809135441978
2.669336002669336,2.2178280786460243,2.4078010491612045,191.1476710476557,177.70923605386002,163.8825628421243,196.31378120646383,173.1574782527242,175.64442117779694
2.702702702702702,2.392187758094427,2.7137535382996547,191.21524007822416,177.7305372181282,163.86396723118477,196.0963712695737,173.11071585696357,175.86847934338292
2.736069402736069,2.392187758094427,2.7137535382996547,191.2742668224789,177.70097221945787,163.85554674480983,195.94184062652727,173.07353040862623,176.03454146714026
2.7694361027694363,2.392187758094427,2.7137535382996547,191.343852757577,177.76316527848604,163.83466364385643,195.794348066648,173.05922713390285,176.16924147606454
2.802802802802803,2.392187758094427,2.7137535382996547,191.3699269860556,177.92715715820836,163.78944074721326,195.65850443082252,173.07336591992484,176.2701277424202
2.836169502836169,2.536735720530152,2.7137535382996547,191.42077621317617,178.1993894601185,163.73137508715226,195.5173899969768,173.11534150905328,176.35322966974442
2.8695362028695364,2.536735720530152,2.7137535382996547,191.63390138110768,178.52074356288253,163.64348620513942,195.3822918933154,173.18420804192377,176.4199829068436
2.902902902902903,2.536735720530152,2.7137535382996547,191.7735242731713,178.99406642876724,163.52204835740358,195.23310657561387,173.30007564685755,176.4928295676933
2.9362696029362696,2.536735720530152,2.7137535382996547,191.7714727666178,179.57084056798288,163.40493406275655,195.08410891572532,173.42397871453636,176.56478184850536
2.9696363029696364,2.536735720530152,2.7137535382996547,191.6703344582982,180.2573131200099,163.286982408827,194.9022815239869,173.55736506266993,176.6555381890875
3.003003003003004,2.685697218230134,2.7137535382996547,191.51182441311016,180.99603240609304,163.170207179263,194.6918699969721,173.6921258985069,176.76145351408024
3.0363697030363697,2.685697218230134,3.049771899753155,191.35511997516852,181.8011404106753,163.05603506656595,194.4626525371592,173.82855269314325,176.878304958379
3.0697364030697365,2.685697218230134,3.049771899753155,191.1411845025433,182.6440743373853,162.95199846012795,194.22966041871825,173.95356065266745,176.99681800471186
3.103103103103104,2.685697218230134,3.049771899753155,190.92670992718385,183.63762902994208,162.867004662302,194.00387875885144,174.05583752663588,177.1007204042326
3.1364698031364697,2.819597142692795,3.049771899753155,190.59986195400427,184.6746070250341,162.79320320965795,193.7774115683082,174.1403843533374,177.19082009082052
3.169836503169837,2.819597142692795,3.049771899753155,190.2051225558733,185.62579772942524,162.74577547325552,193.55257252350987,174.2050262556743,177.27806471918063
3.2032032032032034,2.819597142692795,3.049771899753155,190.09431934134184,186.4864736536405,162.7279002789533,193.3357920017613,174.2485683352837,177.35676815361893
3.2365699032365702,2.819597142692795,3.049771899753155,190.08714360769807,187.3389648739929,162.7533451937706,193.15612620359056,174.2559846998223,177.42353052848077
3.2699366032699366,2.9620149094879658,3.049771899753155,189.9844398120355,188.20092208183524,162.81525227897103,193.029231948385,174.23600459478246,177.46120789442745
3.3033033033033035,2.9620149094879658,3.049771899753155,189.6409955807557,188.9954653916305,162.91507582702187,192.9457636362989,174.18762503868268,177.47029392201688
3.3366700033366703,2.9620149094879658,3.049771899753155,189.3196956246976,189.63125718498907,163.05336900504503,192.904251646787,174.1101378182192,177.44876361332604
3.3700367033700367,2.9620149094879658,3.406228110164524,189.07272926544383,190.32456924019456,163.22708264180667,192.90031413110376,174.01091100040438,177.40699186137982
3.4034034034034035,3.0891488520844432,3.406228110164524,188.88260264246105,191.101557877288,163.43486221073593,192.93615373017823,173.88672250042407,177.34463220547187
3.4367701034367704,3.0891488520844432,3.406228110164524,188.75444789920044,191.99615660216625,163.65741323262446,192.99192883449183,173.7517193108699,177.26357532886487
3.4701368034701368,3.0891488520844432,3.406228110164524,188.6155110962393,192.87104965191128,163.8922482085309,193.06757330948017,173.6055799075538,177.17072209300926
3.503503503503504,3.0891488520844432,3.406228110164524,188.57196888383456,193.8846690155136,164.12381197994267,193.1489932443648,173.4607108235255,177.07207486442746
3.5368702035368704,3.244466767051709,3.406228110164524,188.65558250948308,194.79578391975264,164.35326457034216,193.2340722183372,173.31672971483005,176.9677514816935
3.5702369035702373,3.244466767051709,3.406228110164524,188.81380849592549,195.6201699126597,164.57665464744417,193.29128548563403,173.1810351077203,176.87945769022792
3.603603603603604,3.244466767051709,3.406228110164524,188.8830889951235,196.2412613424773,164.78844478320053,193.32409740258632,173.0471569825329,176.80039259994012
3.6369703036369705,3.244466767051709,3.406228110164524,188.99590895124464,197.04257798772787,164.9950601336638,193.33744984071856,172.9174534217216,176.73161680834883
3.670337003670337,3.244466767051709,3.406228110164524,189.29276424578808,198.00950935462888,165.2044099398849,193.374283787262,172.7881814608777,176.66333072542005
3.703703703703704,3.374652988169598,3.406228110164524,189.73010680203785,199.09188152025803,165.41530434796965,193.40416283128712,172.6593562763469,176.5977257152694
3.737070403737071,3.374652988169598,3.782539432371342,190.28698128951865,200.1847563537005,165.6263553738559,193.4241704159382,172.5323178416706,176.53200229098545
3.770437103770437,3.374652988169598,3.782539432371342,190.8659049720054,201.32093742297425,165.8230185819377,193.43036617975292,172.41662140730003,176.46834744401474
3.803803803803804,3.374652988169598,3.782539432371342,191.42610181613608,202.3732730625897,166.0146260999967,193.42675752104483,172.30594598715265,176.40895136728034
3.8371705038371706,3.5102553480276795,3.782539432371342,192.0213521083469,203.61486552254368,166.18593741981562,193.4085251337795,172.21107447405922,176.35312700791806
3.8705372038705375,3.5102553480276795,3.782539432371342,192.59051677136333,204.9128082056303,166.3238868386259,193.3696538632693,172.1403237458779,176.3024275099619
3.903903903903904,3.5102553480276795,3.782539432371342,193.14111504694864,206.45696857892693,166.41544612900978,193.30601114094475,172.1035810698483,176.26396803307398
