Time,Left Shoulder Angle,Right Shoulder Angle,Left Elbow Angle,Right Elbow Angle,Left Hip Angle,Right Hip Angle,Left Knee Angle,Right Knee Angle
0.0,63.49420146465639,81.63275555964519,155.8729924610038,152.46116956375985,138.59841848413018,133.41180656963007,206.39556202005488,225.43446789667604
0.0333667000333667,43.49723921586359,57.13712686451414,161.40018547217412,161.28573425162827,137.87987745812364,133.9086992058796,206.34103832107704,221.04272809528752
0.0667334000667334,29.020452277494776,38.13282793991704,166.15890472965344,167.59556190329994,137.159165859068,134.4465117759578,206.60787318854963,217.05099926176
0.1001001001001001,19.634959782764803,24.21863583146994,170.18718980225103,171.57973616813553,136.43894186743873,135.01709290845258,207.16845001763767,213.4487069139734
0.1334668001334668,14.911880864888545,14.993327584788886,173.5230802587764,173.42734069549567,135.7218636637114,135.61229123195187,207.99515220350645,210.2252765698079
0.1668335001668335,14.422334657080846,10.055680245489924,176.2046156680387,173.327459134741,135.01058942836153,136.22395537504363,209.06036314132092,207.3701337471434
0.2002002002002002,17.737440292556578,9.004470859189098,178.26983559884744,171.46917513523218,134.30777734186464,136.84393396631572,210.3364662262464,204.87270396386
0.2335669002335669,24.42831690453059,11.438476471502469,179.75677962001186,168.0415723463298,133.61608558469626,137.46407563435608,211.795844853448,202.72241273783763
0.2669336002669336,34.06608362621774,16.956474128046054,180.7034873003413,163.2337344173946,132.9381723373319,138.07622900775263,213.4108824180906,200.9086855869564
0.3003003003003003,46.221859590832935,25.1572408744359,181.14799820864528,157.23474499778715,132.27669578024714,138.67224271509332,215.1539623153396,199.42094802909625
0.333667000333667,60.46676393159096,35.639553756288095,181.12835191373293,150.23368773686815,131.63431409391745,139.24396538496603,216.99746794036005,198.2486255821373
0.3670337003670337,76.37191578170675,48.0021898192186,180.6825879844137,142.41964628399813,131.01368545881837,139.7832456459587,218.91378268831707,197.38114376395944
0.4004004004004004,93.50843427439506,61.84392610884363,179.84874598949696,133.98170428853786,130.41746805542545,140.28193212665926,220.8752899543758,196.8079280924428
0.4337671004337671,111.44743854287084,76.76353967077902,178.664865497792,125.10894539984794,129.84832006421416,140.7318734556556,222.8543731337014,196.51840408546727
0.4671338004671338,129.76004772034895,92.35980755064097,177.16898607810822,115.99045326728896,129.3088996656601,141.12491826153567,224.8234156214589,196.50199726091307
0.5005005005005005,148.01738094004423,108.23150679404546,175.39914729925488,106.81531154022164,128.80186504023877,141.4529151728874,226.7548008128136,196.74813313666007
0.5338672005338673,165.7905573351715,123.9774144466085,173.39338873004144,97.7726038680066,128.32987436842566,141.7077128182987,228.62091210293053,197.24623723058832
0.5672339005672339,182.65069603894685,139.19630755394746,171.18974993927856,89.05141390000519,127.8955858306974,141.88115982635858,230.39413288697665,197.98573506057943
0.6006006006006006,190.9195235165228,145.5367952036639,169.98811455108768,83.4031088847433,127.35329384445777,141.67967839651897,231.88899788265212,198.4367151776559
0.6339673006339673,196.72342615066412,150.48027120360865,167.67055950957524,79.02951867673946,126.70012446120886,141.62428953838244,233.0293984318784,200.2146176991136
0.6673340006673341,200.2670143232461,154.23219850464224,165.30644058365183,75.93850093778455,126.30016420404476,141.55924401280515,233.53733839820728,201.7890746890008
0.7007007007007008,201.5901012493647,156.6588301650999,162.37224478164345,73.9058836517647,125.87355785264648,141.37842973934423,233.7411510468286,204.36778096424132
0.7340674007340674,200.2698876790698,157.88650842216975,159.4744451215521,76.01478139175916,125.79886898375628,141.3129985282624,234.2214223367833,206.2660006497211
0.7674341007674341,197.59670648470583,157.90955786646452,157.2036848560235,79.96504482899859,125.7763321440828,140.87572873514932,234.87712209013523,208.24539902253096
0.8008008008008008,193.22356698992263,156.6244921861554,154.55681536866098,82.95807637519556,126.25496534880588,140.1836332940739,235.2373822422984,210.3468567496532
0.8341675008341676,186.94241136732128,153.93062810877254,152.9100915447354,86.22247777485545,126.48613852054253,139.24123444966827,235.449137727132,212.676854899546
0.8675342008675342,178.22533394523708,149.8284859217513,151.37775936906738,88.84609198190996,126.86416499130964,137.93671242869982,235.73536486505424,215.18604457106912
0.9009009009009008,167.68066709059792,144.12432776714886,148.54946643582352,90.81662626784951,126.90989062862896,136.37703257586347,235.0506424525771,217.81615967883087
0.9342676009342676,155.39758573760997,136.05149924250026,145.56173907611293,91.54794413338682,127.44698821563146,134.9230922588007,233.81071349553133,219.87323800872525
0.9676343009676344,140.602960774277,125.22734866183914,143.85070229876388,90.870343851549,128.12175075637012,133.7019615969656,231.78636805150123,221.36685808919083
1.001001001001001,123.14989179366516,112.630503911907,142.95493175380014,91.42096590225331,128.7791711743856,132.38880634225848,229.17669296024965,222.89587100181703
1.0343677010343677,102.87105549466654,98.4030053991873,142.19365170747858,92.29278469777726,129.27426353926052,131.3275673559321,226.6236422820607,223.9081967171897
1.0677344010677343,80.32975721771663,84.05165938916333,138.33949564050226,94.17650683942014,129.87044093842226,130.55823884310388,223.36298635399652,224.23289952553887
1.1011011011011012,57.72275776853631,68.74098903311253,135.98935592586864,96.38191035310776,130.71944948296863,130.0568010871509,219.56519329807324,224.6443362501539
1.1344678011344678,45.45399389759241,52.47531776433407,133.0075189731922,94.01692531150044,131.29304678247442,129.59659673393986,215.5550457662964,224.786106197198
1.1678345011678346,33.26478157464068,36.98568143607312,130.29182353111017,91.80129254256929,132.11327474968678,129.09873738849086,213.2062800331425,223.8673471808766
1.2012012012012012,21.85082569089161,30.615115676609456,126.8034981824612,87.45313180463603,133.03082117911885,128.58325243314152,211.0465012718053,222.657362304196
1.234567901234568,12.100901150130344,25.083720449106828,122.4585005691025,84.04281405406417,134.1834246008448,128.1272531125401,208.975597440276,221.1718248830948
1.267934601267935,3.723098169856951,13.07778648799043,116.72958905098606,78.68312250022994,135.32227290892743,127.96712493534756,206.3583634389812,219.474266185588
1.3013013013013013,-10.94576796883622,5.473035630787935,110.069300437681,72.97574481062617,136.71512215999152,128.11308732829175,204.1985544928217,218.0624977671728
1.334668001334668,-20.394366619159825,1.4943623292803174,102.74671900213738,68.57824664862609,137.93493301612708,128.55439544276493,202.0296394478424,216.6061253303617
1.3680347013680347,-24.84876559569269,1.4943623292803174,95.07821763464044,65.9717597609582,139.18868975788246,129.27592475851011,199.8870064189716,215.00267149481652
1.4014014014014016,-24.738763722543936,1.4943623292803174,87.53893434724203,61.696561642005065,140.45607917577607,129.97294250088606,198.5181588718734,213.61254957399493
1.4347681014347682,-19.73164465072956,1.4943623292803174,80.19476887655333,59.00436149783933,141.62317793796956,130.80150045161216,196.71483415458675,211.7303334239924
1.4681348014681348,-1.6651597915017762,1.4943623292803174,72.83985455571697,55.46919342991921,142.53083546334557,131.2083835030487,196.20881956583952,210.1255487308173
1.5015015015015016,12.496419804391609,1.4943623292803174,64.80868371192966,51.201138503544975,143.17655002853118,131.1827520042097,196.2490968810185,208.91847000361173
1.5348682015348682,18.25505342602501,1.4943623292803174,55.677645531305785,48.32308597494031,144.11082726493817,130.99056987987373,196.56986408296177,207.88671316238785
1.5682349015682349,27.29296403200757,1.4943623292803174,55.75883979870544,47.10264475262687,144.9199881867231,130.65844730365285,197.00821731518985,207.06331876848915
1.6016016016016017,38.79774599078756,1.4943623292803174,53.91967681955629,48.19303456896326,145.4941699265348,130.3722779058136,196.1611872294852,205.94920917126385
1.6349683016349683,51.29375803053674,1.4943623292803174,51.40723071919825,51.2056750425673,146.28898436415938,130.51573304850876,195.9139961840796,205.5556784572486
1.6683350016683351,64.44853235908278,1.4943623292803174,48.65064479130677,56.11128997810732,146.87345868396253,131.15515557491298,195.516072322017,204.5507249509945
1.7017017017017018,78.55534636457946,1.4943623292803174,46.60525851900811,62.71936941964577,147.5713829746881,132.09873456191843,194.69458549011256,203.26151145281804
1.7350684017350684,93.52889859952488,1.4943623292803174,45.07019279457375,70.94296138586195,148.22121877206064,133.1270335873004,194.40124160236,201.9514567916358
1.7684351017684352,108.39648644402936,0.7846100209903835,44.87650767602495,80.2884790139157,148.9262565220403,134.17410442430912,194.81624623857203,200.64511210066763
1.8018018018018016,123.5832561595918,6.456982787346648,45.868832255649394,90.9108557655503,149.61743438759734,135.26054825581542,195.5529299966136,199.2502092749873
1.8351685018351689,138.94104153265937,15.822300283575846,46.9950573777264,102.72646152875735,150.25339625622914,136.40377150830955,196.2811917871972,197.66219666214533
1.8685352018685355,154.21167169944275,31.47904496833596,48.91250738713727,115.65009484122017,150.9662675481101,137.69321040333722,196.6491405901349,195.7274031174601
1.901901901901902,169.82415741873345,40.24834619911003,50.65390392490287,125.8751960627869,151.62162791566104,138.8695560178366,196.93016481396896,193.9481951371463
1.9352686019352687,185.2611915979536,48.36008951040558,53.207011815064426,133.93225248677,152.2779864723899,140.1356858227357,197.0196268631505,192.20282710076413
1.968635301968636,199.94115882426112,57.588096306828085,56.87313237486853,141.56342321360842,152.97301771141676,141.44176206145187,196.87297143909723,190.511523882941
2.002002002002002,214.0261894191365,68.37691787545488,59.91873526358204,147.5911427730359,153.70075335081668,142.64082529478756,196.5150920306443,188.9462098780221
2.035368702035369,227.7258993897444,80.02794966716422,62.45314595718254,152.88065289090054,154.45801375112538,143.79093350357508,195.80890165070863,187.34056928787547
2.0687354020687354,240.3292046281137,92.58756384821756,66.02694059014644,157.10398762261042,155.24267437350184,144.9761089173926,194.92574520021188,185.5499522787036
2.1021021021021022,251.43129114895933,105.6892162242028,70.15797302638798,161.59736784075469,156.0417683407743,146.25654249598307,193.85271274926885,183.5470709415714
2.135468802135469,261.4470009937969,119.28544655870354,73.62740389020294,166.12468072210868,156.80265688414437,147.6252055990828,192.63454666482724,181.43897095553905
2.1688355021688355,270.35151314255376,133.21476772431532,76.70619724617652,168.40277806642982,157.56085464956675,149.0586780311158,191.2709206307325,179.23305292285747
2.2022022022022023,277.6132091119143,147.30632663155686,80.52092114734018,169.32784544368278,158.32210004268566,150.47227046748185,189.7908328342308,177.16097796869292
2.235568902235569,282.9995537701378,161.3000343543688,83.27413333671619,167.79585158315487,159.07669277006443,151.75226429343527,188.30526895370383,175.24943753578023
2.2689356022689355,286.68798601927745,175.23213330063555,84.53219280573474,165.09560199611042,159.8189678563575,152.94882412348662,186.97367823860105,173.39071737758312
2.3023023023023024,286.0516771080468,188.70687421693697,83.99469233102545,161.82539445461697,160.54617453805807,153.8999118254258,186.30818373125675,172.0937513588562
2.335669002335669,284.66812017261424,201.5275871521409,83.13159260602148,158.12573234234458,161.25371410314995,154.7877147135685,185.63485446237783,170.94815773486692
2.369035702369036,282.7218577540843,213.2724531200129,81.99132513817435,154.10304083900576,161.93834066906695,155.61084427669127,184.9418280067868,169.96063568399586
2.4024024024024024,280.3974323935627,224.3241257971019,80.6223214349361,149.8637451243142,162.59680835324392,156.3679120035718,184.21724193930777,169.13788438462495
2.4357691024357693,277.87938663215544,234.1521506214815,79.07301300375865,145.51427037798356,163.22587127311584,157.05752938298784,183.44923383476487,168.4866030151362
2.469135802469136,275.35226301096816,243.0993402035417,77.39183135209403,141.16104177972753,163.82228354611772,157.67830790371704,182.62594126798223,168.01349075391164
2.5025025025025025,273.00060407110675,251.4848682240441,75.62720798739423,136.9104845092598,164.38279928968444,158.22885905453714,181.73550181378408,167.7252467793332
2.5358692025358693,271.00895235367705,259.0761057774533,73.8275744171113,132.8690237462938,164.90417262125104,158.70779432422586,180.76605304699447,167.6285702697829
2.569235902569236,269.5618503997848,265.72422905792405,72.04136214869723,129.14308467054354,165.38315765825243,159.11372520156084,179.70573254243757,167.73016040364274
2.6026026026026026,268.84384075053583,271.62503492697545,70.31700268960388,125.83909246172232,165.81650851812356,159.44526317531987,178.5426778749375,168.0367163592947
2.6359693026359694,269.0394659470361,275.41276434831093,68.70292754728338,123.06347229954424,166.20097931829943,159.7010197342806,177.26502661931843,168.55493731512075
2.669336002669336,270.3332685303913,277.3806158253407,67.24756822918768,120.92264936372256,166.53332417621496,159.87960636722076,175.8609163504045,169.2915224495029
2.702702702702702,272.9097910417074,274.0901508713551,65.99935624276878,119.52304883397105,166.81029720930513,159.97963456291805,174.3184846430198,170.2531709408232
2.736069402736069,276.95357602209003,270.290646797017,65.00672309547866,118.97109589000348,167.0286525350049,159.99971581015018,172.62586907198855,171.44658196746354
2.7694361027694363,282.64916601264525,266.2261048260478,64.31810029476938,119.3732157115334,167.18514427074922,159.93846159769487,170.7712072121348,172.878454707806
2.802802802802803,290.1811035544786,262.1405261821703,63.98191934809287,120.83583347827448,167.27652653397303,159.7944834143298,168.7426366382828,174.55548834023244
2.836169502836169,299.7339311886962,258.27791208910764,64.0466117629011,123.4653743699406,167.29955344211135,159.56639274883267,166.52829492525655,176.48438204312498
