Time,Left Shoulder Angle,Right Shoulder Angle,Left Elbow Angle,Right Elbow Angle,Left Hip Angle,Right Hip Angle,Left Knee Angle,Right Knee Angle
0.0,-42.08402702650572,32.26997073153621,171.9187280398602,172.68133308416304,140.67093609512474,137.43058957678824,213.79179090247885,210.64716652813604
0.0333667000333667,-13.642042633946488,31.8309663056146,162.20350874511158,171.64268605044495,140.37907055586228,137.0776700273883,214.34286882239724,210.6488154527865
0.0667334000667334,11.527028483163946,31.438667907688444,153.66479365569464,170.72333348246292,140.10609316521587,136.7603325908643,214.8371846323756,210.66214874204888
0.1001001001001001,33.5787958461575,31.09044406782802,146.24770524635028,169.9168857819503,139.85176511714158,136.47679080123052,215.27642222069187,210.6863817541908
0.1334668001334668,52.66886897636608,30.783663316103617,139.8973659918194,169.2169533506405,139.61584760559552,136.2252581925013,215.66226547562405,210.7207298474798
0.1668335001668335,68.95285739512161,30.515694182585523,134.558898366843,168.6171465902669,139.39810182453377,136.00394829869086,215.99639828545,210.76440838018368
0.2002002002002002,82.58637062375598,30.28390519734403,130.17742484616193,168.1110759025629,139.19828896791245,135.81107465381356,216.28050453844767,210.81663271057008
0.2335669002335669,93.72501818360116,30.085664890449426,126.69806790451712,167.6923516892619,139.01617022968762,135.6448507918837,216.51626812289507,210.8766181969067
0.2669336002669336,102.524409595989,29.918341791971983,124.0659500166495,167.35458435209725,138.8515068038154,135.50349024691553,216.7053729270701,210.9435801974612
0.3003003003003003,109.14015438225144,29.77930443198201,122.22619365729996,167.09138429280236,138.70405988425185,135.3852065529234,216.8495028392508,211.0167340705012
0.333667000333667,113.7278620637204,29.66592134054978,121.12392130120946,166.89636191311064,138.5735906649531,135.28821324392155,216.9503417477149,211.0952951742944
0.3670337003670337,116.4431421617278,29.575561047745584,120.70425542311892,166.76312761475543,138.45986033987523,135.21072385392435,217.0095735407405,211.17847886710845
0.4004004004004004,117.44160419760551,29.50559208363971,120.9123184977692,166.68529179947012,138.36263010297432,135.15095191694604,217.0288821066056,211.26550050721107
0.4337671004337671,116.87885769268549,29.453382978302447,121.69323299990126,166.65646486898814,138.28166114820647,135.10711096700095,217.00995133358805,211.3555754528699
0.4671338004671338,114.91051216829965,29.41630226180408,122.992121404256,166.67025722504286,138.2167146695278,135.07741453810337,216.9544651099658,211.44791906235267
0.5005005005005005,111.69217714577988,29.391718464214897,124.7541061855744,166.7202792693677,138.16755186089438,135.0600761642676,216.86410732401683,211.5417466939269
0.5338672005338673,107.37946214645812,29.377000115605185,126.92430981859728,166.80014140369593,138.1339339162623,135.05330937950794,216.74056186401907,211.63627370586048
0.5672339005672339,102.12797669166694,29.36951574604548,129.44785477806676,166.9034540297625,138.11562202958876,135.05532771783982,216.5855126182522,211.7307154564226
0.6006006006006006,98.76423171325422,29.359955651765866,137.27363999495722,166.95737760802052,138.17222703142468,135.02149773299632,216.3722080971585,211.83078716588656
0.6339673006339673,94.86548977162651,29.349086102290848,136.5874123854682,167.04232990844386,138.2555555580598,135.0080505959794,216.1144768882384,211.9241899549341
0.6673340006673341,89.7921873738535,29.307016893908177,137.8138149727492,167.06454388287645,138.30451267282692,134.96105885964607,215.8906637929728,212.02873151638752
0.7007007007007008,83.84453532551692,29.252076573783288,140.26922314999888,167.08238884892762,138.3322720403434,134.9163105372836,215.6529181444868,212.1304270623993
0.7340674007340674,76.95019485836906,29.17764272041305,143.69804742498525,167.09242492893435,138.40367420784625,134.89320220752813,215.36108555794445,212.23339039337463
0.7674341007674341,69.30445678215234,29.072676348655246,147.70552352425892,167.06976910176598,138.41111079916718,134.88044590880702,215.1348607797355,212.32839322160967
0.8008008008008008,60.45893682732646,28.984790176682065,150.43346138837182,167.1068514643136,138.3576835109415,134.86499439117557,214.8705865478144,212.42641782965327
0.8341675008341676,50.48569686375002,28.913404571571405,151.7188367769853,167.18882994592798,138.3401097197251,134.86399287180876,214.53398972326409,212.5104109264909
0.8675342008675342,40.01406488212877,28.817540029756888,152.05988904493896,167.19939854538856,138.32283834607676,134.84248759704977,214.13402828088817,212.5967626384484
0.9009009009009008,30.362440221620982,28.7298260242861,153.47550624224328,167.21560915894307,138.34426311132756,134.85189147053129,213.6865768310463,212.66098465799087
0.9342676009342676,26.06886719424484,28.678771059991004,155.78439749166665,167.2771577872563,138.47610787041836,134.8964410246949,213.164776679073,212.69262871326143
0.9676343009676344,22.96709065276912,28.64181198033825,158.0922394185495,167.35445134765894,138.6291463126783,134.97430323144147,212.6537433525409,212.6841575361221
1.001001001001001,21.02809554322177,28.6833517926175,160.44648060009186,167.54065726454706,138.8167635163891,135.08469112400027,212.1659957352313,212.64028022518687
1.0343677010343677,20.12899064973412,28.760529118365948,163.25294919604292,167.76220884496126,138.98133925046716,135.21458856962812,211.75822708303667,212.5498296105884
1.0677344010677343,20.71081849004485,28.844463366622435,165.7912457697325,167.99424586141294,139.15885844567842,135.34490165117285,211.3919625968808,212.4333791719539
1.1011011011011012,22.834420246017,28.877786167561503,168.3950700659449,168.19927639911486,139.33151357259024,135.51026851445334,211.06564732171216,212.27440994872228
1.1344678011344678,26.72313704318673,28.806392108811323,170.9675954497664,168.19514352178064,139.37296586499542,135.6391433665221,210.8790977635835,212.1233048837485
1.1678345011678346,26.74930626692969,28.701203874398672,172.346700153685,168.19179455211497,139.38260259479722,135.83898392012875,210.744445556534,211.9419980744936
1.2012012012012012,26.294460522869247,28.61244222629441,172.80284648979185,168.2049636294571,139.30950857782986,136.04705465713138,210.7245044475096,211.7440608006144
1.234567901234568,26.16235220364194,28.5041846863772,172.82014968463767,168.2183318905101,139.21230104143734,136.30204898411833,210.77518878807567,211.5036426283
1.267934601267935,26.349103782578823,28.50664292516504,172.4312812395081,168.3727495292833,139.193494298803,136.62815546688972,210.78748838960533,211.20161254336267
1.3013013013013013,27.46520998084875,28.46821012080332,172.18556918848998,168.51523845284316,139.18275403738323,137.02671195169603,210.8457242081835,210.839962375288
1.334668001334668,30.70006120559845,28.391025102869563,172.6860824009964,168.65015346017526,139.1306657415666,137.46398841916425,211.0344301227781,210.42078698924004
1.3680347013680347,31.31816764672076,28.256440820541616,173.76705506309298,168.74871978904656,139.0824908910876,137.95674530820204,211.2603247062314,209.9569644630064
1.4014014014014016,31.886152909000582,28.060945089750675,175.07551684783755,168.79957197336267,139.01551724558527,138.49006140675326,211.557194250388,209.4490373224145
1.4347681014347682,32.34398745258901,27.819656976595688,176.50623057410593,168.81207528654335,138.971584870566,139.0624457540677,211.869552423993,208.9082779272704
1.4681348014681348,32.785439075859905,27.61481969236445,177.94748061074785,168.9290902230665,139.03803324199393,139.65563248433313,211.94179616684607,208.34665518878688
1.5015015015015016,33.066268054408496,27.38494503824052,179.28618637432436,169.01407243818895,138.97991241800244,140.26901552486007,212.208603470522,207.77068030834604
1.5348682015348682,33.24911817327318,27.19668179943156,180.4999892995164,169.13414455977352,139.05277548275902,140.83287392213822,212.16188799713493,207.21366747596275
1.5682349015682349,33.14703759079007,26.992256953573893,181.21324764449017,169.1697987282131,139.04485040796789,141.35861488072257,212.25018920871463,206.6653127443741
1.6016016016016017,32.926910723014,26.8100371337268,181.73207919209696,169.05182847469905,138.95037842779567,141.81839745465615,212.50193061672385,206.156311741512
1.6349683016349683,32.83396235378629,26.57904606461651,182.6479347511683,168.79971545875338,138.75639707559114,142.25594344924406,212.95300500902263,205.65942898339097
1.6683350016683351,32.63410810957541,26.284515686598898,183.39380339310785,168.44353471448602,138.48548002358106,142.61304185954555,213.5425381148013,205.19364194343004
1.7017017017017018,32.51494888130254,25.901685791132465,184.52038157679,168.05793940243944,138.1891105674007,143.02411576499318,214.1168262875133,204.69511190664736
1.7350684017350684,32.26717808962814,25.40743042084928,185.5557212077564,167.56013441495548,137.98295337109377,143.4948547635558,214.58565164167644,204.17398178159564
1.7684351017684352,32.59060629866481,24.825710494764984,179.6219460786271,166.99348597913752,137.82613226840644,144.0098701560895,214.9498003782549,203.65019968806385
1.8018018018018016,32.677563496604826,24.16439718186624,180.96765485740644,166.4506457467809,137.81690643244943,144.58728762016852,215.088486212578,203.1109203986024
1.8351685018351689,32.59594295097012,23.457033769637828,181.36847687579063,165.86752668335677,137.97575971439014,145.237572360017,214.98238946665884,202.55225484288863
1.8685352018685355,32.51900403674188,22.67415826143414,181.84045406699212,165.19733725274406,138.36654749332894,146.00656941319045,214.6089321424512,201.96833709199544
1.901901901901902,32.307337713449016,21.85111443933504,182.1019241936544,164.51778208210175,138.78397479286966,146.8149840008729,214.1204751485736,201.38661533779737
1.9352686019352687,32.02683592102169,21.030918196835785,182.1459611485307,163.7878566941519,139.22945890114818,147.61191119415176,213.518441042382,200.84375262971096
1.968635301968636,31.79714908520365,20.18494625728104,182.28859233107903,163.0389580727337,139.72849780270104,148.3953488390466,212.8990769584433,200.3319920478669
2.002002002002002,31.56587806675969,19.39089789382889,182.35000432623363,162.42897651579892,140.29004640145752,149.1458785006363,212.23188641607592,199.87212591995416
2.035368702035369,31.208031666942706,18.661955462750765,182.4701132577769,162.0434396337959,140.90499749784848,149.90452926722392,211.57500721178155,199.4350268560424
2.0687354020687354,30.7392477984677,18.082032615393643,182.1247391735376,161.3138392767322,141.48474308919404,150.61072784629238,211.0034144341224,199.04047007594795
2.1021021021021022,30.14538298399369,17.49963719134628,181.75562782428784,160.78368177334792,141.9326589279446,151.2634058992912,210.595104609316,198.69829463203504
2.135468802135469,29.38483699313977,16.92591471611907,181.0199790383449,160.72315959343274,142.36210772010918,151.89099288578154,210.2742803123969,198.3912303993613
2.1688355021688355,28.5349613922379,16.305237025240007,180.4073422642501,161.80119869704265,142.70122469271692,152.46174025672073,210.05196380336147,198.1393507858373
2.2022022022022023,27.86393223104848,15.036915143367532,180.13430214373184,166.26441344019,142.89847761899756,152.9323078590789,209.9254215893119,197.9915025245628
2.235568902235569,27.19518054272163,13.7581687276388,180.2381521120664,169.14442166517526,142.91989894974714,153.3319021612785,209.9327894866651,197.9124876182924
2.2689356022689355,26.552384977214565,12.776887729120311,180.49760506148385,170.54383887377446,142.82343403952206,153.6222256909763,210.05477729046183,197.9249601809426
2.3023023023023024,25.74595961420412,12.120790532375093,180.99882644249848,170.93211773634894,142.72879127031328,153.90250475335898,210.20222985595527,197.9463290568828
2.335669002335669,24.775602145590383,11.830126016204805,183.1563327832933,169.9132881347539,142.59334228847905,154.1179740422701,210.31988161220863,198.0206550357764
2.369035702369036,23.66557506128828,11.68063444288285,185.10471924142416,167.08570496689228,142.48543413868484,154.33445794566046,210.44035409641447,198.08519455317227
2.4024024024024024,22.592454939710105,11.799144115723012,186.3867178697584,163.65484016302713,142.27649630988316,154.53936646558185,210.6296047353356,198.15275655985343
2.4357691024357693,21.256285844830003,11.800858215949978,186.7678339736189,160.30748249167826,141.87326099099073,154.65622778183706,211.01979153898355,198.2384138306174
2.469135802469136,19.84752224403117,11.811453263261056,187.8087286201633,157.33518242461662,141.43681411017042,154.68611480468883,211.48621965553613,198.3319164027148
2.5025025025025025,18.40138455342812,11.817264498680183,189.1318978104232,153.60234764938195,140.9639841162904,154.66610800689844,211.990327296328,198.43871155445024
2.5358692025358693,16.534320493212718,11.909421589637894,190.0188011877748,149.0443324570961,140.39528900178783,154.55622128793038,212.58035005836751,198.55991152445537
2.569235902569236,14.945579878766242,12.119816200608575,190.9606245416034,143.95134162163683,139.836860692133,154.38518360737658,213.1618952995639,198.69606966707
2.6026026026026026,13.719302614315778,12.122054247038331,191.3995184296889,138.88519388213737,139.1764906713504,154.167329275593,213.80654754008344,198.89833911677664
2.6359693026359694,12.710006803602004,11.855444323897316,191.6520978803233,133.44155898509732,138.30331136601797,153.861479366307,214.8640657375052,199.14252984061187
2.669336002669336,10.414303754664632,11.658117752540864,194.38208618937344,127.28405757045606,137.42497346379474,153.45355930113848,216.04441107546583,199.3904917979104
2.702702702702702,8.213579272087685,11.52877842188352,195.89344355828348,120.47039523925372,136.56321848340298,153.04941492410833,217.35415771624653,199.6090839831081
2.736069402736069,6.139518512798487,11.50243280668924,195.99202031282573,113.0208122700466,135.71673567513457,152.50851617802002,218.77720920398863,199.81483156004327
2.7694361027694363,4.661384080938364,11.300539871902057,195.36076182953133,105.6557709675012,134.9574118634613,152.11606479607312,220.1942709578628,199.9596529313613
2.802802802802803,3.788985662516808,10.63118969565429,194.29059230095547,98.55564054263138,134.4077370851663,151.7922299333483,221.47198983390103,200.0644108568595
2.836169502836169,3.4221602107773945,10.048214485677413,192.4991468222435,91.3572692815253,133.9969139581571,151.645958739323,222.5441977945552,200.06445636697
2.8695362028695364,3.4221602107773945,9.881517064931652,190.81367517871487,84.22005788169656,133.91696163918007,151.60234882299974,223.4204151064527,200.01208670289185
2.902902902902903,3.4221602107773945,10.171778207402005,188.76741993947203,77.03272265172264,133.98587100097572,151.64662749819243,224.14502588721524,199.9149838823764
2.9362696029362696,3.4221602107773945,10.817357963077615,185.85346061301365,68.94415865303868,134.28922365186273,151.75290954161954,224.65738953091736,199.7788470681217
2.9696363029696364,3.4221602107773945,11.777589636308932,182.75473805027792,60.94044359489562,134.66326297661882,151.87459548290715,225.10627046849564,199.64585437968483
3.003003003003004,3.4221602107773945,12.970049119043898,178.4963410582929,53.71564479979074,135.06212661367695,151.89730734656746,225.5577568873978,199.48469258160827
3.0363697030363697,3.4221602107773945,14.490714614447334,174.00408380725014,47.10650342608339,135.32055220737385,151.87260837700657,226.068306154602,199.3673623602618
3.0697364030697365,3.4221602107773945,16.172135826394527,169.23129114584344,40.634937671024616,135.5167950036053,151.85814162480804,226.54198120619515,199.298153331662
3.103103103103104,3.4221602107773945,18.06428448122068,164.7686014781231,35.00528768931675,135.72613840115255,151.87952935561225,226.915753329986,199.2637323590844
3.1364698031364697,3.4221602107773945,19.93390711765843,160.8623713153899,30.22049059537401,135.97885123552015,151.9106674477362,227.18749434260872,199.2625153923509
3.169836503169837,3.4221602107773945,21.965795307987147,157.300948517385,26.393757304726936,136.18006394618132,151.95384234107735,227.43083753882647,199.2904035422837
3.2032032032032034,3.4221602107773945,24.13687121510681,153.77198165263127,23.688572360666885,136.31374236559088,152.0010323263051,227.7630439260236,199.3350256347272
3.2365699032365702,3.4221602107773945,26.42419150285492,150.96572871427443,22.920769668526145,136.44885192469405,152.0970975673705,228.01635801179785,199.3959266973117
3.2699366032699366,3.4221602107773945,28.74026413440386,148.5269686153677,23.93378239018983,136.56816702933915,152.25826817960066,228.17905445098432,199.482123011314
3.3033033033033035,3.4221602107773945,31.12865718408413,146.95691322596548,26.033752003102823,136.63913123010187,152.41881472696906,228.21849473325773,199.63484292264505
3.3366700033366703,3.4221602107773945,33.55536246933669,146.0668852271668,27.945119565845665,136.7083563402381,152.59170009069814,228.13725091726133,199.83636016748736
3.3700367033700367,3.4221602107773945,36.725185842059226,145.58680924165245,26.27291587483778,136.81454846180213,152.75041409280135,227.90473975434125,200.0735818279327
3.4034034034034035,3.4221602107773945,40.22492223049005,145.53698590713535,24.45764003874479,136.94914223141254,152.88251413738251,227.5166343109603,200.3283322501705
3.4367701034367704,3.4221602107773945,43.74660683328448,146.1212873394665,22.97177740610756,137.05968027777843,153.01182263647425,227.02242661261383,200.59526784001267
3.4701368034701368,3.4221602107773945,47.17656176663955,147.04861505226737,21.820032435539485,137.20217840320126,153.12603570843498,226.3169652665624,200.860788486972
3.503503503503504,3.4221602107773945,50.37157175900048,146.77330929949647,21.423234537738416,137.3337043014129,153.22148281312383,225.62010812469,201.1178297747073
3.5368702035368704,3.588670966070403,53.451943748900646,146.85157636770938,22.62793664827434,137.45090495776748,153.31782991957618,224.9248801011319,201.37492284392795
3.5702369035702373,3.588670966070403,56.20379380665234,147.69971628195617,24.751206700667016,137.6158766814304,153.3783804662019,224.229354238682,201.6483201454276
3.603603603603604,3.588670966070403,58.74593399354925,149.63266165493798,26.89534979987745,137.82736069582128,153.47058622699237,223.510018890228,201.907320413463
3.6369703036369705,3.588670966070403,61.02990778833257,151.3248196827281,28.433176888764773,137.95737715608968,153.56663980682907,222.8718768757394,202.1959163226773
3.670337003670337,3.588670966070403,63.12939950253806,153.0039633277587,30.33871910419338,137.9454087139837,153.70344033972668,222.3602063883453,202.4466249301168
3.703703703703704,3.588670966070403,64.8278625161693,155.31638302557997,32.722670537071785,137.9289357690165,153.8535141044049,221.8914854831503,202.7341503012544
3.737070403737071,3.588670966070403,65.98842563826882,157.77054810716754,35.35675474698093,137.7653888925224,154.03889945678415,221.5784770084929,202.9815593670897
3.770437103770437,3.588670966070403,66.9409302206562,160.87810794737848,37.61464842452974,137.6383037078936,154.15541408258431,221.34336794386732,203.24901954406812
3.803803803803804,3.588670966070403,67.80431480998878,164.53887902917407,39.47044745679278,137.48521009988158,154.17392739247572,221.20518001339715,203.5483572045337
3.8371705038371706,3.588670966070403,68.3708036984292,165.07936077394447,41.66274957592778,137.45588659469303,154.15611621888186,221.0591865620155,203.93708201265292
3.8705372038705375,3.588670966070403,68.5716276812219,165.38002479619198,45.031275215769405,137.64889056618185,154.12650372961568,220.71724824963945,204.36107163666284
3.903903903903904,3.588670966070403,68.38685906914147,165.84416825436864,48.55944157847554,137.9199895209533,154.19673671841113,220.4052838571857,204.85372285809743
3.937270603937271,3.588670966070403,68.15625141876494,166.5905783138843,51.77662765211448,138.1859238501219,154.5082422266332,220.00538791370928,205.39268028632327
