Time,Left Shoulder Angle,Right Shoulder Angle,Left Elbow Angle,Right Elbow Angle,Left Hip Angle,Right Hip Angle,Left Knee Angle,Right Knee Angle
0.0,13.05402851511538,36.98790468594582,135.65481509696548,150.41684353610052,130.4892707103695,143.31883530224442,199.49987474986,194.53874479982272
0.0333667000333667,13.735969281412125,35.75621979463487,134.92694726999233,148.922844063541,129.51714625447494,143.45486334176718,200.4215678155187,194.3055915691404
0.0667334000667334,14.440865244382884,34.70633255150543,134.45828831242963,147.67962969394307,128.80404613574498,143.56426250811856,201.2030665366804,194.1562524654912
0.1001001001001001,15.166525250092084,33.82772167906738,134.2353465623074,146.6719167629609,128.3342925073348,143.64851028297912,201.84964199006671,194.0853754993589
0.1334668001334668,15.910758144604143,33.10986589983059,134.2446303576556,145.88442160624868,128.09220752239946,143.70908414802938,202.3665652523992,194.0876086812275
0.1668335001668335,16.67137277398349,32.54224393630493,134.47264803650424,145.30186055946052,128.06211333409405,143.74746158494992,202.7591074003993,194.15760002158063
0.2002002002002002,17.446177984294536,32.114334511000266,134.90590793688327,144.9089499582506,128.2283320955737,143.76512007542124,203.0325395107887,194.2899975309024
0.2335669002335669,18.232982621601707,31.81561634642647,135.53091839682267,144.69040613827303,128.5751859599935,143.76353710112394,203.1921326602889,194.47944921967647
0.2669336002669336,19.029595531969427,31.635568165093417,136.33418775435243,144.63094543518204,129.0869970805085,143.74419014373854,203.2431579256215,194.7206030983868
0.3003003003003003,19.83382556146212,31.563668689510983,137.3022243475025,144.71528418463177,129.74808761027387,143.70855668494556,203.190886383508,195.0081071775172
0.333667000333667,20.643481556144195,31.58939664218904,138.4215365143029,144.92813872227634,130.54277970244465,143.6581142064256,203.04058911067,195.3366094675514
0.3670337003670337,21.456372362080085,31.70223074563744,139.67863259278357,145.25422538376995,131.45539551017598,143.59434018985917,202.797537183829,195.70075797897343
0.4004004004004004,22.27030682533421,31.89164972236607,141.0600209209745,145.67826050476674,132.47025718662294,143.51871211692682,202.46700167970664,196.0952007222671
0.4337671004337671,23.083093791970988,32.147132294884806,142.5522098369057,146.18496042092085,133.57168688494062,143.43270746930912,202.05425367502443,196.5145857079162
0.4671338004671338,23.892542108054844,32.458157185703506,144.14170767860708,146.75904146788648,134.74400675828414,143.33780372868657,201.56456424650392,196.95356094640465
0.5005005005005005,24.6964606196502,32.81420311733205,145.81502278410866,147.38521998131773,135.97153895980858,143.23547837673974,201.00320447086668,197.40677444821625
0.5338672005338673,25.492658172821475,33.20474881228031,147.55866349144046,148.04821229686883,137.23860564266903,143.12720889514918,200.37544542483428,197.8688742238349
0.5672339005672339,26.27894361363324,33.6192729930584,149.3591381386336,148.7327347501952,138.5295289600218,143.0144727655966,199.68655818513,198.3345082837461
0.6006006006006006,26.77764158676743,33.97575612025125,150.67774452485287,149.19533343026157,139.55155429253887,142.89555666037418,198.9763913270684,198.7545416916056
0.6339673006339673,27.65770442649024,34.401047231598284,152.590416816034,149.76824032926308,140.50517243074373,142.6986911312352,198.27831903513308,199.2125717930508
0.6673340006673341,28.57175733659144,34.84777165809396,154.70165226931366,150.37929846961967,141.5920830853556,142.49107399079344,197.41855749205905,199.6601340589851
0.7007007007007008,29.287973813131032,35.23099652556139,156.63248130051133,151.0454657043067,142.74965367281396,142.35181046042152,196.44964999667732,200.08295911013863
0.7340674007340674,29.976702926681945,35.466201622015845,158.5462226317282,151.490606562331,143.88891464608454,142.25505095191997,195.41092674317665,200.4643889978816
0.7674341007674341,30.63542537951783,35.63703706059418,160.48258732205127,151.79899236081656,145.0284146863725,142.25299497860064,194.2643273232675,200.7536320309225
0.8008008008008008,31.2609637834124,35.706950488325226,162.29821573533007,151.96389173152647,146.12796150597467,142.2781927385667,193.09292188230603,200.9923937594123
0.8341675008341676,31.896295045621788,35.76833965160965,164.11409810558854,152.0664396760861,147.1242738941065,142.25299836802023,191.9424854140653,201.2173981741213
0.8675342008675342,32.42999744042277,35.805126446988844,165.4226702413185,152.08836725858242,148.03247576635368,142.1970374265413,190.84320240770128,201.42943641013176
0.9009009009009008,32.95748611777783,35.821822637525955,166.55422715572246,152.0190647229106,149.5164192236888,142.1211728803322,188.6894054632652,201.6040142290591
0.9342676009342676,33.37318914265926,35.80761132003437,167.81058129253876,151.91609354188125,150.55375281588678,142.08462844506042,187.3331730732208,201.7228044132759
0.9676343009676344,33.87828944773366,35.87997231418223,169.2213781804839,152.0150634029796,151.32400535162776,142.06832778569685,186.0339770441153,201.77708661040305
1.001001001001001,34.345593371533674,35.94498965598542,170.70225464389085,152.1331849986403,151.71327043152758,142.0593040799691,185.2564529780176,201.77670770542687
1.0343677010343677,34.75287450006452,36.05115233073671,171.99318394904662,152.1780152985043,152.23221641606895,142.05746012486833,184.54792989383404,201.7158971550192
1.0677344010677343,35.171101653415455,35.98537935270108,173.25857012482038,151.92123880916708,152.23947776786892,142.0885428751218,184.70612172357883,201.6357822817529
1.1011011011011012,35.54209841999871,35.92351726619795,174.29074971919405,151.7841197866128,151.82749180737082,142.1351561315978,185.5944176077872,201.4941976679522
1.1344678011344678,35.82168248264492,35.77049717255452,175.10950385575012,151.6061017408627,151.16465974435226,142.22631516070146,186.8033766799477,201.3277039454554
1.1678345011678346,36.10478905384228,35.636284014135455,175.34051930051626,151.055165172138,150.2158403441032,142.32283196822388,188.3862607808329,201.16232222847088
1.2012012012012012,36.288610572595495,35.37054807875265,175.51581665331108,150.4116205844512,148.9331906107243,142.41121340243294,190.2991634620889,200.99877126770247
1.234567901234568,36.53626159231585,35.04836306796977,175.35532962100956,149.59805288309252,147.07110785023664,142.5109070395146,192.8630828460811,200.8218612689566
1.267934601267935,36.76505062518997,34.686157284474376,175.903720237905,148.9311509511885,145.35701968426022,142.59059355076477,195.4024557093136,200.6844907033162
1.3013013013013013,36.93921891466786,34.411830337337776,176.55398392423447,148.40352286822903,143.6970786113879,142.66632242386945,197.7475529871257,200.6049129266912
1.334668001334668,36.94425655665033,33.999447759598475,177.54718079114073,148.1580305552095,141.80701941568535,142.71162128417131,200.27207570897525,200.59652718385968
1.3680347013680347,37.0013143422968,33.35458686375262,178.6112816057851,149.47263664534344,139.82183106542087,142.713362404497,202.7761513426189,200.72020643575868
1.4014014014014016,36.83781509113735,32.455684745582225,179.99357512291937,149.9157223773516,137.85162093375135,142.72400803611097,205.2515780114076,200.87519571995537
1.4347681014347682,36.43766397753324,31.313607629382314,181.2196066753698,149.86071279821573,135.88701008157037,142.8085075383084,207.63382436322985,201.02253279396444
1.4681348014681348,35.78817625475788,29.948286909431243,182.5481505160548,149.2289196722446,133.9606401911516,142.97017420699538,209.8979758496292,201.14052329232268
1.5015015015015016,34.58052117677132,28.28793465482177,183.75451812151687,148.5629278849859,132.02917910675026,143.20724182183176,212.22428318749164,201.2065658773849
1.5348682015348682,33.12145477262798,26.493129737180723,185.2441698296045,147.30473943076427,130.02094747378106,143.4784024669606,214.726648916076,201.236956001987
1.5682349015682349,31.09027461956772,24.08038342124113,189.72554358148065,145.18705816750452,128.22678562477674,143.81069901824088,216.87131988649583,201.222790239297
1.6016016016016017,29.112346863490536,21.89038211033728,193.52404044389965,141.8437355960028,126.60086070539882,144.1120873650853,218.82087551612912,201.1850935423182
1.6349683016349683,26.69804828577023,19.06757674495977,196.19636382314795,138.2359512556471,125.05342750232232,144.42857566128447,220.79539417468484,201.09582638802368
1.6683350016683351,24.61404423226903,16.64691507382617,198.33254363387013,133.58311416108123,123.584058345449,144.7175239541113,222.5785008149172,200.9966836973288
1.7017017017017018,22.36437848384845,15.001271461394312,199.63536524020023,129.98734046152745,122.07005900894556,144.9124900942909,224.53262798065185,200.8951955934906
1.7350684017350684,20.46869043615753,13.732676408930484,200.41695863301624,126.8676019250939,120.68988348552088,145.0355148041702,226.30249021323823,200.8257219990749
1.7684351017684352,18.74064824737681,13.660314711363226,200.63657111623343,125.24111359346624,119.44538580663809,145.05766909671996,227.8562138701965,200.72921806146783
1.8018018018018016,17.35408000360012,13.776214822672085,200.35449645849087,123.27560098764846,118.40868132792396,145.08228630806,229.1535874776986,200.60017258802912
1.8351685018351689,7.312622013048608,13.923724462928352,199.6757991207537,120.953106557413,117.62596424428894,145.06602778289505,230.14792965800368,200.4536426791692
1.8685352018685355,0.614617833192411,14.204787728775504,198.6719807136139,118.1548604847977,116.93556210880864,144.9918279916232,230.9662695559097,200.2821297879395
1.901901901901902,0.614617833192411,14.540565585477106,197.23833356076247,114.93908267182384,116.40370674503288,144.8880690689947,231.5793248440253,200.0871178332692
1.9352686019352687,0.614617833192411,14.97601347892247,195.45295000726856,111.34688799260552,116.00728510101284,144.67960664382136,232.06534161985496,199.9449493952336
1.968635301968636,0.614617833192411,15.493883785784147,193.392493132631,107.48841824548884,115.76478663091277,144.39110644579316,232.3762344324548,199.8312048883224
2.002002002002002,0.614617833192411,16.098236390985978,191.0024479618208,103.36020823633734,115.70752266254011,144.11400648035803,232.46268382843743,199.72363741282297
2.035368702035369,-2.896253984023769,16.74734920140486,188.3403107314952,98.98083623929924,115.87152035129964,143.8095026977933,232.2762255077184,199.6493604029739
2.0687354020687354,-3.555290562221894,17.578618525162703,185.4434569366556,94.63222090199405,115.29561823552427,143.5480769500114,233.3923373748877,199.54885351307976
2.1021021021021022,-1.5341492441582971,18.580173346486266,182.22728319300543,90.13264849875615,114.90941414131228,143.2914061225317,234.1105098599148,199.44061655444767
2.135468802135469,2.939512700538055,19.85041037010251,178.90059754921356,85.71281729739947,114.631881237925,143.07558939639358,235.1409160813874,199.3134199788616
2.1688355021688355,2.939512700538055,21.32962855500497,175.40867900640342,81.52648053831749,114.50456581871332,142.84856884795747,236.1588165384236,199.21794780335284
2.2022022022022023,2.939512700538055,22.960408184034304,171.91719563335906,77.64409316640844,113.91462302722331,142.60279766776375,237.6607615838272,199.17106705922632
2.235568902235569,2.939512700538055,24.85227762566967,168.2588431003644,74.2672848511171,113.37146579430063,142.39596234436857,239.10020084906995,199.0900085306661
2.2689356022689355,2.939512700538055,26.76338333097417,164.68693420564193,70.92705700801676,112.77531995416572,142.22048748829582,240.42241596399845,199.0469575563933
2.3023023023023024,2.939512700538055,28.84737308853023,161.22311058893564,67.86142722319607,112.13913228129712,142.13512265415375,241.6628661395573,198.98086392057976
2.335669002335669,2.939512700538055,30.816837063148967,158.33855622037845,65.45521940928967,111.40834424378328,142.06033448281568,242.81343924009488,198.9955898650055
2.369035702369036,2.939512700538055,32.865403048211064,155.58294201134527,63.545654574537934,110.614867957087,141.9904770606743,243.9180183196615,199.04994568869697
2.4024024024024024,2.939512700538055,34.657006798344334,153.43306025436473,62.06934460233128,110.06690250792391,141.88368583629415,244.5004649893888,199.2329178498526
2.4357691024357693,9.662745943314269,36.28407515353483,152.012519937165,60.704129862762855,109.50317526415296,141.79654472831828,244.91866772187467,199.58744681202347
2.469135802469136,18.44007892694585,37.29416294091324,151.1190086776883,59.71839041821757,108.87581737110116,141.68247012080502,245.3588217177343,200.06288514011817
2.5025025025025025,29.13715530522357,37.55268798155447,150.60255093329562,53.76408391440789,108.32860577575318,141.50771872289025,245.53989281654955,200.61897797010224
2.5358692025358693,41.50459656291336,37.47994698813621,150.524400076603,49.19467906185507,107.84310372061246,141.34587506111336,245.6508203917356,201.1642158789677
2.569235902569236,55.35309092107938,38.44822544671376,147.3497887373037,50.50557146020059,107.41289078495404,141.0672142146984,245.6257274861639,201.6886450701313
2.6026026026026026,70.464214187404,38.42362561168296,145.63946322515912,51.64504168224878,107.07211198924908,140.7667881315671,245.5396627165947,202.21490997964816
2.6359693026359694,86.6466106998722,38.14404605502816,145.9727924576861,50.80119844976849,106.78432672063018,140.4171020810895,245.7162902681436,202.7639962647846
2.669336002669336,103.71411130678123,37.46363068187218,147.67045782818187,49.42351077374706,106.67048580250844,140.0432659080788,245.7022774404228,203.34483565541905
2.702702702702702,121.35177049238952,36.39182799799522,151.1531972484874,48.05371535435535,106.59190706284151,139.65543469152308,245.65084021644984,203.9166949795776
2.736069402736069,139.3756553204026,35.603905976702286,151.85381525065858,48.218144591785794,106.66006167464256,139.23489848440494,245.32274400104657,204.49898261288644
2.7694361027694363,166.81117472588758,34.29356888755013,152.94948106797736,50.99686790408919,107.0878123496794,138.99607014553425,244.59847638403835,204.951890429384
2.802802802802803,191.3585763927476,33.86120830789928,154.3731868691536,54.95709011601711,107.56470277868264,138.77399333447522,243.7495045850114,205.412188654528
2.836169502836169,213.5983488993567,33.003329253540166,156.10008183008375,61.51557056622677,107.9930727250556,138.6235050210575,242.8821205563872,205.87996421029032
2.8695362028695364,232.7134214744281,32.024271978889544,157.918601662886,68.02873040229095,108.55409288773714,138.46682636551165,241.76639363113608,206.36415742576983
2.902902902902903,249.0332497480608,30.91212558406296,159.74996134480264,74.57262366690554,109.31087093303285,138.3601691595751,240.2904284892913,206.842855694676
2.9362696029362696,261.7685539494109,29.003798743943182,161.69551701899198,79.7413259094438,110.2653347722387,138.26497478633542,238.4953451536292,207.36122451387544
2.9696363029696364,271.2735279474583,26.933998345879765,163.84678993762168,84.93454688029718,111.1821726538178,138.26680786476825,236.64253528049244,208.02829238623616
3.003003003003004,277.28616781420754,24.95313975234944,165.97644570649845,89.8816633543003,112.2417268422868,138.2154399558415,234.6676229331125,208.688823218964
3.0363697030363697,279.5490588243769,22.79849761128329,168.18330733419452,94.09450696689764,113.45892097780334,137.90248902947965,232.511967331947,209.45948619545783
3.0697364030697365,278.450908298613,20.969203929391547,170.4830203202961,98.3012285639188,114.8594025471843,137.5272246936053,230.1279158327077,210.20146605774065
3.103103103103104,273.71669944473405,19.0688745291284,172.01005933583878,101.97664108892994,116.4257445194282,137.2634568044916,227.5599982600861,210.845943088172
3.1364698031364697,266.1843297589585,17.580944447474067,173.4387321820397,105.80669624566704,118.16320085039014,137.203112254664,224.8700943787738,211.32528016187143
3.169836503169837,254.96588562330385,16.48982114142855,182.02196239774767,109.81343334736904,119.69447999728176,137.11946239555658,222.212742819308,211.8044216738336
3.2032032032032034,241.2913781568745,15.848002511525262,187.4779652260863,113.81712654230026,121.38899450980809,137.2069258298324,219.51188260038248,211.99743370659985
3.2365699032365702,224.40024266949,14.729016765859583,188.14518062574825,117.59371825905068,124.04505830546393,137.75002316058982,216.21236707357951,212.0532135335989
3.2699366032699366,205.17377995245533,14.00954092687633,188.4297048357677,122.4861649522098,126.76127038129148,138.51843609291612,213.07456665851663,211.7663277396738
3.3033033033033035,183.19034164902328,13.84522338923144,188.72201857427405,127.53923971090374,129.45126685819264,139.4641751979703,210.1655259215136,211.3212632125677
3.3366700033366703,158.93948510942786,14.594721767532905,188.38265623842983,132.14783212075366,131.98282748008376,140.48125722771982,207.54491028968843,210.6474164653286
3.3700367033700367,132.31725069720162,16.770619707508406,185.4725329136688,139.57151470223627,134.14612708748868,141.47888889437962,205.3092517760847,209.83220925901816
3.4034034034034035,115.3147859136611,18.92902444386376,182.37205247380948,144.97088054201586,135.9885114129499,142.5221399822267,203.4676627070196,208.8840528040245
3.4367701034367704,98.97911642688386,22.309864604234605,181.9641645453144,146.82610983041172,137.52750356569663,143.51726255032358,201.9466471004669,207.84959383202207
3.4701368034701368,83.46327326386456,26.0965864365512,179.5938386456669,146.56955008978753,138.81460938061193,144.38881983135397,200.76116744515423,206.82357988787496
3.503503503503504,69.08555922803046,29.56449480244985,177.29427572820612,144.70479422433016,139.9021618054911,145.1918286225496,199.82235220769064,205.76961505171167
3.5368702035368704,55.98366286498165,32.618499150120584,174.22999430675964,141.45693934584534,140.76677407151965,145.8444580067666,199.13605333142533,204.75738024112096
3.5702369035702373,44.24008088207006,35.06585883725353,170.92509007123354,136.4425470216235,141.33360305603796,146.42168830472696,198.8548671426182,203.7688121372053
3.603603603603604,33.837040813631255,36.76069290944738,166.27720623662165,130.3415376490212,141.71509691600306,146.79529867957535,198.80143457392248,202.76707416172133
3.6369703036369705,25.82474735177249,38.22331922081612,160.07845304193847,123.44547908490804,141.87853605316496,146.97987783720603,199.01872306720773,201.7894285639006
3.670337003670337,19.42205696279973,40.24644155789044,152.79497168237847,123.1393428296851,141.92401041392046,147.07217126194794,199.4304407169868,200.8171009271861
3.703703703703704,15.43439588063761,31.84408125467213,142.8830437575455,119.8463649607331,141.66065463474132,146.98783101012725,200.2699139321033,199.8499978747413
3.737070403737071,13.28511459642222,25.050940437106217,135.98336913247266,112.0124828681212,141.33347323976733,147.0098606981802,201.13202091606965,198.8386482972113
3.770437103770437,11.247717669062718,22.15448244454637,128.70030866073975,102.92500701077904,140.83579496921965,146.9595271822901,202.4961200595208,197.88660357058063
3.803803803803804,11.9126186136531,21.32868841789704,120.78450555115472,96.417280813596,140.39524942626264,147.00587861014534,203.5934513255059,196.9303789680045
3.8371705038371706,16.685566202504738,22.522509437679943,112.41741484035305,91.5484124816748,139.96377150993715,147.08801692656058,204.2211121424088,196.00648145292084
3.8705372038705375,24.710168146397542,25.311988605474937,103.91272900307952,88.59286946232707,139.6276979694908,147.33963133706277,204.87722538216505,195.09016003398472
3.903903903903904,35.15777004540452,29.55988499783765,95.15187150446776,86.47334991000325,139.2731872244675,147.74361819261262,205.682598288092,194.1343935388126
3.937270603937271,36.78512670115096,35.33755338035465,86.9982225727695,84.53582365437016,138.75168890787148,148.12544152178705,206.64735378631468,193.34950813421307
