Time,Left Shoulder Angle,Right Shoulder Angle,Left Elbow Angle,Right Elbow Angle,Left Hip Angle,Right Hip Angle,Left Knee Angle,Right Knee Angle
0.0,25.534243166234948,36.74896520551641,151.1182475805022,167.83445880154565,135.4604479840581,129.90255673301303,207.88390396586885,210.5743002358695
0.0333667000333667,25.69007224206773,36.72397119594265,151.13484596653748,168.33601895221076,135.81255370411722,130.47737372787176,206.9370160259272,210.21563103562625
0.0667334000667334,25.87430116175651,36.70306692044903,151.18917501577732,168.807449075278,136.07153153950776,130.97223113138693,206.1465740589266,209.90389990101923
0.1001001001001001,26.085565805210297,36.68618603927799,151.28268487666597,169.25050829404654,136.24571362933204,131.3931295399275,205.501133062562,209.63523367908385
0.1334668001334668,26.32250205233809,36.673262212671936,151.41682569764765,169.66695573181573,136.34343211269243,131.74606954986243,204.989248034528,209.4057592168554
0.1668335001668335,26.583745783048908,36.664229100873335,151.59304762716664,170.05855051188473,136.37301912869134,132.0370517575609,204.59947397251943,209.2116033613693
0.2002002002002002,26.86793287725174,36.659020364124615,151.8128008136672,170.42705175755282,136.34280681643105,132.27207675939178,204.32036587423096,209.0488929596609
0.2335669002335669,27.1736992148556,36.6575696626682,152.07753540559355,170.7742185921192,136.2611273150139,132.45714515172418,204.1404787373573,208.91375485876543
0.2669336002669336,27.499680675769486,36.65981065674653,152.38870155138994,171.10181013888317,136.13631276354226,132.598257530927,204.0483675595933,208.80231590571847
0.3003003003003003,27.84451313990241,36.665677006602046,152.74774939950066,171.41158552114396,135.9766953011185,132.7014144933694,204.0325873386335,208.7107029475553
0.333667000333667,28.20683248716337,36.67510237247717,153.15612909836997,171.70530386220076,135.7906070668449,132.77261663542032,204.0816930721728,208.63504283131115
0.3670337003670337,28.585274597461385,36.68802041461436,153.61529079644205,171.98472428535288,135.58638019982388,132.81786455344874,204.18423975790583,208.5714624040215
0.4004004004004004,28.978475350705448,36.70436479325602,154.1266846421612,172.25160591389954,135.37234683915776,132.84315884382377,204.32878239352732,208.5160885127217
0.4337671004337671,29.385070626804566,36.72406916864461,154.6917607839717,172.50770787113996,135.15683912394888,132.85450010291436,204.50387597673216,208.46504800444708
0.4671338004671338,29.803696305667746,36.74706720102255,155.31196937031774,172.75478928037342,134.94818919329958,132.85788892708953,204.6980755052149,208.41446772623303
0.5005005005005005,30.23298826720399,36.77329255063229,155.9887605496436,172.9946092648991,134.75472918631223,132.8593259127183,204.89993597667032,208.36047452511488
0.5338672005338673,30.671582391322303,36.80267887771625,156.72358447039355,173.2289269480163,134.58479124208918,132.8648116561697,205.0980123887932,208.299195248128
0.5672339005672339,31.118114557931904,36.83515984251719,157.51789128101294,173.45950145302555,134.4467074997338,132.88034675381382,205.28085973927983,208.22675674230948
0.6006006006006006,31.475425088527224,36.9696357070044,158.51715122068782,173.802160219762,134.48476780466632,132.93387207202397,205.3526828014669,208.10595337063785
0.6339673006339673,32.01904936110366,37.0095239595186,159.71578380257031,173.9872200773835,134.60683123604406,133.012404976145,205.32072895165345,207.9231967935519
0.6673340006673341,32.58978053724758,37.3446443479566,160.9519253939179,174.72251903908904,134.77602155675672,133.09444537158706,205.2547837922363,207.69900601984105
0.7007007007007008,33.11217843016461,37.47709161864166,162.14723108034886,175.0920222949489,135.0268919458137,133.26640692805805,205.0508810417204,207.46175983422785
0.7340674007340674,33.624120383310064,37.53188455099553,163.37443615643645,175.33436774296777,135.3389817112809,133.51598784052413,204.7396458365704,207.2098341564186
0.7674341007674341,34.094884826961085,37.64741530003942,164.5813941269961,175.7666057572104,135.7309539797359,133.8644227202743,204.31996284372684,206.9425829104697
0.8008008008008008,34.50657929931504,37.70249858607415,165.75328588168915,176.13400286636514,136.183171083596,134.292865448046,203.8295874959327,206.6474741506628
0.8341675008341676,34.86581198339469,37.645362128928944,166.91292826452522,176.32828695922797,136.74694197614397,134.74487311447697,203.22103790405723,206.31451769083853
0.8675342008675342,35.1950989928853,37.58361195066684,168.0617849000159,176.5387113383513,137.32497538145276,135.23012054949734,202.60968324885127,205.9768980369725
0.9009009009009008,35.53584462549662,37.57169435716899,169.24125479532856,176.65513584946154,137.94628779790287,135.7850552911208,202.0155199590148,205.64358358383245
0.9342676009342676,35.87326373112349,37.56079474461797,170.4720327157659,176.74352040554334,138.59610951881976,136.35668617302036,201.42277339020595,205.28762512490093
0.9676343009676344,36.2289985669958,37.562791823381815,171.78464732376833,176.82243912623045,139.2701005481531,136.88994446802798,200.79513268504124,204.9026125189125
1.001001001001001,36.55647691275244,37.46933808409682,173.10464414011304,176.80140724056756,139.9150205683422,137.41723395790245,200.17780920847093,204.5042123409304
1.0343677010343677,36.842602068667226,37.22746689482322,174.37619659669195,176.65740909801104,140.45877820801522,137.88531461620303,199.6139882276312,204.1383417036224
1.0677344010677343,37.038153629295216,36.81907851799752,175.5665320631889,176.21781734691345,140.94925809751447,138.3225526360684,199.11902605210045,203.7888552882972
1.1011011011011012,37.15143168576648,36.45502414285722,176.09318383878968,175.9073237510859,141.3720874923126,138.7397229102321,198.72974790355323,203.4733589135304
1.1344678011344678,37.184430911773326,35.96052709396667,176.48684914818494,175.39001234522297,141.69887347394058,139.1612043493145,198.44186188323025,203.15727848229903
1.1678345011678346,37.280989057389576,35.716758621152856,176.35379936757195,175.7133162334728,141.94489448451088,139.56972465281476,198.280918280936,202.8508691298753
1.2012012012012012,37.2894939500646,35.18782323883044,176.0746277911182,175.51367946140704,142.09963527545054,140.0163728482434,198.21146426950284,202.5224914670826
1.234567901234568,37.18206886641691,34.32814559186859,174.75356428722705,174.2811349503385,142.21463950807066,140.5114233738444,198.17553835068745,202.12768429343475
1.267934601267935,37.00069604757619,33.16897297811117,180.3342425349016,172.52557808495067,142.22685005012795,141.04708409266993,198.2020092249368,201.70239762282404
1.3013013013013013,36.93899918448717,31.91365675708528,180.01717115528226,170.48342225244878,142.14325382584477,141.5927330905341,198.2919339125142,201.2719711754836
1.334668001334668,36.76118248998535,30.5194895502564,180.5986513758885,168.21116210646446,141.94707292870396,142.15125300143978,198.4634603857368,200.85392533250595
1.3680347013680347,36.54765158302799,29.09382626139719,179.43483390260025,166.04866978614578,141.66101650794502,142.7043691410667,198.72504293493543,200.4817399580176
1.4014014014014016,36.137864721810914,27.52578785461231,179.77246929158923,163.66839465574492,141.28980161754157,143.25622690392967,199.0773488626012,200.13471799378908
1.4347681014347682,35.51415979523908,25.77154438738245,185.0849502153825,161.3136925316656,140.93678638437595,143.81145532939857,199.4278133999918,199.7806921686872
1.4681348014681348,34.632306055285554,23.9080296884273,188.96702454211243,158.87171806036812,140.51049071342717,144.37447505144823,199.8390703773434,199.39659848545952
1.5015015015015016,33.28628970607782,22.04328943658582,190.25809372356383,156.52596399541943,140.048538183955,144.9137958585377,200.32333187342743,199.0287194545384
1.5348682015348682,31.64525496911631,20.061645599261634,187.67590686228505,153.5235491226226,139.52136785207355,145.45094252765654,200.85623192812184,198.6745166502688
1.5682349015682349,29.86702534238734,18.14317549170161,185.846050136662,151.59334002480907,138.87657348809086,145.98751994843107,201.45107900752143,198.3090492707845
1.6016016016016017,28.233909025477235,16.266000314945554,183.92704647681828,149.50606507399908,138.2051465741502,146.53006325974246,202.036104266624,197.9108587697672
1.6349683016349683,26.57228793762808,14.486830704329703,184.84997682337203,147.35386430580613,137.60113211595592,147.09208081957897,202.48801912019007,197.47231441446533
1.6683350016683351,24.913423290888264,12.76377996890041,185.41652177103143,144.75737905171124,137.09108341395213,147.68811751389276,202.8170848788398,197.0363012567209
1.7017017017017018,22.97500940896953,10.82744800683798,185.2656903550483,142.53005328192287,136.62023686594492,148.24909730244264,203.1006376789726,196.60660187368185
1.7350684017350684,21.193691831812643,9.0452020508403,184.7527233995912,139.91268948365047,136.10086956514093,148.72955676209224,203.3778703363088,196.20618476741868
1.7684351017684352,19.31429740481964,7.521215670673062,183.8337909294806,136.81774124729367,135.55574612294333,149.12861255180863,203.6710173487289,195.8375146251839
1.8018018018018016,17.636546387446213,6.378754655458517,182.49231830019897,133.6051819304978,135.02829153154764,149.5630677436736,203.91388816788097,195.49798468144365
1.8351685018351689,16.133634685357666,5.002504962858702,180.8625932728515,129.5043705954355,134.5443508906647,150.06400498904227,204.05481530737887,195.21460805638023
1.8685352018685355,15.178293484291112,3.996855104492612,179.319930686733,125.60158928747435,134.07908412943542,150.4882494651985,204.1852780451952,194.9799234238336
1.901901901901902,14.07049741117641,3.0972996847435867,177.1717814382281,121.94028516851532,133.63157916607236,150.84817037438043,204.29025981946708,194.78656361973407
1.9352686019352687,13.332800931837014,2.160520745880245,174.85043452468736,117.83657503184187,133.21114102944478,151.1038130030013,204.38753865511043,194.6141119254833
1.968635301968636,4.47945871903698,2.160520745880245,172.04299267393162,114.57636637525214,132.8677397142549,151.28905216172708,204.438087663574,194.4682253505096
2.002002002002002,-1.2827241078822498,2.160520745880245,169.21485473322127,108.91254936193464,132.50165998977766,151.4129292096901,204.55491714498365,194.3792852192894
2.035368702035369,-4.040475351849976,2.160520745880245,166.62983327572212,104.67185339048773,132.1929450047484,151.44231467236835,204.66683837964288,194.31521421479803
2.0687354020687354,-4.017334634642367,2.160520745880245,164.14675520614327,99.56261787370318,131.9101122645272,151.30945529699144,204.758117960663,194.2745367770033
2.1021021021021022,-1.2810532045545804,2.160520745880245,161.7987707873381,93.99767888021132,131.67998518849615,151.01381857874597,204.82501309510133,194.2696220603547
2.135468802135469,3.803983315422872,2.160520745880245,159.37070606026117,88.7239663448308,131.45777953604355,150.639590287064,204.94733722773745,194.32188372233853
2.1688355021688355,3.803983315422872,2.160520745880245,156.87627831981857,82.85453522458333,131.25795861075486,150.20085933187374,205.1228640143427,194.4353028093903
2.2022022022022023,3.803983315422872,2.160520745880245,154.470397501737,77.32879363459155,131.14244868628887,149.7734327885221,205.3519390279828,194.5442158809213
2.235568902235569,3.803983315422872,1.8782385926002023,152.0098057753502,73.32775144235914,131.06794024541742,149.32451749535858,205.627873370212,194.6694101134578
2.2689356022689355,3.803983315422872,1.868735853715596,150.58482927278263,68.82419352726028,131.03941538961652,148.8882403440286,205.91138360117608,194.74672782854668
2.3023023023023024,3.803983315422872,2.426752660781641,149.37629636878705,64.43926434561867,131.06135175557006,148.45272481195326,206.21133156858383,194.8033138887503
2.335669002335669,3.803983315422872,2.426752660781641,149.19849125070712,59.27319471127389,131.11424369787355,148.04304412218667,206.48381579610444,194.8293208947221
2.369035702369036,3.803983315422872,2.426752660781641,149.9200318196401,54.47658585668892,131.21482005128755,147.61776775234864,206.73024861871312,194.8462980960175
2.4024024024024024,3.803983315422872,2.426752660781641,153.05876795656363,50.705169183721246,131.3328114987311,147.20566191189863,206.98940128396137,194.90273111306
2.4357691024357693,3.803983315422872,2.426752660781641,149.40431567684104,47.89249644076925,131.4915624191469,146.78609431191052,207.23976294078795,194.99513434516248
2.469135802469136,3.803983315422872,2.426752660781641,151.14808622863728,45.782920488331,131.68980364676912,146.3871727823084,207.4716766274851,195.11301827695385
2.5025025025025025,3.803983315422872,2.426752660781641,152.5781516603884,44.40172765560286,131.89303323861338,146.04725378447569,207.6965715874896,195.2592848027483
2.5358692025358693,3.803983315422872,2.426752660781641,156.79260188418942,43.32951988718444,132.1200860939142,145.75503473060363,207.8944092811413,195.40230243794363
2.569235902569236,11.058044038233362,2.426752660781641,160.90793222885927,42.90768459538527,132.37425037614102,145.4829862219194,208.0796273063453,195.54609829469743
2.6026026026026026,20.221030369711706,2.426752660781641,159.44243551883235,42.85319740143109,132.61223837141716,145.27860385207177,208.26735019234349,195.6439785585465
2.6359693026359694,31.072260491937183,2.426752660781641,157.01700523277384,43.292769190805465,132.8552669686677,145.1618970582758,208.43062573048408,195.73209157071835
2.669336002669336,43.47031486377649,2.426752660781641,155.65973580419154,44.1448375426948,133.06193074713352,145.09499233406984,208.5557804439349,195.80414608548165
2.702702702702702,57.52676226129755,2.426752660781641,158.38972574523837,46.23326837013453,133.26696833541098,145.08177849323815,208.6565322279301,195.8583049980037
2.736069402736069,72.53341207729682,2.426752660781641,161.3188055307377,47.597257768705326,133.51852966462351,145.11888523125393,208.69896368023825,195.923629531807
2.7694361027694363,88.5444206744145,2.426752660781641,165.25457651181378,49.05193142577768,133.79563699510084,145.19672335783784,208.69699705620687,195.9967291216928
2.802802802802803,105.12086356901904,2.426752660781641,166.64958247943738,50.50815836150629,133.99620987364324,145.2729494576646,208.7402213765699,196.0794286978288
2.836169502836169,121.99460273269128,2.426752660781641,167.69992025622054,52.08849166918767,134.13278421081213,145.3410977089163,208.7980857245552,196.17151029551425
2.8695362028695364,138.75267209835224,2.426752660781641,168.9780478902264,53.29675746054206,134.22678111201586,145.44323524151352,208.84806429775992,196.26568068842653
2.902902902902903,155.5144557102249,2.426752660781641,170.31870870776407,54.68937627272237,134.29753158962097,145.56466221994472,208.886295100807,196.37355230805844
2.9362696029362696,171.73434005609985,3.38972283805814,171.68184430395846,56.27715646720225,134.34280154834698,145.72300057861875,208.8946117335931,196.48121336288943
2.9696363029696364,187.4449984638632,3.38972283805814,172.9229430605353,57.93630671274424,134.34094196202292,145.88541432657132,208.8855889179129,196.619118175012
3.003003003003004,202.31706630880623,3.38972283805814,173.9875896360508,59.66881362784351,134.30797337026237,146.0229200023291,208.8700595424237,196.756738366644
3.0363697030363697,216.348119426596,3.38972283805814,174.4740532544082,61.24578911250409,134.25768439688858,146.18761830830448,208.8336797473212,196.8675976779919
3.0697364030697365,229.4464167045781,3.38972283805814,175.067175806457,62.38437945781175,134.20723170026295,146.36651123537607,208.7814500035076,196.9330527938523
3.103103103103104,241.6312319357339,3.38972283805814,175.50711396852444,63.30094919173296,134.15877503292717,146.5514560260841,208.70938201924665,196.96761062134547
3.1364698031364697,252.6759525733076,3.38972283805814,176.33169663298855,62.54293410868876,134.08962154950927,146.70257140644856,208.63615730960612,196.97397151488755
3.169836503169837,262.2933816243426,3.38972283805814,177.27944649174756,63.7407255025158,134.02008356002793,146.82169378401133,208.5564504101916,196.94972508050856
3.2032032032032034,270.3534110855736,3.38972283805814,178.1239290730985,63.16219632445838,133.96346023767055,146.92412050345175,208.47965312460488,196.9061594567304
3.2365699032365702,276.65596413635825,3.38972283805814,178.99520446903438,63.05651448337658,133.9177564157209,147.01149770277914,208.40494603636765,196.8354907507768
3.2699366032699366,281.40034300234464,3.38972283805814,179.73742914838084,63.245351824882135,133.8551152006498,147.1329866799711,208.35180488723225,196.74485841826333
3.3033033033033035,284.16537098881287,3.38972283805814,180.4995821859644,63.04484470646033,133.78081510134274,147.27047599776913,208.3158254421356,196.63144451570017
3.3366700033366703,285.2352715794395,3.38972283805814,181.30291905407412,63.607421470684514,133.69129187126055,147.3916197806022,208.29260336057152,196.49488898836933
3.3700367033700367,284.2734022195855,3.38972283805814,181.99930823331024,64.25988898325087,133.590918379489,147.5098326752045,208.2760274137329,196.3412549470048
3.4034034034034035,281.14198943033574,3.38972283805814,182.7541014897417,63.82442104890002,133.48865848778163,147.63489545970305,208.26644293003628,196.16262752761696
3.4367701034367704,275.3545823144416,3.38972283805814,183.141952531793,63.7635230498636,133.40247891911469,147.79488192029163,208.2336738127259,195.91904452571416
3.4701368034701368,267.53072599780506,3.38972283805814,183.6788198470387,64.10149488402311,133.3305594489035,147.93459808472815,208.19366976087065,195.66405658786147
3.503503503503504,257.2234825779545,3.38972283805814,184.14803129300284,64.38460962087161,133.24270595668816,148.0276939653832,208.16615125638685,195.4412494269644
3.5368702035368704,255.54343655110367,3.38972283805814,184.7351667078479,64.62150827343189,133.159793455667,148.11806683488837,208.14599194231545,195.2569035248728
3.5702369035702373,254.0225124110543,3.38972283805814,185.3121451858488,64.96910179159404,133.12710364504375,148.2797136230606,208.1167900355638,195.0435364007621
3.603603603603604,252.5877963787477,3.38972283805814,185.70288013896936,65.41647592392319,133.08081415480854,148.44118884224096,208.12474331840508,194.87606479700048
3.6369703036369705,251.2331134075352,3.38972283805814,186.03032999296497,65.7077315406918,132.97984719629108,148.5759025542044,208.18475723275697,194.72240025639869
3.670337003670337,249.84740260677657,3.38972283805814,186.4179389916973,65.96349605543115,132.86082961246817,148.60557056050723,208.2985511897766,194.64829629278864
3.703703703703704,248.52067917935307,3.38972283805814,186.9445769564997,66.41561340763144,132.71854464953293,148.60875107234983,208.465903984142,194.568252728616
3.737070403737071,247.27982977233648,3.38972283805814,187.37611052837008,66.89150712218154,132.5417055266455,148.53878820710287,208.67929052428508,194.614315418768
3.770437103770437,246.2228644345124,3.38972283805814,188.11765896438573,68.07774026852493,132.39113042428764,148.55478329329088,208.8700115387479,194.49334873542767
3.803803803803804,245.3956683239321,3.38972283805814,189.10704074259527,68.93640903293418,132.20378690423743,148.44160380151138,209.1219439837318,194.52098934360467
3.8371705038371706,244.73651540956223,4.687134820268037,190.6504912771,69.57694574025525,131.9051588482846,148.12523423997163,209.6257327456076,194.79390199915693
3.8705372038705375,243.913049433526,6.235703940435106,192.01137360183336,69.30380267750894,131.4540290327163,147.64882617884675,210.1852038385969,195.2736774590041
3.903903903903904,243.19454332142612,8.160351130327655,195.05345573847595,69.62570189110005,130.96344069842166,147.02241931874516,210.7828098997808,195.8547078649833
3.937270603937271,242.32969185501773,10.362949265553633,198.31095854327964,68.61661223787289,130.46718004635431,146.31175268252755,211.36332229825567,196.5675624591268
