Time,Left Shoulder Angle,Right Shoulder Angle,Left Elbow Angle,Right Elbow Angle,Left Hip Angle,Right Hip Angle,Left Knee Angle,Right Knee Angle
0.0,26.0836816874011,38.73256099536904,156.40059514857427,166.57266873786898,122.89346675365302,116.44400216850748,213.26243469719145,219.48328610558417
0.0333667000333667,25.695925627640666,38.11161745995748,155.05615290090404,165.73924148538032,122.98523797580198,116.58897930185675,213.108633263666,219.46287062786547
0.0667334000667334,25.35967446143336,37.58130959110326,153.8888435249767,165.04831253759585,123.03292702111436,116.69533674074428,213.0190612032623,219.4885989129234
0.1001001001001001,25.073009515416555,37.13418029516398,152.89305983686103,164.48892500669842,123.03918642400836,116.76699320397545,212.9889897236077,219.55578339295732
0.1334668001334668,24.83401211622763,36.76277247849719,152.06319465262587,164.0501220048709,123.00666871890228,116.8078674103557,213.0136900323293,219.6597365001668
0.1668335001668335,24.640763590503955,36.45962904746047,151.39364078834,163.7209466442961,122.93802644021432,116.82187807869045,213.0884333370545,219.7957706667511
0.2002002002002002,24.491345264882906,36.21729290841139,150.87879106007225,163.49044203715698,122.83591212236271,116.8129439277851,213.20849084541047,219.9591983249097
0.2335669002335669,24.383838466001848,36.02830696770753,150.5130382838914,163.34765129563633,122.70297829976576,116.78498367644508,213.3691337650244,220.14533190684185
0.2669336002669336,24.31632452049816,35.885214131706455,150.2907752758663,163.28161753191702,122.54187750684164,116.74191604347584,213.5656333035235,220.34948384474708
0.3003003003003003,24.28688475500921,35.780557306765736,150.20639485206573,163.28138385818195,122.3552622780086,116.68765974768276,213.7932606685351,220.5669665708248
0.333667000333667,24.29360049617237,35.70687939924296,150.2542898285585,163.33599338661395,122.14578514768492,116.62613350787127,214.04728706768643,220.7930925172744
0.3670337003670337,24.334553070625027,35.65672331549568,150.42885302141343,163.4344892293959,121.9160986502888,116.5612560428468,214.32298370860465,221.0231741162952
0.4004004004004004,24.407823805004533,35.622631961881495,150.7244772466993,163.56591449871064,121.6688553202385,116.49694607141478,214.6156217989171,221.25252380008652
0.4337671004337671,24.51149402594828,35.59714824475795,151.13555532048494,163.71931230674105,121.40670769195226,116.4371223123806,214.9204725462509,221.4764540008481
0.4671338004671338,24.64364506009361,35.57281507048263,151.65648005883915,163.88372576567,121.13230829984832,116.38570348454972,215.23280715823336,221.690277150779
0.5005005005005005,24.80235823407793,35.54217534541311,152.28164427783074,164.0481979876803,120.8483096783449,116.34660830672752,215.54789684249167,221.8893056820788
0.5338672005338673,24.9857148745386,35.497771975906964,153.00544079352852,164.2017720849549,120.55736436186028,116.32375549771945,215.8610128066533,222.06885202694684
0.5672339005672339,25.19179630811317,35.43214786832207,153.82226242200252,164.33349116967796,120.26212488481366,116.32106377633184,216.1674262583469,222.22422861758423
0.6006006006006006,25.39733533757323,35.193557654014214,154.6849041643023,164.1988854662441,120.0422865435016,116.36572284364888,216.3594477979851,222.3255358598895
0.6339673006339673,25.699514415012487,34.97287278190835,155.68458794541792,164.01984614050355,119.774854455022,116.42957945658428,216.58463341190887,222.38356938394665
0.6673340006673341,26.033585200901182,34.70063949062307,156.79754266217145,163.78118483654114,119.47461640349124,116.52879358797264,216.8272863343413,222.39201574227613
0.7007007007007008,26.411373302192853,34.379177902045896,157.94323592353547,163.46908175103908,119.11328900053702,116.64303923989526,217.10863423158804,222.37846232360084
0.7340674007340674,26.78698087854728,33.98684044105748,159.1665355568893,163.1193925733987,118.7478285946563,116.80785492255605,217.371549763922,222.30939436673364
0.7674341007674341,27.181065833768333,33.62660015843114,160.45349179421174,162.86174798956446,118.40312411218456,117.05315545315644,217.59134671895544,222.13354678488903
0.8008008008008008,27.55459847457948,33.1843375933,161.8309343389024,162.53784626447143,118.10694094144056,117.3759211092131,217.73514572733544,221.87456925603848
0.8341675008341676,27.955188557495337,32.67429730369387,163.21705439311486,162.11123294936502,117.73359101405345,117.74418983992004,217.90215959342555,221.55127962494907
0.8675342008675342,28.30985691628961,32.08891000187086,164.65565084554444,161.63487819397378,117.41293609523946,118.17178472630648,217.99738458036583,221.17870269384915
0.9009009009009008,28.59947580165276,31.510852238648948,166.0572757012919,161.1604678741536,117.28713829360046,118.66114773388638,217.92877898492907,220.7580292593229
0.9342676009342676,28.77767050165248,30.855643684364683,167.4048385646067,160.65412748015672,117.2812531249308,119.21720245616709,217.73360858605943,220.2879927324921
0.9676343009676344,28.88988807095251,30.262893127751777,168.30142669410353,160.31558802838876,117.40822793235736,119.79884827424802,217.38287439252028,219.86369771625016
1.001001001001001,28.89965776005073,29.584636126839943,169.22150138109745,159.9451802348641,117.60621623909392,120.42070565052046,216.95434386700427,219.4434211797533
1.0343677010343677,28.90507227941888,28.88640316766357,170.53424926196004,159.52737035185072,117.84000046756124,121.10063692617976,216.4692335971797,218.97293997042271
1.0677344010677343,28.815193361079,28.060768556133333,172.07086204341869,159.00425886691232,118.08658070856184,121.82539780293384,215.9577103646908,218.4483006020657
1.1011011011011012,28.67489824124301,27.18975658164381,173.67619114958958,158.5231085340135,118.40404733520155,122.56919482051929,215.37833750701225,217.8857393196276
1.1344678011344678,28.373581989422373,26.21509793007787,175.2850015969954,158.01123496004595,118.73940961236076,123.34069435848508,214.8056976332164,217.2815386362452
1.1678345011678346,27.94518722325449,25.16943390407918,176.3405335076977,157.3578494708811,119.10111742541122,124.11471711805488,214.23045879337235,216.6764973500184
1.2012012012012012,27.38367463279837,24.057000471559885,177.93341811607397,156.6602366882958,119.47400529536826,124.89776976452217,213.69225226291783,216.0673476000128
1.234567901234568,26.79449201899889,22.91154442839927,178.69473020890004,155.9092124970461,119.88146023641356,125.68510695011744,213.15460495940704,215.4629485309751
1.267934601267935,26.07453942112855,21.733028099416504,179.70010114418855,155.14557548996137,120.26124494864813,126.46197465308695,212.63959904116484,214.8629586352472
1.3013013013013013,24.98487821289325,20.39567316211162,180.97828006078464,156.8573835540085,120.6164505746454,127.23379401006532,212.14699004842325,214.21087324814303
1.334668001334668,23.74947887108266,19.0770912085971,182.31098112427185,157.92298026633307,120.9012732695838,127.99089666486486,211.7222436364641,213.5480507414617
1.3680347013680347,22.25775563334372,17.90620026296255,183.75651291595568,156.78886374663,121.11788211093838,128.69381064783497,211.35698782549488,212.91715034222725
1.4014014014014016,20.799851885058608,16.765035447451496,184.6196919497617,154.7737820287289,121.22907298780974,129.33925765757903,211.0704103686189,212.33595737112023
1.4347681014347682,19.046706756260967,15.611887466090488,185.5233707316928,154.88517356875428,121.23605245796077,129.91011289379094,210.84650683841545,211.7919533858973
1.4681348014681348,17.37061912443128,14.2725966441181,186.2762186821114,154.13019076629058,121.14574729829576,130.45222346689553,210.71674292137936,211.2635683342863
1.5015015015015016,15.812736551334824,12.899581047188429,185.8854436440116,153.04170030494151,120.987819502267,130.95394633973652,210.61702815689537,210.75816573334416
1.5348682015348682,14.421447242759994,11.582121098515886,187.3730756364492,151.48982388764188,120.74333826841888,131.4185307445286,210.6285458006036,210.28808412635323
1.5682349015682349,13.12959174321581,10.072631287687733,186.6814054762477,149.82415752032233,120.42386481354322,131.8328677698045,210.7527686043028,209.88000789242096
1.6016016016016017,12.026739751361175,8.547427846560215,189.1640421565808,147.57514082076818,120.01702037822464,132.21548474612956,210.99408921094496,209.55041700127865
1.6349683016349683,11.102666323905344,7.029248356770294,190.7599746797777,144.90190689901976,119.53660094112143,132.56369621455275,211.36469818344312,209.3011836681464
1.6683350016683351,10.412131263491338,5.678554497218963,191.65499145874188,141.64234508612154,119.0194077085863,132.8745334993791,211.83908052837089,209.12660113992465
1.7017017017017018,9.857440872072289,4.447737281250142,191.9981544790236,137.9790908242043,118.46072228359488,133.10808098101836,212.3848585059472,209.0472198615946
1.7350684017350684,9.541982350659886,3.4547460560817207,191.59424695918813,133.8908381449893,117.8247299803906,133.32151683800342,213.00775841479893,208.98995007372693
1.7684351017684352,8.985695985501879,2.5725781977390287,189.6490049717117,129.68486541471484,117.13190853795084,133.48225810218176,213.72250664301387,208.96002909356508
1.8018018018018016,8.67967921273345,1.9087936388896192,187.1263096680286,124.56295172120898,116.4048687553908,133.6226969714984,214.49611163946207,208.93716118115097
1.8351685018351689,-0.8292292588564981,1.4645695499722535,183.94615592220475,120.40328834535464,115.6763099329824,133.7470815498113,215.293169459103,208.9057169739827
1.8685352018685355,-0.8292292588564981,1.3622828742551176,180.67332182735817,115.69921256960322,115.00161566042448,133.88755006590853,216.06521360012755,208.82952228547848
1.901901901901902,-0.8292292588564981,1.540002883039446,177.39245875429452,110.15098850286974,114.3518846935379,134.0190884847038,216.8355145258846,208.71991423307995
1.9352686019352687,-0.8292292588564981,1.9756254060510805,174.06610866992744,104.100817667649,113.7212754234727,134.10699914149828,217.6163495345469,208.6396656374708
1.968635301968636,-0.8292292588564981,1.9756254060510805,170.6630441992977,97.5940576626103,113.09482784929708,134.1438311332524,218.4158837570853,208.584298374666
2.002002002002002,-0.8292292588564981,1.9756254060510805,167.40590593761218,91.40647836588992,112.65011899724573,134.15893077620578,219.10603822418017,208.5488058737764
2.035368702035369,-0.8292292588564981,1.9756254060510805,164.347666217379,85.48585836014652,112.33913818577656,134.13933614909928,219.7237399207233,208.5464077803881
2.0687354020687354,-0.8292292588564981,1.9756254060510805,161.4324310613072,79.9257961435448,112.02050874770448,134.08370735005622,220.3416658048374,208.58856799736927
2.1021021021021022,-0.8292292588564981,1.9756254060510805,158.653665449883,74.67949901180219,111.75236980288892,133.98008186346505,220.9154205702565,208.68642844205525
2.135468802135469,-0.8292292588564981,1.9756254060510805,156.6155685945593,69.71250499406887,111.49328616939655,133.88394296514136,221.5058145103123,208.70936231186883
2.1688355021688355,-0.8292292588564981,1.9756254060510805,154.94357921032793,65.25451797891732,111.28066759169452,133.78138057369554,222.06886771803812,208.67226547900407
2.2022022022022023,-0.8292292588564981,1.9756254060510805,153.28018519748812,61.35320934121357,111.14067247837318,133.66698913404142,222.5885345465086,208.60457001597888
2.235568902235569,-0.8292292588564981,1.9756254060510805,151.66669626510006,58.1340040053478,111.09147094357678,133.53519422280965,223.02407497058937,208.51415357800184
2.2689356022689355,-0.8292292588564981,1.9756254060510805,150.1514547130256,55.42122336633981,111.05229317416726,133.4109917712373,223.4445087988988,208.38717257970444
2.3023023023023024,-0.8292292588564981,1.9756254060510805,148.77990259128958,53.33434788821434,111.03194812637494,133.2936362605777,223.83959097869888,208.2419737838192
2.335669002335669,-0.8292292588564981,1.9756254060510805,148.08415586261506,52.005119107520265,111.00400176144228,133.18789561503678,224.2107378989087,208.04485524849983
2.369035702369036,-0.8292292588564981,2.730496291811554,147.14438726537148,51.4615238348941,110.9877984037123,133.07755214790276,224.5277274833112,207.8050278622452
2.4024024024024024,-0.8292292588564981,2.730496291811554,147.3286837597024,51.80292805749841,110.93514273360832,132.9611725475278,224.85431442702577,207.509917130789
2.4357691024357693,-0.8292292588564981,2.730496291811554,147.65962831751037,53.099154286769206,110.85541933443366,132.84646603344552,225.17705035635984,207.1686017294049
2.469135802469136,-0.8292292588564981,2.730496291811554,147.93539293149266,52.100904767407314,110.74188969584048,132.72294095518598,225.50415358754432,206.8486952541944
2.5025025025025025,-0.8292292588564981,2.730496291811554,148.3056870867803,51.19426584733388,110.63190820719475,132.59969816942302,225.8052185952872,206.53849401030072
2.5358692025358693,-0.8292292588564981,2.730496291811554,148.528757378768,52.54081908001176,110.50972248015616,132.51076219547986,226.0965627403865,206.2192993731209
2.569235902569236,-0.8292292588564981,2.730496291811554,149.4209324469372,55.53372824377732,110.37115887322996,132.4556290089214,226.35984443133577,205.8873975464298
2.6026026026026026,-0.8292292588564981,2.730496291811554,150.4113415784177,56.809628036247645,110.2363352299572,132.4445588660488,226.625412779626,205.5730330320704
2.6359693026359694,-0.8292292588564981,2.730496291811554,151.72279535135962,58.41894189636415,110.1215634300588,132.48176075544376,226.82937035939503,205.2660980647335
2.669336002669336,-0.8292292588564981,2.730496291811554,154.64038331282745,59.981794151616114,109.99406407009369,132.54671027311528,227.07385499305587,205.00574999875457
2.702702702702702,-0.8292292588564981,2.730496291811554,155.95010058887226,61.7817426594815,109.88826196511084,132.66831592734778,227.2854943537496,204.7334435980533
2.736069402736069,-0.8292292588564981,2.730496291811554,159.65168125041785,63.34727272882223,109.7976954464698,132.8259764428162,227.4762121482927,204.47066245644123
2.7694361027694363,-0.8292292588564981,2.730496291811554,159.95148185295795,64.93063094114994,109.71966593214236,133.037650857069,227.6512779414097,204.1890568071069
2.802802802802803,-0.8292292588564981,2.730496291811554,159.88762860555187,66.39003618268542,109.63703200531994,133.22188248537822,227.80564586586544,203.95958226180983
2.836169502836169,-0.8292292588564981,2.730496291811554,159.39780976579613,67.76194915914994,109.54129262297164,133.41438376566103,227.9509355205006,203.7548895012344
2.8695362028695364,-0.8292292588564981,2.730496291811554,158.3316421411532,68.9364553507528,109.43360642144025,133.60131658236375,228.10729284182617,203.55816747521808
2.902902902902903,-0.8292292588564981,2.730496291811554,156.92015907046522,70.1578246722547,109.35491868387696,133.78350536727663,228.26547022335228,203.33474696628832
2.9362696029362696,-0.8292292588564981,2.730496291811554,156.2423205033367,70.8850029001187,109.25598882540164,133.92793403824268,228.4319681593892,203.1706119912532
2.9696363029696364,-0.8292292588564981,2.730496291811554,155.60949479428476,71.95411793541793,109.15599993273806,134.05792125837783,228.58843801008825,203.00190397177712
3.003003003003004,-0.8292292588564981,2.730496291811554,155.35410493450698,71.52099723979,108.99073249396572,134.11428976044942,228.79647466456336,202.9591926059861
3.0363697030363697,-0.8292292588564981,2.730496291811554,156.6578240539272,68.69884008805606,108.53336008043692,134.56473570595665,228.9654986868492,202.8794136639689
3.0697364030697365,-0.8292292588564981,2.730496291811554,157.8614906600482,66.43585043905644,108.10869572985274,134.8587896276896,229.18450175543245,202.92638897487672
3.103103103103104,-0.8292292588564981,2.730496291811554,158.09467931344398,68.81259262144533,107.6411380289595,134.7732058554917,229.62366365443256,203.2083905870396
3.1364698031364697,-0.8292292588564981,2.730496291811554,157.57690826318102,71.84275699085615,107.24129170784566,134.4548108529593,230.0820017683291,203.683898348114
3.169836503169837,-0.8292292588564981,2.730496291811554,153.4528012585523,71.70417393644273,106.88727770793597,133.69252799089787,230.62337519007795,204.34104472204933
3.2032032032032034,-0.8292292588564981,2.730496291811554,149.55568118062143,71.17450540703804,106.5633865633834,132.78960297726147,231.1390750782193,205.1277460697319
3.2365699032365702,-0.8292292588564981,2.730496291811554,147.0041148942846,69.24668875014976,106.22100222161572,131.79517819409503,231.72789827695965,206.06085669479867
3.2699366032699366,-0.8292292588564981,2.730496291811554,145.05084897891533,67.84969170595117,105.97653859296716,130.79140218226175,232.22236159824192,207.088336947844
3.3033033033033035,-0.8292292588564981,3.82333060288606,144.04185567370106,67.37463025447474,105.7422845074063,129.8043015492005,232.72839152466017,208.20337406419452
3.3366700033366703,-6.916850918237168,3.82333060288606,144.1824136343835,67.55500459816548,105.61487380343938,128.8496294125775,233.03129886737696,209.37646260362493
3.3700367033700367,-9.731749893192326,3.82333060288606,146.25052656885862,67.60803768447725,105.51731774922696,127.92605507794866,233.1427083689025,210.6448354006436
3.4034034034034035,-9.624914811422665,3.82333060288606,148.58528503576346,68.06581795766442,105.53509118613177,127.05983172180352,233.05113152831092,211.93959850573253
3.4367701034367704,-6.721881753549969,3.82333060288606,151.41383987338645,68.7781043552731,105.54200682721188,126.25208097122751,232.80149855305007,213.29453602309417
3.4701368034701368,-1.420588226423063,3.82333060288606,154.24096417141527,69.78316527390163,105.70071330062255,125.4795512625514,232.29806176220177,214.65259438994363
3.503503503503504,6.134760089551536,3.82333060288606,157.18564257423068,70.91525037315704,105.92126090914311,124.68403992655584,231.591653153044,215.98515550071315
3.5368702035368704,15.706182583245308,3.82333060288606,160.17616213574465,72.53056037844044,106.3661734731425,123.93309410043018,230.6557206655197,217.26065500361827
3.5702369035702373,27.136545080460728,3.82333060288606,162.84070434871217,73.92255284289661,107.05307749184122,123.13284743528236,229.5481964499276,218.5305306692912
3.603603603603604,40.105697266682384,3.82333060288606,165.5864148110931,75.8540601813561,108.03851064584904,122.33625505176931,228.25236906002988,219.73417727669667
3.6369703036369705,54.43150301517083,3.82333060288606,170.21428485302349,77.55186654645425,109.14715057353892,121.59932764482257,226.67102002489816,220.8974260883302
3.670337003670337,69.79915456277602,3.82333060288606,174.11255507808875,79.9587051702556,110.39876419335184,121.02286363156014,224.8739007658492,221.77432884647823
3.703703703703704,86.12602946802232,3.82333060288606,177.82209679204215,82.90333558692562,111.65927126490573,120.71276379039,223.0354981934847,222.37285525231027
3.737070403737071,103.06595801663433,3.82333060288606,180.739734181825,86.47696207768522,113.1088857063455,120.6238439883132,220.9818821011044,222.68776185124085
3.770437103770437,120.46658619633268,3.82333060288606,183.1008872112154,90.9437186454814,114.62092997299116,120.8569220082807,218.7980505384748,222.775663380976
3.803803803803804,138.08895934980478,3.82333060288606,184.89404039495048,95.78178199798477,116.297394008965,121.32462499514207,216.45084096591205,222.57626342078635
3.8371705038371706,155.8122681621181,3.82333060288606,187.88376562453635,102.44874012450262,118.03232077117596,122.0936828010838,214.07236930635383,221.97541876170385
3.8705372038705375,173.24377630378638,3.82333060288606,190.11411463323444,111.50827843252802,119.90334873177696,123.00566846950856,211.6187086803663,221.11985668175004
3.903903903903904,190.20707222114896,3.82333060288606,189.372847327994,119.80299365900645,121.85335601669507,124.0044937486488,209.1305961701301,220.1129761479216
