Time,Left Shoulder Angle,Right Shoulder Angle,Left Elbow Angle,Right Elbow Angle,Left Hip Angle,Right Hip Angle,Left Knee Angle,Right Knee Angle
0.0,24.50893837293786,35.749122712454984,162.99203719107842,170.35030337601768,139.98847883684422,129.6731141179935,190.9485006333045,202.6182022505741
0.0333667000333667,25.41267845564477,34.32174907082562,164.18654053339336,168.36553589264534,140.83995855627848,129.83260365388026,189.3687587031925,202.54890867087985
0.0667334000667334,26.2037856634902,33.06120456017349,165.25573033164633,166.57887272406165,141.53949763204267,130.0374423916173,188.079606273194,202.44478433108736
0.1001001001001001,26.887025769723948,31.954015486955328,166.2107113592037,164.97588354481377,142.09648367428514,130.2853316308069,187.0630561151443,202.3080716560042
0.1334668001334668,27.46716454759581,30.98670815762784,167.06258838943182,163.5421380294491,142.52030429315425,130.57397267105128,186.3011210008786,202.14101307043768
0.1668335001668335,27.948967770355573,30.145808878647745,167.82246619569702,162.26320585251486,142.8203470987982,130.90106681195272,185.7758137022322,201.9458509991953
0.2002002002002002,28.337201211253024,29.417843956471746,168.50144955136562,161.12465668855836,143.0059997013654,131.26431535311346,185.4691469910404,201.72482786708443
0.2335669002335669,28.636630643537963,28.789339697556564,169.110643229804,160.1120602121269,143.08664971100416,131.66141959413582,185.3631336391384,201.48018609891247
0.2669336002669336,28.85202184046017,28.24682240835892,169.66115200437844,159.21098609776772,143.07168473786274,132.090080834622,185.43978641836145,201.21416811948689
0.3003003003003003,28.988140575269448,27.77681839533552,170.16408064845533,158.40700402002813,142.97049239208948,132.5480003741743,185.6811181005449,200.92901635361503
0.333667000333667,29.04975262121557,27.365853964943085,170.630533935401,157.6856836534554,142.7924602838327,133.03287951239494,186.06914145752395,200.62697322610435
0.3670337003670337,29.04162375154835,27.00045542363832,171.07161663858176,157.03259467259687,142.54697602324072,133.54241954888624,186.58586926113395,200.31028116176225
0.4004004004004004,28.968519739517564,26.66714907787795,171.498433531364,156.43330675199974,142.24342722046185,134.07432178325044,187.2133142832101,199.9811825853961
0.4337671004337671,28.835206358373007,26.352461234118685,171.922089387114,155.87338956621133,141.89120148564436,134.62628751508976,187.9334892955877,199.64191992181344
0.4671338004671338,28.646449381364462,26.04291819881724,172.35368897919813,155.33841278977894,141.49968642893663,135.1960180440065,188.72840707010204,199.2947355958216
0.5005005005005005,28.407014581741738,25.725046278430327,172.80433708098275,154.81394609724984,141.07826966048694,135.78121466960295,189.58008037858835,198.941872032228
0.5338672005338673,28.12166773275461,25.38537177941466,173.28513846583417,154.28555916317129,140.6363387904436,136.3795786914813,190.47052199288188,198.58557165584
0.5672339005672339,27.7951746076531,25.01042100822723,173.80719790711998,153.73882166209194,140.1832814289561,136.9888114092449,191.3817446848196,198.2280768914668
0.6006006006006006,27.618295274385343,24.31027354877883,174.3058939722712,152.8523283281991,139.93999353165842,137.58735173961117,192.0987549201232,197.88812463741704
0.6339673006339673,27.450314639120613,23.43095528334176,175.09927474796643,151.79511934290755,139.62791308995222,138.16723258664834,192.81222791366355,197.5881706936036
0.6673340006673341,27.130869150840784,22.43644576119789,175.74210114145572,150.2682348730671,139.3645132504423,138.74867913096716,193.43336775805184,197.30228846020265
0.7007007007007008,26.75475155658889,21.20432528591192,176.7266387100003,148.9979698097519,139.15129639416534,139.34831389102976,193.8872698558181,197.0449378665759
0.7340674007340674,26.41251478345834,19.978767907342483,178.1897471427463,147.97753321796387,138.95122313551852,139.96552773455952,194.3017065369356,196.7881500582415
0.7674341007674341,26.02518865587981,18.94228446054296,179.85591831266922,146.83702136974182,138.73831421902744,140.60607089149462,194.6810289465267,196.5179809709366
0.8008008008008008,25.582882923567663,17.98629808225778,184.381136529902,147.2191041101324,138.56001730523298,141.24777122304604,195.02687946230105,196.2278415134544
0.8341675008341676,25.12325055243028,16.999763115534773,188.22657322889103,146.94408371267437,138.3428552668246,141.900396183504,195.4045074390083,195.8971060798009
0.8675342008675342,24.44020256867014,15.877406674358015,190.9001150641884,146.714367633494,138.04936239580388,142.5558478502644,195.8135895821873,195.57105622901048
0.9009009009009008,23.65518210884732,14.69413452648351,192.8095514632619,145.9789034096369,137.7307835329785,143.22240806004226,196.19893657101449,195.2373955031233
0.9342676009342676,22.781279181946644,13.644807256204624,194.0645186928445,144.862084565729,137.38091431177045,143.8532018696431,196.5675898309776,194.91288614878425
0.9676343009676344,21.74583993627388,12.5689333754851,194.5527150579707,143.40042565995284,136.9675370415242,144.44370302467698,196.94879942418572,194.59305699885664
1.001001001001001,20.559027823551165,11.37619556019404,194.3202679982211,141.61513344894948,136.59469896392952,145.07355777658248,197.34219358212115,194.24511182863404
1.0343677010343677,19.20164935428328,10.422961534179162,193.60848733994987,139.82567930260544,136.20478828531506,145.6430441457469,197.7001391063033,193.89597531102248
1.0677344010677343,17.956375508587445,9.59613091581149,192.4247473667106,137.8148749849477,135.83183949082388,146.2051030291593,198.04454988954487,193.4831278304085
1.1011011011011012,16.65255229076972,8.814798803183185,190.5239121138061,136.05790302521189,135.42587596416018,146.78128419189184,198.426808708623,193.00250311338863
1.1344678011344678,15.31870915301471,8.163461099913356,187.8095426288576,133.94855682077733,135.05886539977163,147.31837782037394,198.78157008391287,192.50519465005428
1.1678345011678346,14.010129147223765,7.317138496289527,184.56031815778664,131.89632948496867,134.6804182271128,147.8371391397867,199.1758990692354,192.0226802302687
1.2012012012012012,12.68853945280052,6.471829047647958,180.7721251624561,131.85660865729992,134.3103023015549,148.3336724768014,199.59555974843428,191.5326662425624
1.234567901234568,11.422663328302596,5.564585053345106,176.52278985486865,126.79932746679928,133.90341605212157,148.754885118611,200.0850439757118,191.0952580382748
1.267934601267935,10.226748423051022,5.032968165914075,171.85042919710162,122.049661239173,133.47228235579897,149.1337828381716,200.6507297669947,190.71725521821253
1.3013013013013013,9.232390445479677,4.267749098355761,166.9327177454376,118.55739665433698,133.04509027391654,149.36917874404935,201.2504238125984,190.5463429654925
1.334668001334668,8.271099606223078,4.151125811544734,161.53968721263058,115.7121427891896,132.61817587843024,149.5286051623907,201.91314896076503,190.47088630898767
1.3680347013680347,7.428132410144189,4.151125811544734,155.84635827358116,114.17061001685931,132.24867955787553,149.69895515796463,202.52432227742983,190.3328645540315
1.4014014014014016,6.938590611211293,4.151125811544734,150.25509452926147,113.70939581326492,131.91436473444278,149.8668524196278,203.0842803319132,190.12525196967115
1.4347681014347682,6.7362869919978445,4.151125811544734,144.73923012504846,111.95561228992264,131.5843958874978,149.9931941080768,203.59448572983865,189.87717712196627
1.4681348014681348,6.64896649483629,4.151125811544734,139.1685245819181,109.9959765042721,131.26110262415324,150.06220249549742,204.08089344934453,189.6565093376404
1.5015015015015016,6.709380235874171,4.151125811544734,133.7683161273846,107.01297582894814,130.93862164109348,149.9947692151074,204.5596191848933,189.5642559335485
1.5348682015348682,-2.1673078629806906,4.151125811544734,128.51499998120846,103.61653296744478,130.67723830319176,149.83969203039305,204.9978276057868,189.5515174358064
1.5682349015682349,-2.1673078629806906,4.151125811544734,123.4787476940928,100.22087094033316,130.5292939694067,149.64238196011794,205.3712785564127,189.6040701194774
1.6016016016016017,-2.1673078629806906,4.151125811544734,119.01593266030108,96.3460417733669,130.46711288820927,149.4186995808086,205.6881877402096,189.71857956562064
1.6349683016349683,-2.1673078629806906,4.151125811544734,115.2917715490378,92.02148900294534,130.49786162704194,149.18549028131363,205.9318567468064,189.8433996478492
1.6683350016683351,-2.1673078629806906,4.151125811544734,112.16748847465703,87.29314196767699,130.55905951570813,148.9012219167402,206.12759124385605,190.0065746844941
1.7017017017017018,-2.1673078629806906,4.151125811544734,109.50608054832465,82.64004516130964,130.65808248076894,148.61749175797334,206.2674928367,190.1974936670179
1.7350684017350684,-2.1673078629806906,4.151125811544734,107.68329926547,77.81980991820993,130.81455068727902,148.30939881406687,206.33402527167948,190.42947696608533
1.7684351017684352,-2.1673078629806906,4.151125811544734,107.12024324409784,72.9911761062682,130.93732428890956,147.9640208361855,206.4363068605604,190.7097410548736
1.8018018018018016,-2.1673078629806906,4.151125811544734,107.4101395019577,68.84162110984813,131.09758663556445,147.64685731820143,206.50625596496727,190.9767857121775
1.8351685018351689,-2.1673078629806906,4.151125811544734,109.19755238371928,65.3888689456002,131.26369402257964,147.3486984875216,206.56023049756035,191.209697431516
1.8685352018685355,-2.1673078629806906,4.151125811544734,112.2179769304116,62.5235227894431,131.40643420020928,147.0582923102879,206.7330453207022,191.39132742653047
1.901901901901902,-2.1673078629806906,4.151125811544734,116.06938960377654,60.01675986650862,131.51444525372935,146.79042137831522,206.93469189890203,191.53875169361928
1.9352686019352687,-2.1673078629806906,4.151125811544734,120.98485691141812,59.49088698171335,131.58071861190857,146.61475219689802,207.1767254873172,191.6676033660216
1.968635301968636,-2.1673078629806906,4.151125811544734,123.14816718503832,56.87871065332299,131.6236501300967,146.39992351214806,207.4704030374219,191.7859730852388
2.002002002002002,-2.1673078629806906,4.151125811544734,125.09323743605069,54.67256052599319,131.6299673944817,146.2490602660922,207.742977275048,191.9055186577108
2.035368702035369,-2.1673078629806906,4.151125811544734,127.53399372677944,51.27544432233801,131.67189917359434,146.1851025688274,207.9980382324236,192.0214048868085
2.0687354020687354,-2.1673078629806906,4.151125811544734,129.99546137958265,48.71138938628978,131.77085301516334,146.1310981532585,208.2515910369925,192.09280265462425
2.1021021021021022,-2.1673078629806906,4.151125811544734,132.40371478250398,46.85546445956072,131.9027937251822,146.04773623937885,208.4969018542067,192.1225513243345
2.135468802135469,-2.1673078629806906,4.151125811544734,135.06885078706784,47.0077632597464,132.24795803846789,146.03828029982498,208.68104692953773,192.1410300301668
2.1688355021688355,-2.1673078629806906,4.151125811544734,137.916077929678,48.67018241374012,132.55604371061904,146.1142388369992,208.8398638802872,192.19149632794583
2.2022022022022023,-2.1673078629806906,4.151125811544734,140.43824594355488,50.11733390360661,132.77176296142076,146.16718886864845,209.03677833047905,192.3050037441729
2.235568902235569,-2.1673078629806906,4.151125811544734,142.52626724055855,51.6853238073653,133.04351526021148,146.24653013886163,209.17344755961065,192.3622675529848
2.2689356022689355,-2.1673078629806906,4.151125811544734,144.3015521737228,53.95284031322703,133.3045379376223,146.24324554307378,209.34382136506127,192.4531764086792
2.3023023023023024,-2.1673078629806906,4.720326472888675,146.2520914844864,56.39584885964455,133.46618779720154,146.17113099363564,209.5330612045132,192.55135348708143
2.335669002335669,-2.1673078629806906,6.054434181970491,148.11964042177402,58.269763947465954,133.6443952381553,146.01020417439076,209.7474590800379,192.7037053302592
2.369035702369036,-2.1673078629806906,7.930560700294047,150.48011376317376,55.81496596743909,133.68579467111698,145.69443180190368,210.04978341752675,193.02434093741408
2.4024024024024024,-2.1673078629806906,9.746540714509898,152.42278499838864,57.60086894231663,133.56655894407146,145.33295376446677,210.4474872991076,193.44910870974832
2.4357691024357693,-2.1673078629806906,11.619366513031313,153.50767827208836,59.9360547818729,133.24619856523805,144.91862202726375,211.077137476358,193.9779599864431
2.469135802469136,-2.1673078629806906,13.612987948073917,154.16734511474385,61.96203835784108,132.64225948116126,144.3457943328844,211.76723122663643,194.64059355341257
2.5025025025025025,-2.1673078629806906,15.63816700075014,153.97717665932865,63.52906145335361,131.81236319868648,143.61399537525742,212.3207037462675,195.495621653359
2.5358692025358693,-2.1673078629806906,17.78040578428538,154.14356349038002,64.22097327406766,131.0054482409691,142.63913706982538,212.7715799605881,196.50968101012305
2.569235902569236,-2.1673078629806906,19.786724190458493,153.67099060598755,62.93212806856707,130.2321381542762,141.60989660197305,213.1378589860741,197.5678792539661
2.6026026026026026,-2.1673078629806906,21.52482115171311,152.4610093964966,61.81423448127776,129.37434788700946,140.5498497956142,213.484163084874,198.7163670079977
2.6359693026359694,-2.1673078629806906,23.1592751198292,149.34298454412016,59.75060203528397,128.48175113353787,139.4832413589999,213.79991508184352,199.93238225396576
2.669336002669336,-2.1673078629806906,24.445505598293387,141.78922832949135,58.02886412588711,127.6104964431047,138.45015933560828,214.0085938996569,201.25898966378864
2.702702702702702,-2.1673078629806906,25.655104808012343,135.9474457346382,56.248067355005645,126.89495868955451,137.50659243651396,214.13217623140653,202.61300432510308
2.736069402736069,-2.1673078629806906,26.985006089808905,131.00799732476446,54.16421584195221,126.24974096341504,136.60278041984816,214.18316070681732,203.98359286806792
2.7694361027694363,-7.472541349754108,28.281657478675605,126.89189275786136,52.56738976133351,125.46557285950256,135.61797924895598,214.3064346144133,205.4649352696089
2.802802802802803,-9.56832233922638,29.92246879410052,123.15913907696628,51.55435075512969,124.61295892587354,134.60676344410143,214.40118400896665,206.9453127468306
2.836169502836169,-8.899147671432946,31.71116282405925,119.9144761897826,51.01354492160719,123.9440489259052,133.61145248048965,214.3464344900992,208.3746388668117
2.8695362028695364,-5.407388807540288,33.8411584688715,117.48096666658832,51.04639805137589,123.37679387371972,132.7005266196238,214.4001066562097,209.8236104988804
2.902902902902903,0.7142999273939443,35.69686366030962,116.17223300474606,51.80134133865258,122.99357901911758,131.84855632941998,214.36192423272496,211.24247395153736
2.9362696029362696,0.7142999273939443,37.40798754840951,115.59663683455626,53.18267449882265,122.7344583684194,131.01613660881827,214.12001447978,212.58242988600327
2.9696363029696364,0.7142999273939443,31.06495934538783,115.70017958242964,54.7773602941382,122.67452883901684,130.02112872383577,213.6527118486522,213.96070344190213
3.003003003003004,0.7142999273939443,27.434281644581027,116.81029146153976,57.19363339069664,122.90138103797894,129.04426433769402,212.888708528761,215.29270521180905
3.0363697030363697,0.7142999273939443,26.020299679974016,118.19280728683898,59.95773531817344,123.29582039066942,128.17173509839958,212.0389270828568,216.4344833428458
3.0697364030697365,0.7142999273939443,25.941258532931144,120.4265477419733,63.93663632231085,123.87063804017046,127.44942483662112,211.0806014006373,217.35605669866348
3.103103103103104,0.7142999273939443,37.226282362978914,122.54549862185246,67.17295663486341,124.57889424287036,126.76441638973117,210.0935846903681,218.06330177197228
3.1364698031364697,0.7142999273939443,47.50656912642107,124.98084007387958,71.50992474979006,125.57904486483014,126.15605693029488,208.8948387104503,218.6881452747127
3.169836503169837,0.7142999273939443,56.58614774480715,127.87876448065036,77.22317400870533,126.59779384494138,125.81391007427317,207.79236838255773,219.0174202011048
3.2032032032032034,9.156245121724362,65.6863242338313,130.88654869596047,85.40347961856783,127.71493480220768,125.88566869685822,206.7096388246252,219.0702214537013
3.2365699032365702,19.21470351653641,73.80952799699234,134.4297574853168,94.08088203263782,128.8231196181121,125.8926145146988,205.6786244508528,218.89475468337275
3.2699366032699366,30.974570226933785,80.7075813348727,138.23151694582364,104.57141980758225,130.0498743943808,126.3885218039858,204.5890230047456,218.52100314100267
3.3033033033033035,44.14176020501631,86.42410097073895,142.72265819536395,114.63579559381932,131.18630486104982,127.01341867234125,203.4874847641495,217.98053433722083
3.3366700033366703,58.32968087846415,91.41195081960583,149.9364472075111,123.77909610160845,132.30516908361884,127.73018503719064,202.41835926072287,217.27676977076504
3.3700367033700367,73.34536699513033,95.2171412856254,155.96414380391366,134.88108858749646,133.48634937726,128.41429392132073,201.38200208528764,216.39015905304072
3.4034034034034035,89.10814935156557,100.18644501048172,161.39022917272223,145.12285698981023,134.5674895397732,129.1690345866027,200.48378041919585,215.4110555718312
3.4367701034367704,105.31972593083698,105.11057666973552,166.23025494739477,152.13962963736833,135.57098841940598,129.949028277359,199.64735872360023,214.25107968554764
3.4701368034701368,121.98034262143588,108.73834687870658,169.44892629469405,156.7008206025239,136.49224232519313,130.62532161179166,198.9158476495976,213.0432843754195
3.503503503503504,138.93167534578146,110.73208442672576,172.0014234813425,158.90103472118827,137.15574107736796,131.2229531384755,198.29803075127785,211.86500214007413
3.5368702035368704,155.7997492321869,111.21382184393048,171.36944676067515,159.99923019087814,137.66946696078418,131.81964751056407,197.7744450091921,210.58107709627376
3.5702369035702373,172.37459450371344,110.80369872412416,169.75648622502715,159.25670909036484,138.06751198767708,132.34089285433424,197.30240140475323,209.26392608546232
3.603603603603604,188.16151757970303,109.13304814377304,166.18612332807749,156.52082274304502,138.3705000150516,132.80666189956312,196.65349672630649,208.0240616904828
3.6369703036369705,203.2448197021837,106.14588575444812,160.84999617597717,152.43625342764545,138.7571349223385,133.24176855308465,195.8714833185316,206.8576015187544
3.670337003670337,217.76418206254056,102.04003496967488,154.40627443924066,147.51400227813988,139.28359310089317,133.71457184215083,195.12615669849592,205.6465807958872
3.703703703703704,231.2208264705318,96.85163908757764,144.79676578751454,141.05414250259548,139.71985429425,134.31586174988632,194.4483359405215,204.4310549084228
3.737070403737071,243.66462958696684,90.81095892285418,132.76741541328025,133.45450086887757,140.0399360727129,134.9212582816361,193.8038391813951,203.31118513340684
3.770437103770437,254.92717668916,84.2487251678068,117.89355640662696,125.18342711598213,140.35002937621852,135.504183991092,193.1502523835275,202.2993745177641
3.803803803803804,274.4406756213054,77.01297138722056,103.79751443987485,114.93193522586232,140.68020874401884,135.98684153585523,192.5051251008628,201.45080046970176
3.8371705038371706,290.7118773817215,69.41753124272431,96.20700263461802,105.00432164242903,141.05346818357324,136.384252510289,191.94973796567405,200.64617445076948
3.8705372038705375,303.2028611517577,61.4498599195904,88.16804700152414,91.20324658092984,141.36308732661269,136.6878048309847,191.44546201422568,199.97840965581287
3.903903903903904,311.42170653923733,53.121473302006265,80.4786606085417,78.18578979615579,141.63832346692806,136.8880380193225,191.0288024465328,199.4628838386409
3.937270603937271,314.9280465157007,44.5557804446875,72.84775476857854,66.52755110809929,142.09198963782444,137.07518740769223,190.53440003617163,199.0187590102877
