Time,Left Shoulder Angle,Right Shoulder Angle,Left Elbow Angle,Right Elbow Angle,Left Hip Angle,Right Hip Angle,Left Knee Angle,Right Knee Angle
0.0,19.93872455947464,20.06881587137385,159.97208917642024,157.1124766662767,139.4450045088982,137.99072219217956,199.7745137470181,201.5557535866372
0.0333667000333667,20.86177160126928,20.730100907979388,160.14812823002498,157.8112200846155,139.60250585709767,138.25158053541452,199.3792495461371,201.51027308525263
0.0667334000667334,21.604253290154656,21.31509515464624,160.17465710836652,158.43079827622108,139.7055168363183,138.46168290594423,199.0633874977628,201.47549599986647
0.1001001001001001,22.17991913889032,21.828367122803453,160.0666978228208,158.97498208575746,139.75779304570585,138.6241361509908,198.8226059960934,201.45087281304333
0.1334668001334668,22.6025186602358,22.274485323880093,159.83927238476377,159.44754235788864,139.76309008440592,138.74204711777634,198.65258343532705,201.4358540073479
0.1668335001668335,22.88580136695066,22.658018269305213,159.5074028055714,159.85224993727866,139.7251635515642,138.818522653523,198.548998209662,201.4298900653449
0.2002002002002002,23.04351677179444,22.98353447050787,159.08611109661965,160.1928756685915,139.64776904632643,138.85666960545285,198.50752871329624,201.43243146959887
0.2335669002335669,23.08941438752669,23.25560243891712,158.59041926928447,160.47319039649122,139.53466216783823,138.85959482078803,198.52385334042808,201.4429287026748
0.2669336002669336,23.037243726906954,23.47879068596201,158.03534933494183,160.6969649656418,139.38959851524532,138.83040514675065,198.5936504852557,201.46083224713703
0.3003003003003003,22.90075430269478,23.65766772307161,157.43592330496767,160.86797022070726,139.21633368769338,138.77220743056284,198.7125985419772,201.4855925855504
0.333667000333667,22.69369562764972,23.796802061674967,156.807163190738,160.9899770063516,139.01862328432807,138.6881085194467,198.87637590479068,201.5166602004796
0.3670337003670337,22.429817214531298,23.90076221320114,156.16409100362873,161.0667561672389,138.80022290429508,138.5812152606244,199.08066096789443,201.5534855744893
0.4004004004004004,22.122868576099087,23.97411668907918,155.52172875501583,161.1020785480331,138.5648881467401,138.45463450131797,199.32113212548657,201.5955191901441
0.4337671004337671,21.78659922511262,24.02143400073815,154.89509845627526,161.09971499339824,138.3163746108088,138.31147308874958,199.5934677717653,201.6422115300088
0.4671338004671338,21.434758674331448,24.0472826596071,154.299222118783,161.06343634799833,138.05843789564688,138.15483787014136,199.89334630092875,201.693013076648
0.5005005005005005,21.08109643651512,24.056231177115087,153.74912175391498,160.99701345649743,137.7948336004,137.98783569271538,200.21644610717505,201.7473743126264
0.5338672005338673,20.739362024423176,24.05284806469117,153.25981937304718,160.90421716355948,137.52931732421388,137.8135734036938,200.5584455847024,201.80474572050863
0.5672339005672339,20.42330495081533,24.041701833764574,152.84633698755673,160.78881831384976,137.26564466623535,137.63515785029972,200.91502312771067,201.8645777828611
0.6006006006006006,20.38954680975006,24.03758525163456,152.8133832287634,160.63714936475552,136.98260408885398,137.40970596569946,201.3832292093241,201.9347827282945
0.6339673006339673,20.46290806549733,24.0578126107398,152.95132776659665,160.5796635490792,136.78358163629363,137.23637793330423,201.74493335241587,202.02244990590884
0.6673340006673341,20.55904269155964,24.106762109539915,153.1013148847818,160.4702485401014,136.63759129236203,137.06936907439209,202.0559841119781,202.096846664072
0.7007007007007008,20.68991527116387,24.172248008894343,153.3019148590162,160.28635690021684,136.4788287849763,136.91331248903967,202.3620119464998,202.16809465488333
0.7340674007340674,20.971689814445927,24.3827577297904,153.78653879359163,160.35090505844946,136.37297894431745,136.7477580823655,202.65016266367653,202.2534338053874
0.7674341007674341,21.32664164543078,24.56955362292463,154.46781858735372,160.29771994227517,136.3160765473939,136.6084030006633,202.91078995191972,202.3127892344364
0.8008008008008008,21.75967892975909,24.779338127236034,155.262919060443,160.30982628106412,136.24486427485476,136.4553174561517,203.2050597717072,202.38130906671088
0.8341675008341676,22.248653948043987,24.943644620528023,156.1504777218421,160.3124108280442,136.1606864038825,136.30942761225774,203.51150085259923,202.44671204776216
0.8675342008675342,22.781920164581045,25.172113096820155,157.23892583595006,160.27556526258246,136.11032433940244,136.22747769308475,203.7631090228567,202.48507738784969
0.9009009009009008,23.340513540427192,25.41382940526869,158.68703981295218,160.1867536759534,136.10809794777782,136.21617229967606,203.9860822275528,202.50101480396185
0.9342676009342676,23.925489917542663,25.5929624837381,159.64628389125502,159.96973394825312,136.06154847840864,136.25409215422624,204.20944597039016,202.5079235421921
0.9676343009676344,24.459999022768887,25.723765734295053,160.3644448081508,159.5320157057426,135.97383037413485,136.33095938953244,204.450274839332,202.5167680857335
1.001001001001001,25.060940905535418,25.92006448085827,161.26081420651013,159.0555205787046,135.86762282991657,136.44747427889223,204.67513808687684,202.5211725269397
1.0343677010343677,25.70866445633081,26.152943430636,162.30210404884423,158.60844529052343,135.72378233144562,136.60425169671652,204.9071491310259,202.5319156520179
1.0677344010677343,26.3888189204812,26.31031063597308,163.40641737701895,158.00504517482565,135.5729599030997,136.80716729136435,205.10733535771416,202.520180703886
1.1011011011011012,27.05876144577665,26.329190221360143,164.52341611165372,157.42377882060686,135.4313436943806,137.04400601501607,205.3039164912085,202.5030417898691
1.1344678011344678,27.70086668729004,26.006033483272063,165.53178818594702,156.52433917758393,135.29073184918386,137.3254668712723,205.52363857601503,202.4716170917493
1.1678345011678346,28.349292331416738,25.73212459373632,166.68555682611424,155.8477557150524,135.10871410254026,137.6505434194006,205.7812220516724,202.43216515946185
1.2012012012012012,28.98331315669871,25.51601474194774,167.65376460428132,155.41192940139916,134.87542406326546,138.00211821297367,206.07327556936,202.3971756479909
1.234567901234568,29.67316001855112,25.195262353342063,168.63348977894387,154.95724589259004,134.6140089133303,138.3959871250578,206.3950296940092,202.3532238929003
1.267934601267935,30.50452630510324,25.10337417217793,169.71759446815537,154.962342194069,134.30756836786713,138.82474396978296,206.7576321593327,202.29349769251448
1.3013013013013013,31.280797153700668,25.03244251347386,172.6068928528756,154.98493249005728,133.98792845952556,139.30337897964068,207.1302652147564,202.20911723437808
1.334668001334668,31.78673686361207,24.544774855240483,175.0058632351968,154.4085470455108,133.66446808692405,139.81812762796991,207.49879390846056,202.1139282932574
1.3680347013680347,32.06830506461128,23.57168666731944,178.99029736307563,156.68394580727875,133.33384755128827,140.35189612385906,207.86716541271431,201.99345640640283
1.4014014014014016,32.00500469529939,22.65216706623588,181.4354088054421,157.2202728036624,132.99502408124053,140.8841184477447,208.24574220802447,201.84114489144315
1.4347681014347682,31.598379734735964,21.932390416628166,180.5092411115872,155.85166394136422,132.66842295023568,141.4282650361162,208.6516419525428,201.66062031072968
1.4681348014681348,31.07263350223062,21.39099916806609,181.58018055880748,154.15510358499233,132.34374293174594,141.9894087873162,209.0998598929441,201.44405543851585
1.5015015015015016,30.33755163008496,21.082763866990533,183.246802130598,152.93217334981924,132.05824568156868,142.56581540733112,209.55512046153143,201.21772637857805
1.5348682015348682,29.13480666147817,20.87447608933705,184.1224199788585,151.7530394077507,131.80961885049598,143.14269678543764,209.9995226444172,201.00344942031413
1.5682349015682349,26.8698494946878,20.986670508909643,184.1460826820428,150.47845379227095,131.62250310991152,143.7072409036921,210.4467018243716,200.7747840156432
1.6016016016016017,14.921367069548026,22.516347411355657,183.2963152002504,153.18142968212732,131.51821886397465,144.26026349180609,210.87369627139563,200.51772414632435
1.6349683016349683,6.266628295826311,24.09837102759452,181.247564996304,150.3739660397562,131.46245780532482,144.80713866486573,211.3049452335443,200.2404356438702
1.6683350016683351,9.753706800131106,24.893264071033805,179.09432039261608,149.96857130226306,131.4779772184518,145.37368326123823,211.7048270870509,199.93797924386044
1.7017017017017018,14.505319709137698,25.450734968029963,176.63808483209354,150.11312812923398,131.55334141620173,145.8931461388399,212.1017907842053,199.62527460160703
1.7350684017350684,19.14701511366875,25.67232742727055,174.17061345983774,146.01651718929884,131.67526878096817,146.3869204849088,212.48591603436404,199.28133175826355
1.7684351017684352,22.56332010755291,26.024766925051,173.02347621590022,146.6045348475917,131.77073089477057,146.85856700137344,212.8323718514823,198.91501673027383
1.8018018018018016,25.86041361394394,26.44070477297875,171.98387130759426,145.42965539128005,131.88703969957433,147.2623036888336,213.1873954330154,198.5315116554424
1.8351685018351689,28.808904032368392,26.42889555010374,170.29758706647408,142.09339847981988,132.0637244771759,147.8126094262288,213.48929850806428,198.1593726752972
1.8685352018685355,32.465590793163315,26.51841843436626,169.7214601713999,138.48969078684007,132.3927503771052,148.16100807786097,213.806502544333,197.77154175466384
1.901901901901902,35.97744254006392,26.660649617966698,167.41390879728715,133.78062860029658,132.7745510265998,148.36764322187878,214.1344910656761,197.34613427849789
1.9352686019352687,39.032472218953664,26.63181796261524,164.58008614586947,128.57551212896092,133.16512433303654,148.48190178450852,214.5069579481518,196.92914818851747
1.968635301968636,33.12378784202109,26.856878555741105,160.8380502481714,123.12926448465883,133.59314256443292,148.61046994482027,214.85936886440228,196.4854127039009
2.002002002002002,29.889892424879967,27.553840570251623,156.5473871700379,117.68167905449089,134.08736810695697,148.7487813902753,215.17597218820453,196.02661495223307
2.035368702035369,29.273772785739247,28.04788009016137,152.82340794635965,111.51645369899018,134.64118421490227,148.90520613758196,215.5087923994112,195.578538792337
2.0687354020687354,31.11532677318825,28.542340264433264,148.47742433975947,105.11411136729043,135.20408703118824,149.06532986297245,215.8519019960648,195.16166727439864
2.1021021021021022,34.934536161862454,29.19719548361863,144.72057835509585,98.28632870306926,135.7396303131933,149.23506579315745,216.1716323993472,194.77855899551176
2.135468802135469,40.65946817647077,30.026024155380767,141.5930452356113,91.8587139014178,136.26457555748678,149.43022887730783,216.41869506198165,194.4114127992536
2.1688355021688355,57.21223617221142,31.13958007046104,139.6227307005218,85.44520080910739,136.75983279739654,149.64852459153556,216.637011578261,194.0785090692337
2.2022022022022023,72.56333395834564,32.236889322646746,137.57179895773385,79.08645700282617,137.2218085802065,149.90479407956082,216.7924006575685,193.7515523763088
2.235568902235569,78.31210157162676,33.36263777361538,134.1392944507796,73.19938819180103,137.63913635009743,150.19079532891263,216.9518479209999,193.4473043322644
2.2689356022689355,86.04032883043115,34.42204116415121,130.61259762406905,67.707204486064,137.92902842262134,150.4875336832987,217.15175266340952,193.1621125387785
2.3023023023023024,95.0226362748487,35.67124089080976,127.84611669484585,63.11854705537155,138.1332243247583,150.78073790436207,217.36997348683204,192.90442887113787
2.335669002335669,104.84388974036156,29.112456722606,126.02093441517756,59.08992151152452,138.31784568848832,151.08616518668734,217.58011583783875,192.66655920406967
2.369035702369036,115.43843212818182,25.23594044210335,125.46649288945363,55.3296864315161,138.5027280772952,151.40475087618597,217.7622067015658,192.44932460843324
2.4024024024024024,126.34447055457429,23.84385854578296,126.14108077786902,52.44088206865687,138.66279896093116,151.70778288719293,217.92524073257687,192.2495698328068
2.4357691024357693,137.3160117692936,24.396449279823656,127.97962160616552,49.97688906086344,138.81392623389502,151.99739756990374,218.0511744796594,192.07014250584496
2.469135802469136,147.89403227803095,26.82681811858254,128.74067361710368,48.189697959843485,138.93015224467734,152.2739188843786,218.17040368214964,191.91397848575983
2.5025025025025025,158.05921363400464,31.46382301201932,130.17500449546137,47.88376645137457,139.0128038460724,152.54367785975472,218.2875326593188,191.7579003515152
2.5358692025358693,167.5996720011752,38.481901232532735,129.57981695103555,44.82905315775475,139.07976839004405,152.8076950508182,218.40465380838825,191.6079768492786
2.569235902569236,176.46754430689188,47.2749229127328,129.491908862485,43.15963263239583,139.12516897750055,153.0705206843138,218.5364595419106,191.47413565191235
2.6026026026026026,184.4298489896537,57.58794792955125,132.6947345118891,43.85173924116937,139.1475124110535,153.32434905410656,218.671484857069,191.3611383149297
2.6359693026359694,191.35227785049287,69.28328947088228,134.42928296266055,45.88536942936573,139.15772074047533,153.5604932887806,218.77577048092007,191.2802299697792
2.669336002669336,196.9374263980001,82.03502713820347,135.21716164010547,48.600909350463766,139.16520316129555,153.78598430759672,218.8434632822468,191.21930468075263
2.702702702702702,201.0369108041204,95.859234072538,136.53490443972353,52.27111978200453,139.20231892443653,154.01801586284827,218.8837069210646,191.13859936262605
2.736069402736069,204.7320974099092,110.38240053977792,137.9265905807474,56.97243130035516,139.2275000953752,154.2518371018408,218.8885091313324,191.04721016531448
2.7694361027694363,220.48197444674065,123.89790538878388,139.64560631511696,57.339599487634,139.23041212673584,154.47892494274888,218.87521926498565,190.95378135040423
2.802802802802803,238.0802145224586,137.15050608212496,142.71602867907976,62.93716501353151,139.22195916740014,154.69632364097032,218.8488755890755,190.8620465705073
2.836169502836169,245.6926517507549,150.88885070222722,146.0238665950147,66.45276388078905,139.19829640058927,154.88255624139725,218.8584122905208,190.73785903550777
2.8695362028695364,250.46941528100427,164.5932931103478,149.79335042910904,68.64867114399138,139.2129952748079,155.07399436196215,218.86375658444345,190.58630324900471
2.902902902902903,253.32403146988008,178.32246861884164,154.25903996176683,74.99932013283232,139.25525453269492,155.2305903798428,218.8611132556001,190.4535546081437
2.9362696029362696,255.6870537380193,191.5464298285825,157.14068970307346,76.30734271339897,139.4452774893016,155.36400342100552,218.8683489481648,190.3050549414188
2.9696363029696364,256.4366704897498,204.1912272025755,159.08536270121843,77.5097951140159,139.7656385794374,155.51327229839734,218.8368093896747,190.1417248219065
3.003003003003004,255.6408895715712,216.71087134188264,161.46935114972655,79.76609208445367,140.2112422194026,155.45950486143312,218.8092767451902,189.88852726127905
3.0363697030363697,252.121716046292,228.5213287748312,161.90811584566748,81.73675237988071,140.68521221168626,155.4098676046496,218.7795856250981,189.6658415251656
3.0697364030697365,246.2839617435331,239.33275717000475,163.03971705173328,84.00540489705612,141.1216678332631,155.37812882840592,218.7772392013418,189.52195962742547
3.103103103103104,238.5713312676743,249.52198549631245,163.76902790514967,86.4355016653719,141.56007159235693,155.3360777910804,218.7559343829264,189.48243730037336
3.1364698031364697,240.07378556286912,258.55206579842485,165.35850019624036,88.70977356551423,141.95949486750152,155.19935839981596,218.7669846944076,189.6371072285175
3.169836503169837,242.2487001976586,274.30332240432995,167.41162543314388,90.48853508954426,142.3938974087972,155.07513938383494,218.73212357754628,189.87359803462363
3.2032032032032034,244.9432456925799,286.6930883730846,168.8355586917844,91.93430263402944,142.65100953585278,154.85795703865628,218.70051400077296,190.2909447909288
3.2365699032365702,247.7241591645468,296.51082619425534,171.28206129543574,93.65200660341276,142.8013248988117,154.49491070987645,218.618789111631,190.93855135339632
3.2699366032699366,259.6445451042142,303.03093123155145,174.85176060194237,94.92124934630644,142.75700435821648,154.1641511743799,218.48952179065765,191.8142109260492
3.3033033033033035,270.85552374953335,305.30120983198367,177.08095104697392,95.62978105524088,142.68096907825563,153.59323796194067,218.53247042651464,192.8382646321787
3.3366700033366703,270.24878175337494,303.594279352879,172.23310788511938,96.32548005532315,142.56846795162903,152.82375924423104,218.66259458821315,194.0027154404065
3.3700367033700367,264.0866665021843,297.7672806255204,173.0217380041747,93.55281597087355,142.42946164158437,152.32425019023242,218.71768872507167,195.28657037595448
3.4034034034034035,264.71335279150225,287.548114458852,166.260924529954,91.83359987487596,142.08146642275318,151.47305031157458,218.9918132723411,196.64919842952
3.4367701034367704,262.9311548345476,274.6064313010454,162.77574296120034,89.84702046813517,141.66838624674642,150.3662126587618,219.32163415092856,198.057836316872
3.4701368034701368,258.9338551259804,257.16249382359524,159.5920708426606,88.8340045242033,141.22939178029236,149.21982744247117,219.55898921978184,199.5362566123748
3.503503503503504,253.35539037449743,246.5971402565552,156.43290336092525,86.38046821982178,140.79481791844674,147.9630342382129,219.8206736164109,201.13943185538665
3.5368702035368704,245.7123101772671,234.0707240541473,153.86641279877216,83.70051653351459,140.23309050515013,146.73899047775666,220.1088207969356,202.81877591589327
3.5702369035702373,236.19388408846703,220.8864979785495,151.53255123070545,81.20850086379035,139.47376728687286,145.52906339230316,220.63079643995903,204.58296720146328
3.603603603603604,225.0079180964915,207.5527453576828,148.7032485883298,79.08594513061988,138.7704656032586,144.33177564413,221.0697072847344,206.4003716881745
3.6369703036369705,212.90849759657743,193.7706412543252,145.95957867222663,77.78089834643717,137.9916176248179,143.07938290019473,221.36666863613968,208.27274650830185
3.670337003670337,199.9028864712812,178.4544685252171,143.96377640940196,75.49811833461455,137.2514770282334,141.8090399735393,221.6612242855585,210.277022967063
3.703703703703704,186.6756745988613,163.34757221335929,142.68619673787558,75.30661569064453,136.2814773112976,140.43471614545953,221.9356694094567,212.31357296567845
3.737070403737071,173.24185056390593,148.02053990879287,142.54399747061032,75.33307177415521,135.3271897053231,139.21017183025805,222.50989971629213,214.2139564948949
3.770437103770437,159.50181289896446,132.3989003142983,142.63242069500131,75.52546102680364,134.45014174337268,138.0499204224167,222.9382880623001,216.0713249815188
3.803803803803804,146.370587448858,116.60544887188075,143.2018865798673,75.79653974877556,133.69632202856312,136.75461654982445,223.14433353905915,218.0186940104244
3.8371705038371706,132.3212942851871,100.6607589536975,144.2271839783611,75.8404332708302,133.1429834805147,135.59107473216676,223.17151389566527,219.92028832079012
3.8705372038705375,118.51524030589522,85.31059212095232,143.84882101168202,76.07940344530898,132.6517138937943,134.6277972631603,223.1000994926836,221.69551706269547
3.903903903903904,104.89350947457436,70.39477580251224,143.3775313724549,76.98211537520834,132.33742120802262,133.83290666325018,222.7721740575216,223.32491548529788
3.937270603937271,91.20005383825944,56.448258731448696,143.71759021250477,78.75331645375528,132.18097930568342,133.24098454982743,222.25666220118427,224.7539093626742
