Time,Left Shoulder Angle,Right Shoulder Angle,Left Elbow Angle,Right Elbow Angle,Left Hip Angle,Right Hip Angle,Left Knee Angle,Right Knee Angle
0.0,22.23093087489845,30.31665409713387,146.70786177119132,161.656594489628,138.83381211309512,136.43345969455342,194.3653726758388,201.39869942886529
0.0333667000333667,21.34485765934745,29.661316336977,145.82155928937723,160.84025642888477,139.03129896161096,136.7871440090954,194.86455439170263,201.21826878466143
0.0667334000667334,20.651154636273173,29.142302451813222,145.1790148201689,160.2133581857659,139.19211190309244,137.06509392289388,195.32510324422492,201.06836344695867
0.1001001001001001,20.139971804080524,28.751481801823846,144.76658641578533,159.76175210360807,139.31773869496314,137.2722196332127,195.7483749215424,200.94666231134093
0.1334668001334668,19.801459161174414,28.480723747190147,144.57063212844554,159.47129052574795,139.40966709464664,137.41343133731584,196.1357251117916,200.85084427339223
0.1668335001668335,19.625766705959748,28.321897648093422,144.57751001036863,159.32782579552227,139.46938485956642,137.49363923246725,196.4885095031092,200.77858822869663
0.2002002002002002,19.60304443684144,28.266872864714955,144.77357811377357,159.31721025626769,139.49837974714612,137.51775351593085,196.80808378363184,200.72757307283808
0.2335669002335669,19.723442352224392,28.30751875723604,145.14519449087942,159.42529625132087,139.49813951480925,137.49068438497056,197.09580364149616,200.6954777014006
0.2669336002669336,19.97711045051352,28.435704685837955,145.6787171939052,159.63793612401852,139.47015191997937,137.41734203685033,197.35302476483884,200.67998100996817
0.3003003003003003,20.35419873011372,28.643300010702003,146.36050427506996,159.94098221769735,139.41590472008005,137.3026366688341,197.5811028417965,200.6787618941248
0.333667000333667,20.84485718942992,28.92217409200947,147.1769137865927,160.32028687569402,139.33688567253486,137.15147847818582,197.78139356050585,200.6894992494545
0.3670337003670337,21.439235826867,29.26419628994164,148.11430378069258,160.76170244134525,139.23458253476733,136.96877766216943,197.9552526091035,200.70987197154136
0.4004004004004004,22.127484640829888,29.661235964679808,149.15903230958847,161.2510812579877,139.11048306420102,136.75944441804882,198.10403567572607,200.7375589559693
0.4337671004337671,22.89975362972349,30.10516247640526,150.2974574254995,161.774275668958,138.9660750182595,136.52838894308798,198.22909844851023,200.77023909832224
0.4671338004671338,23.746192791952712,30.587845185299287,151.51593718064467,162.31713801759295,138.8028461543663,136.2805214345508,198.33179661559265,200.80559129418432
0.5005005005005005,24.656952125922466,31.101153451543176,152.80082962724302,162.8655206472292,138.622284229945,136.02075208970123,198.41348586510995,200.8412944391395
0.5338672005338673,25.62218163003765,31.636956635318217,154.1384928175136,163.4052759012034,138.42587700241918,135.75399110580324,198.4755218851988,200.87502742877177
0.5672339005672339,26.63203130270335,32.18712409680594,155.5152848036766,163.9222561228536,138.21511222921342,135.48514868012188,198.51926036399743,200.9044691586668
0.6006006006006006,27.63503989357891,32.74059756029509,156.76314409964348,164.297641932409,137.9549007339532,135.22528811620407,198.51214570116863,200.9245833608157
0.6339673006339673,28.654988718289022,33.405856175284256,158.06954622337872,164.7895522201159,137.747336921039,134.92631984017572,198.51659984215456,200.94188592762785
0.6673340006673341,29.72670310102142,34.02616450469573,159.4745911667465,165.14151478317245,137.53101172015266,134.66328224205685,198.52938076080528,200.9381330067501
0.7007007007007008,30.79388709345332,34.64624196522883,160.89679053330812,165.38936596851994,137.33233353550085,134.4373177888361,198.5083943024076,200.9192841635758
0.7340674007340674,31.835815455893496,35.170114853897864,162.25745436699083,165.44184965647685,137.12165986905626,134.26365175109012,198.46960729838645,200.8696234154021
0.7674341007674341,32.82562321494602,35.64585410134807,163.59365110277938,165.39200572664504,136.9174433430259,134.131446845728,198.4103815763278,200.79239954727848
0.8008008008008008,33.80604467322458,36.03012606442236,164.87978795301507,165.17717840945772,136.68453003995322,134.0543211955285,198.34982723392733,200.6864252790992
0.8341675008341676,34.75522733710719,36.40777144053672,166.08320193627313,164.98850741854582,136.42516280096328,134.01299153258114,198.30962413658045,200.59024631413183
0.8675342008675342,35.65545033567749,36.632640791342496,167.13491273805187,164.5901709802224,136.13690774156194,134.03683648278903,198.2828375976163,200.4642515216884
0.9009009009009008,36.49738701916844,36.74584772805117,168.11784831943072,164.11102687048532,135.89235462628707,134.11793474923653,198.20989254277737,200.2964145320474
0.9342676009342676,37.30615557306113,36.64068340784859,169.00029498637747,163.3173390771591,135.63435234660258,134.2686146000027,198.12944532446568,200.08661895474336
0.9676343009676344,37.97808327944267,36.30554375757277,172.60297395484895,162.55043633565447,135.35637350013278,134.48933867841532,198.02071737394093,199.8261851849153
1.001001001001001,38.55985206538289,35.7383274271219,175.07576849842138,161.4337600799854,135.0201818116761,134.76591445821282,197.96332485671869,199.53231918010607
1.0343677010343677,39.10429621074997,34.99323596139469,170.5317104012565,159.7094343126245,134.65251843058496,135.07285209355345,197.9513772187304,199.21431182552013
1.0677344010677343,39.58420076101958,34.10092376092675,167.3390791159814,157.6808037350142,134.23323195042911,135.42004338354045,198.0002998824117,198.88466044767367
1.1011011011011012,39.9905510725808,33.23221137007287,170.8627893222181,155.82010880506573,133.7715897347748,135.79197781243005,198.1131947420429,198.583683170378
1.1344678011344678,40.30606597640018,32.224475931884484,173.6594680984757,153.76469232544983,133.2746712500747,136.20111943638793,198.28550860351675,198.2807415254777
1.1678345011678346,40.717055449253024,31.148927749275096,175.3338090106606,151.83704854778378,132.76194212376316,136.62176047981242,198.5118838517672,197.9759797190063
1.2012012012012012,41.217810469926256,29.90701489558234,175.2873001490373,149.63329692986574,132.22662640095064,137.0486086143601,198.77441091445223,197.66842378211547
1.234567901234568,42.18174087680072,28.57530114771092,173.6934386038424,147.48572228498546,131.7004031738531,137.4921917990159,199.0229579234252,197.37957692208164
1.267934601267935,42.98987446838109,27.109875625976287,171.30780078710384,145.01580808518622,131.17089168918463,137.9657832892085,199.2729854472533,197.09003502335145
1.3013013013013013,43.717863027451536,25.464757018846026,168.3110911630566,142.76603321001167,130.5965759774193,138.4263672074636,199.5753238340461,196.80683427265532
1.334668001334668,44.13033465390289,23.67515648475222,164.7123616392336,140.12702409861822,129.97421141847656,138.88904554148843,199.91791088877383,196.51755331223424
1.3680347013680347,43.77116822903191,21.648191427545445,160.32928133381648,137.42683088316213,129.28304234327842,139.3286758298667,200.309139605116,196.2723613056885
1.4014014014014016,42.89331706592768,19.65543506230633,155.41635767774315,134.40732866797302,128.59756358869265,139.7755846669958,200.72019735006225,196.02210946557813
1.4347681014347682,42.242386554510006,17.74096196984797,150.3659151231658,131.61633587967697,127.9380249869076,140.21480952932984,201.12405314644545,195.7877624286697
1.4681348014681348,41.34005796675273,16.006313804231542,145.49883949398017,128.44285978707762,127.26369301132384,140.63947635643234,201.5178756566897,195.5641451022678
1.5015015015015016,40.33909561700596,14.3984722890178,141.4524285057962,125.95500433260698,126.64037174383908,141.07910109665062,201.88674413640163,195.34473804946623
1.5348682015348682,39.1105154923946,12.934413926192422,137.23478332394166,122.37341221192182,126.05612292212886,141.51782954180976,202.2430452275664,195.1088871826705
1.5682349015682349,37.560854334879735,11.616709831527794,132.8373344448579,117.46574050664898,125.53387581878694,141.98835757655328,202.56542650215533,194.8488542309045
1.6016016016016017,35.799900990743936,10.4994191696855,128.29516379451152,111.95308014710004,125.09245432096868,142.47787506937294,202.8393172643756,194.55380498912635
1.6349683016349683,33.514444511986255,9.486585388411283,123.26292535411628,107.03793117008227,124.75598081645738,142.93103824363888,203.05756545435165,194.23357104819104
1.6683350016683351,31.133698398248704,8.745667248168466,118.23253330940986,102.02365108070222,124.47124899959762,143.31599220816912,203.25607207153016,193.889045562594
1.7017017017017018,28.367033031943752,8.240686521682223,113.09720473385995,96.983820418479,124.22995065878531,143.60925832143369,203.45990948153755,193.5320841086787
1.7350684017350684,25.54504403864156,8.00308276578167,108.07542538061386,91.84228352210116,124.01726463605904,143.8801502491178,203.6765018745447,193.1512985422546
1.7684351017684352,13.484630031261258,8.03053490861614,102.19636557345773,86.61003453966046,123.86906391421552,144.08146584744915,203.87686874118748,192.76729263979823
1.8018018018018016,4.688518479157446,8.221625119245966,97.25393674799363,81.20418034745788,123.7533364661595,144.3066247356503,204.0454059770024,192.3598810357584
1.8351685018351689,4.688518479157446,8.597582827091278,93.4913082086244,75.62170020137391,123.6726133496136,144.48716449712165,204.16396577204785,191.95759298356103
1.8685352018685355,4.688518479157446,9.162167157937064,90.6177538629256,70.1274927325017,123.58869805436098,144.6482809399326,204.3045671729733,191.55668220311404
1.901901901901902,4.688518479157446,9.927757151075465,88.58231275643773,64.87693832631987,123.54144233386488,144.7830139059016,204.4401070193947,191.1646188065741
1.9352686019352687,4.688518479157446,10.865634626913137,87.44354578350999,59.90547030226615,123.49069806179952,144.90703484457924,204.59661328241,190.78384973604267
1.968635301968636,4.688518479157446,11.917399302445714,87.13632342615632,55.225338277110254,123.45184540102468,144.99561249164248,204.757111133633,190.4072654384602
2.002002002002002,4.688518479157446,13.051533021284634,87.86859534366778,50.77354803134803,123.4374471563332,145.0929790995507,204.9074843106372,189.98340181281705
2.035368702035369,4.688518479157446,14.31516374990306,89.54020636648052,46.714082015540015,123.46356587999358,145.1836269418231,205.04959567663943,189.54559167246097
2.0687354020687354,4.688518479157446,15.661870903451854,92.21761302769644,42.995829382551285,123.44273822603743,145.27033920404196,205.24898224016664,189.1210263219964
2.1021021021021022,-1.1392615001997966,17.123597690420425,95.96674985894512,39.76767298308559,123.40880686923816,145.33066231310306,205.4867414384356,188.7378546127797
2.135468802135469,-4.04014117369355,18.74679098118801,96.91769389519762,36.72247185610829,123.3453854887395,145.35431041372533,205.8140778513408,188.4145557421245
2.1688355021688355,-4.143912376861888,20.49668561591353,97.98193056321104,34.199433328681096,123.30651248640392,145.3270865065785,206.17532808581225,188.1682285918737
2.2022022022022023,-1.6900115475655513,22.367025153594167,107.05875070508596,32.58929175468335,123.24608774539736,145.28408193483182,206.57425765946388,187.99316916703003
2.235568902235569,3.2874470280094554,24.34559276495001,117.612203683996,31.877312787121745,123.16724845362975,145.21808247450866,206.9828628220891,187.88793382016232
2.2689356022689355,3.2874470280094554,26.22295099181905,122.07405561390388,31.522422818043104,123.07795122730734,145.1535318997859,207.3841436413062,187.80084374042417
2.3023023023023024,3.2874470280094554,28.057655260927017,125.67729111899494,31.76971221976698,122.98739690115916,145.07485174778273,207.77108279872832,187.76151950236465
2.335669002335669,3.2874470280094554,29.75407634485745,128.567303691679,32.227840257507744,122.88376400669236,145.01823451038686,208.13903770438137,187.7573061861067
2.369035702369036,3.2874470280094554,31.39312404458009,131.84656414383147,33.23516007952032,122.78439425819067,144.96442092265605,208.47066569529008,187.7950274313644
2.4024024024024024,3.2874470280094554,32.85128902519005,135.562072436331,34.40623702597478,122.64454845252844,144.9261167511577,208.83062670454308,187.84731043650976
2.4357691024357693,3.2874470280094554,34.13834614360488,139.2342643432849,36.08577039263024,122.47158245731605,144.89219664070603,209.2046260836526,187.93298545052568
2.469135802469136,3.2874470280094554,35.34001728496939,142.70922155082954,37.635492007692285,122.28220939144023,144.8823873373508,209.57209047239385,188.0495128802426
2.5025025025025025,3.2874470280094554,36.44662867190154,146.11143131233132,39.512907929343626,122.09498906647826,144.8909761597699,209.89996198808083,188.19799212122567
2.5358692025358693,10.376028212913653,37.620419489282405,149.71206688404584,41.34968430383898,121.9486437563901,144.94806551925006,210.1968535347645,188.3205617704268
2.569235902569236,19.573396899002937,38.769424991804655,153.6184599464452,43.40736247473647,121.83412489791688,145.04469388211152,210.43940784702264,188.4310561933177
2.6026026026026026,30.45022788494568,39.85243557286222,157.45993312040866,44.96757022482935,121.74627962980414,145.1902739882219,210.6715487794575,188.5104033054945
2.6359693026359694,42.80269654025142,40.76409534020266,160.87174733650548,46.432778452676565,121.68225656623449,145.413352445767,210.8940010626618,188.5302802278139
2.669336002669336,56.54669353017628,41.61000803270492,162.80001517461756,46.47369929653299,121.6161636702832,145.64764580001804,211.1136624147575,188.5022488098639
2.702702702702702,71.49136204773467,42.39564468149612,164.25186125054526,46.573264114582216,121.56687731700568,145.9107669126086,211.32483328753204,188.40218184617768
2.736069402736069,87.4577613862679,43.14403733344916,165.1394854122197,47.50633517336419,121.52021809201362,146.12056845538174,211.54541184919427,188.28967009369285
2.7694361027694363,104.30772036378984,43.985646959162985,165.25871139899925,49.227223122581854,121.49903472714756,146.3457337054269,211.7846356675588,188.05550083163325
2.802802802802803,121.8446879698374,44.8869162348669,165.13015668902037,50.349971011032814,121.44921328052318,146.54814051700288,212.0712619819782,187.81989765402307
2.836169502836169,139.92902876855266,45.844440412915816,164.42519727301928,51.40504642403791,121.37975903820896,146.7584510725441,212.3958627729198,187.5324635389828
2.8695362028695364,158.10647468558972,46.69089631676172,163.58857026938034,52.16206911062569,121.2917162242192,146.9274480161723,212.72580957786053,187.3080542955373
2.902902902902903,176.25789675112568,47.61298077903269,162.47550428131623,52.62757746651061,121.18615021771777,147.1052640114909,213.0498084210581,187.0033034261486
2.9362696029362696,193.5007665821172,48.34317202139732,162.67954828336002,52.82577716260938,121.03993113035244,147.2270191149327,213.40945031514937,186.8151700717058
2.9696363029696364,210.0786986722568,48.88717730257335,163.46043104887227,52.73676466010779,120.87316257198955,147.2914865461368,213.77714554539904,186.7081015119384
3.003003003003004,225.56793966812825,49.18708433231284,164.1585037364599,52.71255819512128,120.69469408850352,147.2908475936489,214.1585543748035,186.765609024376
3.0363697030363697,239.9495603928204,48.92893543831266,164.98409235878543,51.49140403814629,120.48782509493748,147.3549481475199,214.5675359111916,186.8453833347029
3.0697364030697365,253.55948155718585,48.42779053144552,165.62172122063114,50.027405931960615,120.253129830183,147.29569702800305,214.9827973351181,187.12495201530368
3.103103103103104,266.2291362122698,48.181358943156354,166.97740991859422,49.12880541585324,119.97697550341051,147.13534487132404,215.3869519872907,187.5293069013492
3.1364698031364697,276.9476993426473,47.99114665349208,167.91297430220678,48.5663587798249,119.70052415888875,146.8507569046566,215.77312696159603,188.15508834331985
3.169836503169837,285.9752627107524,48.05829721755353,162.9720042163901,47.47066246260096,119.28154487138724,146.40734417235024,216.23025486418376,189.013983344745
3.2032032032032034,292.8750250956767,47.68972050772609,159.3069734741613,46.88380159980691,118.89903991121292,145.84764983608522,216.65908921100177,190.0840718239876
3.2365699032365702,297.5462621146395,46.89844222345244,157.90063234550215,46.09037635913913,118.6045834390932,145.24734278136822,216.97037630669712,191.2708371038148
3.2699366032699366,300.01753681977283,45.75022790479813,156.79082570181106,46.05166244013841,118.41674951249163,144.61331618987467,217.15152199806167,192.59608546593543
3.3033033033033035,300.04688993159255,44.17353827337011,156.1336821378115,46.42442282046044,118.2234730125168,144.02414107967684,217.2211240352496,194.1128735053544
3.3366700033366703,297.8896222803563,42.33331250490488,155.71299907821296,47.31370438265097,118.15243665345965,143.4457925601699,217.20289880571767,195.74575095303743
3.3700367033700367,293.18784931262445,40.19708038070662,155.50986395979234,48.723817573120215,118.11551610123288,142.86710932814788,217.1262212988577,197.5153786260481
3.4034034034034035,286.1712617076301,37.87884995769771,155.57094274240143,50.55604747237127,118.22889815088708,142.24595253412878,216.95903940369345,199.3570254866554
3.4367701034367704,276.4394316774324,35.1980000149505,155.93071755044548,52.81339804559027,118.37257651016364,141.66775145353614,216.69254521468943,201.1964018482518
3.4701368034701368,276.3418626433753,32.492694114453826,156.5723106495109,55.44752922556465,118.6734856047932,141.05350600461173,216.3199666416096,203.02676050488384
3.503503503503504,275.5819577253336,29.65919634947701,157.90237971506718,58.03187312804372,118.8561167485298,140.28284549116742,216.03336669976107,204.96144939954416
3.5368702035368704,274.9810894711736,26.874816523536,159.38831193923463,60.88246510563034,119.18662787577249,139.47695036124622,215.6830168334966,206.85318753972
3.5702369035702373,285.03568437089643,23.65738831495436,161.38830973078697,63.07637785147615,119.91474845635744,138.55511496274394,215.29504209715165,208.7707403578738
3.603603603603604,292.36591780092965,20.79064749649176,163.07847862332483,65.92523096731634,120.77711630559811,137.66591645257108,214.802046410135,210.54888611141
3.6369703036369705,297.71278355694227,17.98845388199432,164.8741904219547,68.78105473255671,121.73802846711342,136.82453081071287,214.21675068458725,212.1939671425956
3.670337003670337,299.92122936189725,15.494915254776828,166.37775442057514,72.21916726505582,122.85414568625951,136.09665407167486,213.51518646497664,213.62165171425667
3.703703703703704,298.87191134748923,13.11437366204287,167.74115865612026,75.71816254593773,124.08243514867056,135.65012609386014,212.77597454371852,214.8116602967084
3.737070403737071,295.3630816649194,11.20017949973741,168.84750235463366,79.78309383896426,125.38318824347692,135.30402457889647,211.94285568561395,215.7501697410786
3.770437103770437,289.5347281749093,9.844801984554593,170.79475719489213,90.37376001975385,126.71949301095032,135.1072814515356,211.0714328101107,216.463444564442
3.803803803803804,281.93084031476883,9.067633022740589,172.30982173471483,99.97268596810886,128.11433764245658,134.99480608298805,210.1331084113555,216.89079579646688
3.8371705038371706,272.6455047795728,9.006384112266627,173.32419615352748,108.94034740883627,129.5021727389191,135.09370785266827,209.1345333464773,217.01740085626284
3.8705372038705375,262.0476422097555,9.536047774622972,173.74159040295078,116.4177055166197,130.88005175143647,135.25019281626518,208.1204065542268,216.87400032861532
3.903903903903904,250.29988677830147,10.966713404308106,173.43571266826987,121.61396962905532,132.28570120429094,135.42687444723765,207.11398691265867,216.45816223160136
3.937270603937271,237.55682445668032,12.769444209194386,172.0782182937637,124.86292290343238,133.6916791187482,135.51635779511523,206.05091153212007,215.9033464110108
