Time,Left Shoulder Angle,Right Shoulder Angle,Left Elbow Angle,Right Elbow Angle,Left Hip Angle,Right Hip Angle,Left Knee Angle,Right Knee Angle
0.0,3.7486234817070696,0.5631082987206727,180.18931900602172,171.24702902804472,165.78791439100064,210.92728306134003,182.76656294766687,173.57812742286313
0.0333667000333667,3.5950804695612915,0.5121924112756889,179.8236706250483,170.992296449422,165.6203661338602,210.49012313364744,182.89489039326628,173.67587301652603
0.0667334000667334,3.4634662173300903,0.467056264140296,179.52416475268805,170.7626090248501,165.5016662301311,210.10290582053872,182.98372648809675,173.76211462664918
0.1001001001001001,3.353329759944164,0.4283168276708867,179.28695146644571,170.55775794822776,165.42811389001537,209.76322591245167,183.036308017815,173.8373936515681
0.1334668001334668,3.264220132334211,0.3965910722238538,179.10818084382583,170.37753441345356,165.39600832371508,209.46867819982413,183.05587176807785,173.90225148961852
0.1668335001668335,3.1956863694309283,0.3724959681555898,178.9840029623331,170.22172961442615,165.40164874143218,209.21685747309388,183.0456545245421,173.95722953913602
0.2002002002002002,3.1472775061650142,0.3566484858224873,178.91056789947206,170.0901347450442,165.44133435336872,209.00535852269869,183.0088930728645,174.00286919845627
0.2335669002335669,3.1185425774671662,0.3496655955809393,178.88402573274738,169.9825409992063,165.51136436972675,208.8317761390764,182.94882419870189,174.0397118659149
0.2669336002669336,3.1090306182680822,0.3496655955809393,178.90052653966364,169.89873957081113,165.60803800070823,208.69370511266484,182.86868468771092,174.06829893984758
0.3003003003003003,3.1090306182680822,0.3496655955809393,178.95622039772547,169.83852165375734,165.72765445651524,208.58874023390177,182.77171132554864,174.08917181858993
0.333667000333667,3.1090306182680822,0.3521642677873382,179.04725738443747,169.80167844194355,165.86651294734975,208.51447629322504,182.66114089787163,174.1028719004776
0.3670337003670337,3.1090306182680822,0.3647614727980769,179.1697875773043,169.7880011292684,166.0209126834138,208.4685080810724,182.5402101903367,174.1099405838462
0.4004004004004004,3.1090306182680822,0.3880741809695478,179.31996105383053,169.79728090963053,166.1871528749094,208.4484303878816,182.4121559886007,174.11091926703142
0.4337671004337671,3.1090306182680822,0.4227193626581438,179.4939278915208,169.82930897692862,166.3615327320386,208.4518380040906,182.2802150783204,174.10634934836887
0.4671338004671338,3.1090306182680822,0.4693139882202575,179.6878381678797,169.88387652506125,166.5403514650034,208.4763257201371,182.14762424515249,174.0967722261942
0.5005005005005005,3.1090306182680822,0.5284750280122815,179.89784196041188,169.96077474792708,166.7199082840058,208.5194883264589,182.01762027475385,174.08272929884305
0.5338672005338673,3.1090306182680822,0.5284750280122815,180.1200893466219,170.05979483942477,166.89650239924788,208.5789206134939,181.89343995278128,174.06476196465107
0.5672339005672339,3.1090306182680822,0.6008194523906087,180.350730404016,170.1807279934543,167.06643302093292,208.6522173716816,181.77832006489297,174.0434116219554
0.6006006006006006,3.1090306182680822,0.6008194523906087,180.71773673426583,170.36976764614997,167.2332515971942,208.7658510231001,181.6795110495669,174.01348041243725
0.6339673006339673,3.1090306182680822,0.6008194523906087,180.98757652509585,170.60650175587767,167.34934527395737,208.87540144277588,181.62610893802005,173.98308410410357
0.6673340006673341,3.1090306182680822,0.6869642317116318,181.0444554561987,170.77597213912955,167.4107079930275,208.96223893900347,181.6129775927537,173.9638053237845
0.7007007007007008,3.1090306182680822,0.6869642317116318,181.0858835778376,170.9695006622071,167.42973021872055,209.03304995497072,181.6323398247447,173.9540319927677
0.7340674007340674,3.1090306182680822,0.6869642317116318,181.0849641233024,171.1221169595398,167.42345137902592,209.09789182187703,181.67525627444127,173.96478901709713
0.7674341007674341,3.1090306182680822,0.787526336331743,181.135545338228,171.330192608461,167.39369312819096,209.1679177204135,181.7469500061884,173.967583912113
0.8008008008008008,3.1090306182680822,0.787526336331743,181.2791323343861,171.54285958311445,167.31915332545336,209.2363909078444,181.85728962672587,173.9685113871962
0.8341675008341676,3.1090306182680822,0.787526336331743,181.4705592010969,171.82635185605145,167.20956541019106,209.28943970439047,182.0008272030853,173.97143826189617
0.8675342008675342,3.1090306182680822,0.903122736607332,181.5839004759616,172.23052438714416,167.0809990454787,209.3188890286886,182.16011105904911,173.98835599555443
0.9009009009009008,3.1090306182680822,0.903122736607332,181.73861268241083,172.686343468624,166.94397282541766,209.3345145913164,182.32785171643968,173.99680726644766
0.9342676009342676,3.1090306182680822,0.903122736607332,181.66369497053765,173.05779151528253,166.79708125999943,209.3633983400338,182.5192127006778,173.96914728875663
0.9676343009676344,3.1090306182680822,0.903122736607332,181.6485230629516,173.49269236521815,166.6518716910893,209.40368290938625,182.72635323678435,173.91969808567197
1.001001001001001,3.1090306182680822,1.037612742088179,181.7832005484216,173.9636397011457,166.51126721087644,209.44997392814017,182.9239065090888,173.84598729867284
1.0343677010343677,3.1090306182680822,1.037612742088179,181.95548839261164,174.46811980026686,166.36967556953184,209.4867081869541,183.12257535082588,173.7611228149523
1.0677344010677343,3.1090306182680822,1.037612742088179,182.23188877338185,175.0213636933841,166.27110926106556,209.55414923352504,183.30017008561387,173.63920861326565
1.1011011011011012,3.1090306182680822,1.037612742088179,182.64909218628964,175.6320047349222,166.20108076787875,209.65108703644884,183.4541073000664,173.48740264138112
1.1344678011344678,3.1090306182680822,1.1760835451948282,183.39191224974283,176.13071400041724,166.0870345743342,209.72020304247087,183.6223402307488,173.34004014410408
1.1678345011678346,3.1090306182680822,1.1760835451948282,184.1789633476733,176.6294905567286,165.93762941961376,209.7482448365525,183.80082631978928,173.21176803809837
1.2012012012012012,3.1090306182680822,1.1760835451948282,184.99026671815,177.0616285218938,165.771621264513,209.76735249186805,183.9773635194844,173.08262951860675
1.234567901234568,3.1090306182680822,1.1760835451948282,185.65407731473425,177.50716246711949,165.6118597875268,209.7663288516071,184.14682713573453,172.95430818265086
1.267934601267935,3.1090306182680822,1.3268272480562249,186.15891392919832,177.82169280041205,165.44241817467935,209.75400879765985,184.30910662369445,172.83333989824732
1.3013013013013013,3.1090306182680822,1.3268272480562249,186.78035267857305,178.2352685972549,165.2936461729524,209.7218407700297,184.4477970403813,172.7302070218624
1.334668001334668,3.1090306182680822,1.3268272480562249,187.3772041149692,178.71666640696878,165.19862476133284,209.7006118948959,184.56290807004,172.61796044957956
1.3680347013680347,3.1090306182680822,1.3268272480562249,187.9666970954877,179.26233584386725,165.1423208175,209.66599461742788,184.65404756289504,172.52142020635722
1.4014014014014016,3.1090306182680822,1.3268272480562249,188.56204990081923,179.77103655187608,165.1209127246902,209.60182543751856,184.72598134580707,172.46334317352748
1.4347681014347682,3.1090306182680822,1.5059644215841277,189.18435446989244,180.3118307844777,165.14671695192672,209.484306627982,184.7881605878356,172.45942802816873
1.4681348014681348,3.1090306182680822,1.5059644215841277,189.5924752213612,180.7581809585599,165.1857063175786,209.3158485586353,184.8869314209806,172.49903027385744
1.5015015015015016,3.1090306182680822,1.5059644215841277,189.8842189833967,181.19722086360235,165.25969517286447,209.12703046586475,184.9708161057121,172.5426005324777
1.5348682015348682,3.1090306182680822,1.5059644215841277,190.53560961783424,181.5355350622759,165.3577154000135,208.9442266201336,185.01383235294875,172.59047934601995
1.5682349015682349,3.1090306182680822,1.5059644215841277,191.000492890222,181.9159732742572,165.46808820979066,208.7747191213644,185.03121980686325,172.6381532459254
1.6016016016016017,3.1090306182680822,1.5059644215841277,191.2315426466201,182.33014156092443,165.5989081463302,208.65268510490296,185.0113733315113,172.69807994663478
1.6349683016349683,3.1090306182680822,1.715429775128802,191.47435928830987,182.90178157841427,165.74416462790415,208.5229586532857,184.9580369067561,172.77618523180317
1.6683350016683351,3.1090306182680822,1.715429775128802,191.7764163379948,183.35637305414667,165.91727828673766,208.3798573393832,184.8724203134776,172.8713180669331
1.7017017017017018,3.1090306182680822,1.715429775128802,191.96728222632825,183.8906582648679,166.0819417865211,208.1625508785193,184.7671472410162,173.00589956899623
1.7350684017350684,3.1090306182680822,1.715429775128802,191.92267982488693,184.3435005360612,166.24927977260182,207.90384095467127,184.645863522232,173.15832980279308
1.7684351017684352,3.1090306182680822,1.715429775128802,191.7407120285433,184.84207555719328,166.4450356344063,207.60969239020105,184.49656179778407,173.3159399708886
1.8018018018018016,3.1090306182680822,1.715429775128802,191.5740036407851,185.38974515184577,166.62740497379426,207.2926955575909,184.3249345618761,173.4857846481292
1.8351685018351689,3.1090306182680822,1.715429775128802,191.458585892488,185.9918492822174,166.83552670998014,206.96531735208933,184.1257862130525,173.66191832238195
1.8685352018685355,3.1090306182680822,1.9569492135091653,191.10556279866805,186.54106859513823,167.04305125597125,206.63805952786944,183.90401263963227,173.8490778037977
1.901901901901902,3.1090306182680822,1.9569492135091653,190.7225119004638,187.3170460500413,167.2626602809794,206.2920265331099,183.6721050562224,174.02127030964672
1.9352686019352687,3.1090306182680822,1.9569492135091653,190.19592141590127,187.7400781074708,167.48055408655677,205.9608722563136,183.4323656295125,174.18093683990693
1.968635301968636,3.1090306182680822,1.9569492135091653,189.5482790741025,188.45098723663412,167.7533860910286,205.6276466196205,183.16555985758083,174.3198135945842
2.002002002002002,3.1090306182680822,1.9569492135091653,188.71983901619632,189.4197442080545,168.1056953062294,205.2808636549112,182.86642060959647,174.43248370794544
2.035368702035369,3.1090306182680822,1.9569492135091653,187.96293895042623,190.3087621077416,168.52323003848005,204.9512500818637,182.5453084831697,174.4864998335865
2.0687354020687354,3.1090306182680822,1.9569492135091653,187.164086257626,191.69064278212727,168.95800109498077,204.6463219767693,182.2360993671469,174.49320802217233
2.1021021021021022,3.1090306182680822,2.1810051529159624,186.6919952348002,193.44109339584128,169.44099032929967,204.35013564821656,181.89153646331465,174.46852815654907
2.135468802135469,3.1090306182680822,2.1810051529159624,186.30266375639565,195.05789269439435,169.9425139003591,204.0908750506634,181.5037348443068,174.41069285417376
2.1688355021688355,3.1090306182680822,2.1810051529159624,186.0364191392132,196.70627375690825,170.48490609941544,203.8625783277481,181.10033829388672,174.3181939886241
2.2022022022022023,3.1090306182680822,2.1810051529159624,185.88387341112733,198.5100689691136,171.08957293300855,203.6542911995137,180.68484272159483,174.1814617256172
2.235568902235569,3.1090306182680822,2.1810051529159624,185.87047416165464,200.2984620752196,171.68991996761127,203.43343697082955,180.27516948449784,174.04329831694767
2.2689356022689355,3.1090306182680822,2.1810051529159624,187.1874686819683,201.583360975194,172.28808560120282,203.2169420471361,179.8775857727911,173.90111850525963
2.3023023023023024,3.1090306182680822,2.1810051529159624,188.03305382007247,206.27810777470395,172.94218967900702,203.04197740355187,179.46246984344788,173.73290357563818
2.335669002335669,3.1090306182680822,2.4320241006079044,188.69476776020736,209.86270874390232,173.62864123352108,202.9290185960184,179.045762250549,173.53112598149372
2.369035702369036,3.1090306182680822,2.4320241006079044,188.9631357531937,212.54961791501805,174.3220848855132,202.8179012271878,178.639262424644,173.3341144987092
2.4024024024024024,3.1090306182680822,2.4320241006079044,188.9527473620517,214.438166907962,174.99637307522,202.7230487387236,178.2526414005795,173.1380451348756
2.4357691024357693,3.1090306182680822,2.4320241006079044,188.7137733006036,215.54097428658812,175.66982974573645,202.6330423896332,177.88804214051646,172.9388703521548
2.469135802469136,3.1090306182680822,2.4320241006079044,188.3379062400184,216.07958640463764,176.3886002695859,202.5383734714182,177.55408592795874,172.73363944168543
2.5025025025025025,3.1090306182680822,2.4320241006079044,187.7740692183869,215.8839417957656,177.05999008545285,202.4098206199764,177.2530009235655,172.5538489713409
2.5358692025358693,3.1090306182680822,2.4320241006079044,187.1358805274586,215.1176412748564,177.6582348492269,202.2839700748256,176.9980740998755,172.39695902104563
2.569235902569236,3.1090306182680822,2.6953286807715786,186.2415770961252,213.5690181342869,178.1904230268743,202.1755271690655,176.76748299912128,172.23882840044172
2.6026026026026026,3.1090306182680822,2.6953286807715786,185.5998918699485,211.2302428474759,178.6415365739626,202.12120932383093,176.57456307384808,172.09159054355024
2.6359693026359694,3.1090306182680822,2.6953286807715786,184.90578768417856,208.40852143106807,179.04718220521545,202.08971511052405,176.34400929583694,171.96106142121158
2.669336002669336,3.1090306182680822,2.6953286807715786,183.81721707857503,204.8048470312849,179.38288818506857,202.0764416241724,176.10971056254306,171.8359980887551
2.702702702702702,3.1090306182680822,2.6953286807715786,182.19055183220007,200.90086469085853,179.67032291198092,202.01482799613152,175.88610990559786,171.70926412311107
2.736069402736069,3.1090306182680822,2.6953286807715786,179.40720807372168,196.915416810296,179.8487150627432,201.94301328567065,175.68050616767584,171.62975585683142
2.7694361027694363,3.1090306182680822,2.6953286807715786,176.40337076709275,192.8213701729816,179.98264838882062,201.8542001759397,175.47123254257323,171.53971544727872
2.802802802802803,3.1090306182680822,2.6953286807715786,173.746355516018,188.23529269131865,180.0790540015071,201.7942421476182,175.24202944786532,171.43230251360382
2.836169502836169,3.1090306182680822,2.6953286807715786,170.82108456214934,183.904410806984,180.18271204274149,201.7380283825262,174.9868245945844,171.32611976965993
2.8695362028695364,3.1090306182680822,2.999056404636711,167.41928881388884,179.14885432757848,180.2484212924313,201.71201123804312,174.71496623693193,171.20324969733988
2.902902902902903,3.1090306182680822,2.999056404636711,164.02308842462915,174.5816759920345,180.2517207441477,201.6807694214792,174.43140191333242,171.0977829553203
2.9362696029362696,3.1090306182680822,2.999056404636711,160.6236358747728,170.17773012625878,180.1933413730184,201.6431052200172,174.1442401839899,171.01590429277508
2.9696363029696364,3.1090306182680822,2.999056404636711,157.1340078058037,165.92428477221918,180.1072933461614,201.5893111889225,173.84871762331,170.9406640450517
3.003003003003004,3.1090306182680822,2.999056404636711,153.196931371686,161.8567018139654,179.97511794741877,201.5040647728102,173.54849732026554,170.86579360185414
3.0363697030363697,3.1090306182680822,2.999056404636711,149.7933027712699,157.9663102388541,179.8341050383902,201.4051524411105,173.2407020016181,170.78410479497467
3.0697364030697365,3.1090306182680822,2.999056404636711,146.6489557007163,154.10681176330468,179.69146644655302,201.2601410966408,172.94023135529065,170.7089811377492
3.103103103103104,3.11829066349846,2.999056404636711,143.77551253500516,151.3769637132726,179.54873005259793,201.07539575388824,172.6337644270928,170.6453628530722
3.1364698031364697,3.145871748088997,3.270409092198439,141.25543224359043,149.0675029564413,179.36867865142966,200.8926841464928,172.32736454721453,170.5951328938895
3.169836503169837,3.191322906970392,3.270409092198439,139.12994195336876,147.30856683973914,179.12425703539614,200.73290443196532,172.02729201510544,170.55444304450072
3.2032032032032034,3.191322906970392,3.270409092198439,136.96023048175658,146.79247042389974,178.73157837013883,200.49450006287864,171.7141869633348,170.58104556470192
3.2365699032365702,3.254193175073341,3.270409092198439,134.86516581410348,146.80903001812723,178.26483788277605,200.26749015862185,171.32376117402998,170.66061960970603
3.2699366032699366,3.254193175073341,3.270409092198439,131.39154304315113,147.19465522484862,177.99404096920333,200.09163935473435,171.00847037770882,170.6941647587545
3.3033033033033035,3.334031587328544,3.270409092198439,129.1355758007667,148.47465940969408,177.78965984338254,199.9657229111115,170.72964543437513,170.690515288376
3.3366700033366703,3.334031587328544,3.270409092198439,128.3225288247901,150.60061800678534,177.51991255662665,199.9213044013324,170.50982652437696,170.6549255737245
3.3700367033700367,3.334031587328544,3.270409092198439,128.19265248933175,153.40816860025942,177.25165390563993,199.9710454349625,170.2888812579684,170.5953993805663
3.4034034034034035,3.430387178666697,3.270409092198439,128.85915357937705,157.0818598647732,177.05183700914665,200.07429873437005,170.063074284101,170.53519948380196
3.4367701034367704,3.430387178666697,3.571061183185898,128.72049864411,162.13558031449418,176.89698753657595,200.2266835182816,169.83600426297244,170.4711666006601
3.4701368034701368,3.430387178666697,3.571061183185898,128.8985078514168,163.70758385606996,176.61176271780062,200.3330030247205,169.6041521714065,170.50224055112238
3.503503503503504,3.542808984018498,3.571061183185898,128.70152547960114,165.70115349916776,176.30697363315144,200.6804012156376,169.2023238505195,170.67535440674817
3.5368702035368704,3.542808984018498,3.571061183185898,127.78320980616613,167.33459989146274,176.50363660464387,200.63699696417493,168.5318487721274,171.05653844350843
3.5702369035702373,3.542808984018498,3.571061183185898,127.1014836361712,168.6866969363143,175.7806683607283,202.22712402779865,167.7043880806253,169.30830302580742
3.603603603603604,3.542808984018498,3.571061183185898,127.35515370503764,169.53311813228763,175.9240715291909,202.2418258176777,167.84340531659848,169.16877186876386
3.6369703036369705,3.670846038314647,3.571061183185898,126.67676272380916,170.5949977962871,176.19115230197428,202.08646628666327,168.05966419193507,169.31441021414793
3.670337003670337,3.670846038314647,3.571061183185898,128.15056864283352,171.7553020795322,176.49964972181328,202.0362990565256,168.21414878265344,169.50765826076116
3.703703703703704,3.670846038314647,3.571061183185898,129.56240717920693,172.50591621904007,176.82785496744688,202.0627996893251,168.36661295450853,169.68440698894582
3.737070403737071,3.670846038314647,3.883333247076804,131.32745340021953,173.40557008405034,177.10468891652374,202.1703114702102,168.58417612216775,169.81411835948373
3.770437103770437,3.8140473764858607,3.883333247076804,132.20579898018536,174.1897947366146,177.39009191414215,202.266897597769,168.8217754186433,169.96619963582188
3.803803803803804,3.8140473764858607,3.883333247076804,132.59084044759356,175.17448495966627,177.72586037846463,202.36610189079784,168.9571294609812,170.1022109034131
3.8371705038371706,3.8140473764858607,3.883333247076804,132.90222308715028,176.23443508820188,178.03347180947168,202.53117293281807,169.1482681497084,170.25060456913351
3.8705372038705375,3.921646305030711,3.883333247076804,132.4515865842437,177.1778141015335,178.30542131327823,202.7866028446152,169.36288417279476,170.39613273931505
3.903903903903904,3.921646305030711,3.883333247076804,132.59938314341116,177.86919433899158,178.64655557516377,203.067103360994,169.60152674593365,170.4597641182481
