Time,Left Shoulder Angle,Right Shoulder Angle,Left Elbow Angle,Right Elbow Angle,Left Hip Angle,Right Hip Angle,Left Knee Angle,Right Knee Angle
0.0,19.186855163822656,31.612468036990816,149.55441470568115,169.8902336575099,136.92690848528738,133.28116839090103,201.0139396850478,206.67364606593185
0.0333667000333667,19.18048206106064,31.8532193160886,152.44923035073327,170.168607674765,136.77505602470936,133.2314724847181,201.1127384711306,206.77711263929936
0.0667334000667334,19.17347753244881,32.06306088355824,155.04910760708864,170.42790934906805,136.63845648084794,133.18428791359955,201.24917120665097,206.8794263051963
0.1001001001001001,19.16762845837907,32.24263896049726,157.36921755657792,170.66655739120637,136.51552219468786,133.1396440127226,201.4196613072403,206.9808181737513
0.1334668001334668,19.164721719243285,32.39259976800319,159.42473128103185,170.88297051196724,136.4046655072139,133.0975701172646,201.6206321885299,207.0815193550928
0.1668335001668335,19.16654419543335,32.513589527173565,161.2308198622811,171.07556742213802,136.30429875941087,133.05809556240283,201.8485072661512,207.1817609593496
0.2002002002002002,19.174882767341145,32.606254459105905,162.80265438215636,171.24276683250605,136.2128342922634,133.02124968331458,202.09970995573548,207.2817740966501
0.2335669002335669,19.191524315358546,32.671240784897755,164.15540592248837,171.38298745385865,136.12868444675635,132.98706181517716,202.37066367291413,207.38178987712303
0.2669336002669336,19.21825571987745,32.70919472564663,165.30424556510775,171.49464799698313,136.05026156387444,132.95556129316782,202.6577918333185,207.48203941089696
0.3003003003003003,19.256863861289737,32.72076250245008,166.26434439184527,171.57616717266683,135.97597798460242,132.92677745246385,202.95751785258,207.58275380810045
0.333667000333667,19.30913561998729,32.70659033640561,167.0508734845316,171.62596369169708,135.90424604992506,132.9007396282426,203.2662651463298,207.6841641788621
0.3670337003670337,19.376857876361992,32.66732444861077,167.6790039249974,171.64245626486118,135.8334781008271,132.8774771556813,203.58045713019948,207.7865016333105
0.4004004004004004,19.461817510805727,32.60361106016308,168.16390679507342,171.62406360294648,135.76208647829333,132.8570193699573,203.89651721982025,207.88999728157432
0.4337671004337671,19.56580140371038,32.51609639216008,168.52075317659032,171.56920441674032,135.68848352330846,132.83939560624785,204.2108688308236,207.99488223378205
0.4671338004671338,19.690596435467835,32.40542666569928,168.76471415137885,171.47629741703005,135.6110815768573,132.82463519973024,204.51993537884067,208.1013876000624
0.5005005005005005,19.837989486469976,32.27224810187823,168.9109608012696,171.3437613146029,135.52829297992454,132.8127674855818,204.820140279503,208.20974449054376
0.5338672005338673,20.009767437108685,32.117206921794455,168.97466420809334,171.17001482024625,135.438530073495,132.80382179897975,205.1079069484419,208.3201840153549
0.5672339005672339,20.207717167776,31.94094934654574,168.97099545368206,170.95347664474895,135.34020519855446,132.79782747510265,205.3796588012904,208.4329372846261
0.6006006006006006,20.349656161548072,31.709165606966604,169.01945431564258,170.60176859832038,135.24355631154904,132.77368405039016,205.6228672756976,208.54986556038537
0.6339673006339673,20.68892827702592,31.445919394952085,169.2945380818565,170.16964680132057,135.1260436887805,132.75906397762208,205.8271291796944,208.6603856349704
0.6673340006673341,21.0576236100709,31.17782748301573,169.50388317385085,169.69572000224457,134.94180085060236,132.74231837128008,205.9875147971632,208.7795335721136
0.7007007007007008,21.46294385953156,30.91701958087345,169.61715603232716,169.20923951547002,134.73018116027487,132.7291182159786,206.0836396432748,208.9092974746856
0.7340674007340674,21.898298228851576,30.66561066947404,169.62791956767842,168.71978509100825,134.45396456937723,132.7169185196779,206.1654538292639,209.0549444613568
0.7674341007674341,22.33107153823637,30.40631458350768,169.52378391216217,168.16382954744967,134.1492445274799,132.7107944054242,206.21156518565763,209.21587343329503
0.8008008008008008,22.89741050588695,30.164566564511485,169.57940405358897,167.60967321964662,133.85646362747286,132.72675305693662,206.2026535646799,209.3778834599972
0.8341675008341676,23.474803488195377,29.92346342061024,169.57120578704902,167.04750816282476,133.55577977887847,132.751712575779,206.1611714798566,209.5416587189789
0.8675342008675342,24.038915393561936,29.64773944848616,169.4496111743757,166.38739079085013,133.25030186641365,132.75957458766896,206.120700411342,209.71118617722016
0.9009009009009008,24.580955233492965,29.40813967337459,169.21669703738087,165.70546909333734,132.9866433678013,132.75898731343838,206.04585709766167,209.8887185691643
0.9342676009342676,25.205309546288504,29.08972303404512,169.11074397428507,164.96426113295604,132.7792364762853,132.78244451342172,205.9223029541652,210.0679976170108
0.9676343009676344,25.88258138949903,28.700273801704068,169.10581555332692,164.1347380456369,132.59872771308457,132.81467901885975,205.78460048194376,210.2416971354428
1.001001001001001,26.574223053625243,28.20945313961708,169.08261137536928,163.2188918168985,132.40394203607184,132.85132110595043,205.65305975824705,210.40228769806944
1.0343677010343677,26.84909334745784,27.680903310487608,169.9441050304055,162.3142826545647,132.3051365699758,132.93012481111148,205.4242224412848,210.5296651474688
1.0677344010677343,27.080690832237416,27.153849729172336,170.53276992503646,161.4408173580695,132.22717170921237,133.03690330525063,205.18876188823867,210.64420261886627
1.1011011011011012,27.281296351764155,26.594944411996327,171.14531882597262,160.6154916977583,132.19691838380697,133.16658600591867,204.89028024549108,210.75204159718035
1.1344678011344678,27.38627134819521,26.07240126963673,171.39226865324463,159.97297922120703,132.1626276386436,133.34778818407972,204.63240909779103,210.8349126507427
1.1678345011678346,27.33016375211793,25.562061415362496,171.22016435099587,159.41017041194286,132.10340306980265,133.56048682798746,204.43143174212705,210.906214220832
1.2012012012012012,27.08639136403628,25.06050183334972,172.0501665674187,158.8846545259153,132.04538068294207,133.79965148446752,204.27352653782577,210.98205495007844
1.234567901234568,27.0292004678046,24.61824150102704,172.687987724291,158.53104678631226,131.99489391222005,134.0642860853995,204.1546036107744,211.0476264379141
1.267934601267935,26.8909018037095,24.19159053308369,173.01467553664668,158.28137240516932,131.97498181730384,134.34401466273644,204.0487692605936,211.107980338068
1.3013013013013013,26.6669457934821,23.735834745278048,173.32307829080418,158.07360662223817,131.9990702136639,134.64336280629155,203.97460331725088,211.1637660551293
1.334668001334668,26.41191541073781,23.28302900081641,173.63927125926222,157.9052616928858,132.06732763407547,134.95111905984908,203.91194470615017,211.22596937274184
1.3680347013680347,26.097209559990265,22.772819596820312,174.04123292240382,157.73493430438648,132.17379992468648,135.2867781594525,203.8757821775529,211.27749634913567
1.4014014014014016,25.89178765602324,22.26147081864948,174.66862892880556,157.46860610701572,132.319603700586,135.66004722706143,203.84109938602143,211.32040748857503
1.4347681014347682,25.601420186947767,21.65014419351308,175.30342324790936,157.1897395379549,132.52038094594326,136.08634767453492,203.80831133995449,211.34890733272985
1.4681348014681348,25.32872296195445,21.09576362669505,176.11873060282102,156.94663511348682,132.72159357942198,136.5467615050997,203.81546718836665,211.367000300935
1.5015015015015016,24.82553064370452,20.486865483268748,177.11872264425682,156.85609798050038,132.96588960942577,137.07104103938445,203.8538914596688,211.3555743331893
1.5348682015348682,24.07269201116529,19.720410287870745,177.97792270550943,156.87842857651643,133.20368777304145,137.6241122807951,203.93609862839853,211.30825773042568
1.5682349015682349,23.11152021622657,18.88102490092368,178.8175571087652,156.82931182775476,133.4120287537501,138.2028687199395,204.0596159425777,211.2405371184814
1.6016016016016017,22.018296598770263,17.956839110204996,179.41940251680074,156.6945232561332,133.6071901651336,138.80597577992074,204.1959858128348,211.12710859230475
1.6349683016349683,20.72756712570268,17.001799718842225,179.88668053958023,156.59881026145766,133.7711924415023,139.40522476744533,204.35784020369687,210.96790119850243
1.6683350016683351,19.31381263093412,15.995756318941789,180.1808630791395,156.4833512978807,133.88872184498055,139.9837961832513,204.5459232881408,210.77539493816727
1.7017017017017018,17.838983954473296,14.874111233696688,180.58163525854448,156.4185669739882,133.9200274340001,140.52754558551993,204.7577193864124,210.5468455236767
1.7350684017350684,16.51173866989176,13.60878122334424,180.686736082584,156.2145124553288,133.8865543917739,141.0473812058105,204.97667358637213,210.2881711569504
1.7684351017684352,15.380329964681223,12.4732392469609,180.3311777526905,158.02303725455167,133.77787882032297,141.54116641353806,205.2058005312264,210.0075013722404
1.8018018018018016,14.323185422141876,11.35683315937432,179.90538336358856,159.38189560320802,133.62651894262473,142.00044038833298,205.45356778062217,209.7140888368881
1.8351685018351689,13.371670999171988,10.381311256068573,179.3380724645332,160.07910423824538,133.4612327143951,142.4395148400376,205.70237606459943,209.41364534919865
1.8685352018685355,12.56539141042569,9.530487245096428,179.00145164423546,160.28110503074998,133.2701455995908,142.84331662238296,205.9627330905268,209.1053784145301
1.901901901901902,12.0596703786758,8.83194441913597,180.33971912007456,159.70691673443892,133.09193560871944,143.2095987910417,206.16687464784783,208.7873960913104
1.9352686019352687,11.88001794201045,8.089693415211073,181.66659389055224,158.53754198028028,132.95337280654385,143.5377432405446,206.32627562983475,208.45886763445623
1.968635301968636,12.184662772973487,7.298125889584455,183.06523867213647,156.60517916316607,132.81542863140783,143.81404920801654,206.4617126706391,208.1298108880427
2.002002002002002,12.959927978448796,6.412822559596497,184.3398057101249,153.94043261339672,132.75257906525692,144.06279732723738,206.5540608261217,207.79773735215625
2.035368702035369,13.419826212279029,5.62520541110945,184.82038216468567,150.63049463815554,132.73785303753746,144.31497086883104,206.598379353008,207.46131149624887
2.0687354020687354,14.237303567794752,4.983526622878873,185.07435310563224,146.74247809592282,132.74043775864337,144.54322036813858,206.62623747727176,207.1221923575822
2.1021021021021022,14.885859223090613,4.4740656510647225,184.75237913839703,142.65841895030368,132.7452949927286,144.72727230713846,206.6707022566398,206.7851318970012
2.135468802135469,15.98304110134952,4.1800241085183,184.2456738934888,138.2038453814652,132.70594865503708,144.88557787957177,206.72640308524456,206.4576931336001
2.1688355021688355,17.118777371262972,3.7998002381674105,183.2385663554821,133.5491966392753,132.7096281930542,145.0194052345604,206.75031968782253,206.14125867463864
2.2022022022022023,18.169156234212085,3.620452699290296,181.58975263385057,129.52328140038085,132.69177822793236,145.09913724229784,206.83024165482672,205.85162800231663
2.235568902235569,19.005730579559938,3.857632118805805,179.19014920359984,124.9499695231518,132.68478475640043,145.144869250343,206.90694177838523,205.5866717201147
2.2689356022689355,19.880672654332283,-4.309171893828273,176.45554420703562,119.893117002548,132.63963818815566,145.1670289200087,207.0555377437676,205.34371997717204
2.3023023023023024,9.833953246276268,-1.7049273422141449,170.53011798691415,113.08341888865048,132.65115921405996,145.13207863742556,207.19987110541385,205.1379529105268
2.335669002335669,3.224806808577081,1.5450431936813112,164.83173081017264,106.2648877771694,132.73809476619607,145.0611499495733,207.3157996494945,204.98211576099308
2.369035702369036,3.224806808577081,1.5450431936813112,159.27730418615184,99.90158843859122,132.88302516677865,144.9667230716887,207.412666753914,204.8587506884485
2.4024024024024024,3.224806808577081,1.5450431936813112,154.11835489884766,93.8080392466506,133.06882619807286,144.8409917564518,207.4887741394342,204.78217960804147
2.4357691024357693,3.224806808577081,1.5450431936813112,149.52867114262875,88.2190854170236,133.26885568176243,144.70225316283094,207.57133964587624,204.7494026476564
2.469135802469136,3.224806808577081,1.5450431936813112,145.55768490550582,83.13872774284404,133.4683292251434,144.5543894766152,207.65792987569145,204.75736081838568
2.5025025025025025,3.224806808577081,1.5450431936813112,142.10175617376544,78.38559086395118,133.64186062655108,144.41465537866242,207.7650039512885,204.788362491089
2.5358692025358693,3.224806808577081,1.5450431936813112,139.14050387695573,74.1709983476656,133.78046493317436,144.26095979485208,207.89187349780656,204.85060087813943
2.569235902569236,3.224806808577081,1.5450431936813112,136.617897357783,70.74054423542607,133.87904158221227,144.10871284487808,208.0469657433724,204.93067540296292
2.6026026026026026,3.224806808577081,1.5450431936813112,134.63462157537444,67.96964193299483,133.9173711337516,143.94302347742672,208.24937708819692,205.02173986552063
2.6359693026359694,3.224806808577081,1.5450431936813112,132.99931183901668,65.8232825191687,133.9117984603164,143.78673467281067,208.4709558908729,205.10528109457272
2.669336002669336,3.224806808577081,1.5450431936813112,131.4687118355214,64.21625068210295,133.8005157209012,143.59146860804685,208.7223085023983,205.17835634719464
2.702702702702702,3.224806808577081,1.5450431936813112,130.40381995149423,63.21194522487628,133.6456437556383,143.3798445019268,208.99287052004323,205.26568774093377
2.736069402736069,3.224806808577081,1.5450431936813112,129.71351742666948,63.05989277553695,133.44483201463493,143.15589482056708,209.27288413295696,205.34687302435287
2.7694361027694363,3.224806808577081,1.5450431936813112,129.52323847421968,63.74307120592998,133.1906697970517,142.92310361743955,209.5683444086762,205.43141641685435
2.802802802802803,3.224806808577081,1.5450431936813112,129.90925308505342,65.21294383897107,132.9096577159947,142.70486850222477,209.86688044795545,205.51831071228168
2.836169502836169,3.224806808577081,1.5450431936813112,130.99375381132953,67.49979549107424,132.6084538150726,142.50091246770708,210.16463898784508,205.60673548497223
2.8695362028695364,3.224806808577081,1.5450431936813112,132.39230312447802,70.4119256097836,132.30299679915095,142.30787307041726,210.4604452311236,205.70572687709463
2.902902902902903,3.224806808577081,1.5450431936813112,134.55404039363725,74.22657734061359,132.0051576194795,142.1283893162229,210.757800105242,205.8123696184612
2.9362696029362696,3.224806808577081,1.5450431936813112,137.76733158512783,76.17893289986945,131.73626406515223,141.9660785226059,211.0476131353184,205.9255185489285
2.9696363029696364,3.224806808577081,1.5450431936813112,141.83402300870094,77.90328270017801,131.48294358181636,141.81915798252436,211.3072600414345,206.04243064598884
3.003003003003004,3.224806808577081,1.5450431936813112,146.99473923657447,79.58590846968818,131.24411550857644,141.6941635265275,211.53675860613384,206.16334674194087
3.0363697030363697,3.224806808577081,1.5450431936813112,152.96385881314544,80.93983543634039,131.0312660066284,141.6036953480535,211.7428936542837,206.28011648360192
3.0697364030697365,3.224806808577081,1.5450431936813112,157.74004549720303,82.14256562642059,130.8847881497617,141.5504218371317,211.9445360144299,206.3891377085924
3.103103103103104,3.224806808577081,1.5450431936813112,162.34248316654356,83.05095723524956,130.77785556125068,141.52208987959577,212.1456442000132,206.50450653851152
3.1364698031364697,3.224806808577081,1.5450431936813112,166.39984785577934,83.80694622920389,130.73343452261284,141.5204830800043,212.34747054348665,206.61431913299955
3.169836503169837,3.224806808577081,1.5450431936813112,169.7860332189104,84.41078419424808,130.71194434879126,141.52371648328517,212.5539125837412,206.72108426886584
3.2032032032032034,3.224806808577081,1.5450431936813112,173.1518717106942,84.98664336033382,130.72037556346655,141.4984226103388,212.7953325153744,206.8410954678856
3.2365699032365702,3.224806808577081,1.5450431936813112,175.77593880068025,85.56736194043408,130.7474769614436,141.49253791110328,213.02335428013947,206.92712556212555
3.2699366032699366,3.224806808577081,1.5450431936813112,177.87331403688873,85.79455227553501,130.74923628493372,141.48553111724075,213.25350719873944,206.9867040765529
3.3033033033033035,-0.1956530115489343,1.5450431936813112,178.79816072926238,85.84334616558154,130.79413555233594,141.47252382794443,213.44400460944783,207.02764680544084
3.3366700033366703,-0.8181427372543171,1.5450431936813112,178.7361908995361,85.66351333971137,130.8787812366848,141.46700922266754,213.5971740992956,207.04614262378067
3.3700367033700367,0.997987467599172,1.5450431936813112,177.72465369485073,84.11402011549154,130.96924063460173,141.47476721943963,213.7448449953956,207.0402575119612
3.4034034034034035,4.973410667241904,5.218381392589583,175.9307432306784,82.24905038217437,131.0956905865696,141.48776734086195,213.87890150677052,207.02075805222768
3.4367701034367704,10.951558181574544,5.218381392589583,172.94440300834944,80.10975443569323,131.2621824862514,141.5097544024616,214.0363299699107,206.9873897762392
3.4701368034701368,18.7454830541578,5.218381392589583,172.3731349874559,79.41846218934775,131.38830592592967,141.5490922799085,214.24838648460508,206.9479833988976
3.503503503503504,28.024274507888705,5.218381392589583,171.85394368165245,79.21687049402942,131.46056501357253,141.58597103937308,214.51257491729424,206.8924788506312
3.5368702035368704,38.63936727863442,5.218381392589583,171.61658715356816,79.10850375868175,131.46216602960874,141.61598947875854,214.83753345842925,206.82488559412124
3.5702369035702373,50.26666409918623,5.218381392589583,171.51972293657707,79.3644889407923,131.3980521905143,141.62927769991623,215.22619249982847,206.74878667005453
3.603603603603604,62.9127545795908,5.218381392589583,171.42751969487747,79.35604294321436,131.2798952105884,141.63317622348416,215.6676796435581,206.6679529254051
3.6369703036369705,76.34997105185785,5.218381392589583,171.3103592766046,79.08305073059434,131.0870158347718,141.6143987507735,216.1886543524087,206.58110005205924
3.670337003670337,90.44993076298913,5.218381392589583,171.21852532771518,78.85098044690434,130.8384070353519,141.58212197573343,216.7784979790685,206.4753246974145
3.703703703703704,105.04879650888144,5.218381392589583,171.0521637719755,78.66646682080993,130.52433315074254,141.54395885708988,217.4096236384246,206.32086495740924
3.737070403737071,120.04784373369012,5.218381392589583,170.97596481903554,78.3793125257346,130.11888439663204,141.50855559188767,218.0667096273524,206.1587921318466
3.770437103770437,135.36970936136754,5.218381392589583,170.71849271624475,75.59697443494692,129.6059288094407,141.41317290708866,218.75429039307969,205.9998069817645
3.803803803803804,150.8767475906469,5.218381392589583,170.79586641947031,73.78830056680785,129.006809006347,141.2870183155147,219.4560646480477,205.8524466801808
3.8371705038371706,166.23668244021454,5.218381392589583,171.78628022159583,73.4288094231788,128.37373029856693,141.14025062000928,220.1823128064865,205.7342605885713
3.8705372038705375,181.2693742543705,5.218381392589583,173.23644313093777,77.77336921847115,127.6734563259473,140.9280270122493,220.92361572669725,205.7077603700679
3.903903903903904,195.9894382717031,5.218381392589583,171.08355781972745,79.70020075394314,126.86196031939666,140.8201797231037,221.57329917996628,205.77704529441945
3.937270603937271,210.28461163666603,5.218381392589583,170.13797106500928,82.12568455200832,126.0032317965024,140.5813116937634,222.3782599678208,205.9271089270804
