Time,Left Shoulder Angle,Right Shoulder Angle,Left Elbow Angle,Right Elbow Angle,Left Hip Angle,Right Hip Angle,Left Knee Angle,Right Knee Angle
0.0,16.756970393934278,29.89359050356744,142.3146777701574,161.1634364921794,128.23047346796992,132.7294644618868,199.4401055732591,203.9711494718952
0.0333667000333667,16.876105208776178,28.88720092827032,142.2174103709728,160.4851546722923,128.28538002223522,132.72116244203474,199.08591646349817,204.1349930827723
0.0667334000667334,17.04406237607394,28.047798305170573,142.26675148094847,159.90247923848966,128.36762501019206,132.68345031558505,198.79271552042692,204.2869773496356
0.1001001001001001,17.258919750912813,27.365511910109973,142.45578807225567,159.40968095201276,128.47522177268732,132.61887613266234,198.555267864242,204.4274612405437
0.1334668001334668,17.518755188378066,26.83047101893028,142.77760711706557,159.00103057410303,128.60618365056789,132.52998794339106,198.3683386151394,204.55680372355505
0.1668335001668335,17.82164654355494,26.43280490747325,143.22529558754948,158.67079886600197,128.75852398468066,132.41933379789583,198.2266928933158,204.67536376672825
0.2002002002002002,18.165671671528703,26.162642851580667,143.79194045587863,158.41325658895076,128.93025611587254,132.28946174630113,198.12509581896748,204.78350033812185
0.2335669002335669,18.548908427384603,26.01011412709428,144.47062869422425,158.22267450419096,129.1193933849904,132.14291983873153,198.0583125122908,204.8815724057944
0.2669336002669336,18.969434666207896,25.96534800985585,145.25444727475755,158.09332337296388,129.3239491328811,131.98225612531155,198.02110809348216,204.96993893780444
0.3003003003003003,19.425328243083843,26.01847377570716,146.13648316964984,158.01947395651098,129.54193670039157,131.81001865616577,198.008247682738,205.04895890221056
0.333667000333667,19.91466701309769,26.159620700489945,147.10982335107232,157.99539701607358,129.7713694283687,131.62875548141866,198.0144964002545,205.11899126707127
0.3670337003670337,20.435528831334707,26.378918060046,148.16755479119624,158.01536331289313,130.0102606576594,131.44101465119482,198.03461936622827,205.18039500044512
0.4004004004004004,20.985991552880137,26.66649513021705,149.30276446219284,158.07364360821097,130.2566237291105,131.24934421561878,198.0633817008556,205.23352907039063
0.4337671004337671,21.56413303281924,27.012481186844905,150.50853933623335,158.16450866326855,130.5084719835689,131.05629222481502,198.0955485243328,205.27875244496644
0.4671338004671338,22.16803112623728,27.40700550577129,151.7779663854891,158.2822292393072,130.76381876188157,130.86440672890816,198.1258849568563,205.31642409223105
0.5005005005005005,22.79576368821949,27.840197362838,153.10413258213117,158.42107609756837,131.0206774048953,130.6762357780227,198.14915611862253,205.346902980243
0.5338672005338673,23.44540857385115,28.30218603388677,154.48012489833093,158.57531999929344,131.27706125345702,130.49432742228316,198.1601271298278,205.3705480770608
0.5672339005672339,24.115043638217653,28.783100794759623,155.8990303062608,158.73923170572505,131.53098364841463,130.3212297118151,198.15356311067012,205.3877183507448
0.6006006006006006,24.774127669605672,29.149599851929427,157.34095971689553,158.80582070082443,131.77341726225777,130.18398398089423,198.0708704920083,205.4181253077548
0.6339673006339673,25.45998693527318,29.562597296996174,158.76873872972072,158.9515776273955,131.9806392881021,130.04965376160897,197.8905755304365,205.4400893099981
0.6673340006673341,26.21201744832004,29.976975036791647,160.24292602672017,159.09548976300374,132.15386890945524,129.92571548541113,197.6413763051343,205.4545433588391
0.7007007007007008,27.03228810577449,30.35243415127473,161.87412434965108,159.17097868401203,132.52103199436624,129.79325698175185,197.17816277452715,205.4591746024767
0.7340674007340674,27.88661941300313,30.690971210871464,163.5703534834344,159.20420230711602,132.83338412231626,129.69695411286546,196.71486707702624,205.4450985889578
0.7674341007674341,28.692670929414,31.108894809273043,165.237160683005,159.39490720260355,133.9839731711517,129.62599984413475,194.9836527620172,205.46473023338305
0.8008008008008008,29.468305104002425,31.47801271320332,166.79351057169822,159.55298352598274,135.0492305473956,129.5802099781885,193.5565941525984,205.5203896339608
0.8341675008341676,30.26473637170691,31.78343834203826,168.35510970178612,159.62805855937808,135.84598968094252,129.54005107215846,192.16576300330115,205.56365792279067
0.8675342008675342,31.04193900832477,31.97771705902027,169.87369324214916,159.6179346244374,136.19658365310175,129.56234947455175,191.28951547513927,205.5731791535092
0.9009009009009008,31.781101218588155,32.152771595609764,171.2827430643611,159.54727452362408,135.21691560468932,129.64010033162694,192.7295604124787,205.54474224073115
0.9342676009342676,32.393744499215764,32.25625463659304,172.4181992833662,159.36436690918245,133.95268024572172,129.76235921257413,194.51797261386525,205.4848172762089
0.9676343009676344,32.87880278629338,32.325319540661454,173.2991520168787,159.2488510330068,132.8331050183546,129.93827353876608,195.7834678090942,205.37468961826272
1.001001001001001,33.282813141482514,32.25439626596131,174.09044229762787,158.990873989479,131.65748530658644,130.17969504362813,197.13062323257915,205.2136029412692
1.0343677010343677,33.65014460702346,32.12829014592658,174.81671624796374,158.7387021665169,130.4920899628023,130.47893614852964,198.4676348962988,204.99606785800503
1.0677344010677343,33.99588850302262,31.83231706696236,175.4477659850683,158.32328967258303,129.31192135929552,130.85932001442248,199.7270649996796,204.7238193333088
1.1011011011011012,34.31850075197045,31.420637817568387,175.8656115478638,157.78780211537747,128.16706335755472,131.31477966840256,200.7350202006299,204.4146516726129
1.1344678011344678,34.64464193816449,30.84485672686593,176.26988121206975,157.13963190697606,127.0510831166978,131.87369709648806,201.6062006111722,204.0654524040347
1.1678345011678346,34.87391373811736,30.22508483973824,176.43013378984006,156.5498868433918,126.20110938164866,132.4741021854859,201.9811161984408,203.72977897137167
1.2012012012012012,34.9975145673415,29.541240999626243,176.43508103413703,155.89559214177342,125.45320347174226,133.06857111175796,202.14622091654468,203.4195939956128
1.234567901234568,34.98222145989587,28.764253806016765,176.23112876019425,155.01613255462337,124.59119484806672,133.68115632320644,202.49727241306863,203.1293808402196
1.267934601267935,35.062548629153866,27.9419592820966,176.53383043069903,154.12331065638358,123.79899649049904,134.27978515974317,202.8970240584956,202.85605159571955
1.3013013013013013,35.13059544873792,27.244251714896187,176.97225752354336,153.4227755312931,123.10028131149753,134.85045800449922,203.2336300507837,202.58221554767005
1.334668001334668,35.1726713834252,26.422359304286964,177.46137800837263,152.6376780198299,122.51659248714748,135.43414388930714,203.49371511379505,202.295606191387
1.3680347013680347,35.13268734770088,25.34861039847545,177.8237147086268,151.87125036498125,122.04016383312194,136.01257166527884,203.701891646664,202.0075216948936
1.4014014014014016,35.062502313917776,24.149327795147062,178.32622769250224,150.98887160875188,121.74347224759688,136.57624277864886,203.79172907447744,201.72738523642505
1.4347681014347682,34.93934145347038,22.892907432784423,178.05242573172177,150.10378886504392,121.8509382981794,137.1336601750849,203.32307793936388,201.43905748676733
1.4681348014681348,34.72725906756441,21.589655992078864,177.76135554449164,149.12547742950642,122.11472450993618,137.6823933054331,202.707481520766,201.1404482830148
1.5015015015015016,34.49133651165109,20.25360382280872,177.0893321092682,147.97990288102656,122.5399357233579,138.2186422594596,202.03507762658404,200.8569198230032
1.5348682015348682,34.220916482182886,18.905193927842856,176.97261717287003,146.6755760526433,123.11828612139034,138.75469489909332,201.2070954995803,200.5784584992041
1.5682349015682349,34.00866021028207,17.165851928724432,177.59503136931892,146.1950043397098,123.85487398832844,139.29253065979043,200.30210364191672,200.2949813628489
1.6016016016016017,33.7067993149811,15.516261893035944,178.37507502881016,145.6499048687987,124.5885514782871,139.79084482450816,199.3732098651147,200.0304365482769
1.6349683016349683,33.50883891651405,13.74221867418231,179.3368084685197,145.03320524055218,125.29780492209628,140.23093147215968,198.48664378458884,199.80235156252385
1.6683350016683351,33.148788835751425,11.98292517792606,180.71412793098125,143.92088307858828,126.06750182888236,140.6516130059447,197.50834042813307,199.59350737811417
1.7017017017017018,32.69802315720258,10.5653476327436,186.8107343804361,142.56487718861817,126.78785313819782,141.0484037705638,196.541107693738,199.4287486882889
1.7350684017350684,32.1187201416245,9.442983269840235,191.90431982105287,140.8592146175812,127.4546849836683,141.39090974319808,195.6073959372003,199.29625996891988
1.7684351017684352,31.60879991875852,9.198621910493127,195.8717544895865,139.14508806101986,128.10967835531628,141.6379490143038,194.69211764800417,199.18112006669315
1.8018018018018016,30.9029885695242,8.79105088744791,198.88603286919965,136.8124046673198,128.83915074490525,141.80403143793336,193.7668327870604,199.08626010614856
1.8351685018351689,29.64765147320474,8.532132748326722,200.9044322731468,134.37249486944165,129.68329172870136,141.90934895894114,192.80004009375705,199.0024694748038
1.8685352018685355,28.16988674702464,8.443564828589603,201.92748378836603,131.52210903045352,130.36493233936568,141.98534579005343,191.96463048777892,198.9358448853174
1.901901901901902,26.664267589699552,8.242662734791107,202.51396192600643,128.2510801895399,131.0109221237287,142.040759002288,191.0566460326544,198.90233637895253
1.9352686019352687,25.16258446511368,7.810143377334918,202.40892374382287,124.40727610081214,130.52609103431712,142.06142678098726,191.91345398464097,198.8470411538381
1.968635301968636,23.816627136705264,7.813026164526026,201.99844024983412,120.27483842975792,129.3548457602483,142.04314987212848,193.4131228857666,198.73516140510648
2.002002002002002,22.38969131887176,8.120263605456918,200.7679709991936,116.0427907586678,127.72684446229889,142.01790314143986,195.9889469633464,198.61757136948967
2.035368702035369,20.78084158868192,7.515264181141097,198.6868566270821,113.86823052189648,125.803027015542,141.96284182121474,199.0527560944444,198.4562292966701
2.0687354020687354,19.057693752599,7.03052601966247,195.5696732865127,111.0405614423442,124.7653163040942,141.88944380814348,200.5316853966076,198.2839695456188
2.1021021021021022,16.898713329319403,6.854393541884772,191.2405800298569,107.06855872060152,124.05822709064071,141.79750813360286,201.73314667229533,198.11349033756585
2.135468802135469,15.01515362973603,6.921803854514539,186.6031557452648,102.4259342994598,123.22839918198528,141.6763065632744,203.3564064401268,197.9561335520549
2.1688355021688355,13.823693766664704,6.801095062094326,182.8318315689908,93.39946683868284,122.500972099677,141.52844788404718,204.90322735647408,197.8253366292079
2.2022022022022023,12.832735124128655,6.909563707358815,178.35798421977773,84.69936655048802,121.77741421601648,141.3549108793487,206.3491772943075,197.7516912058467
2.235568902235569,11.695738847656566,7.488537870568205,172.9256489403285,81.00928267800198,121.00980094678172,141.15397326425725,207.7226715550059,197.7204458890802
2.2689356022689355,10.738589077314924,8.36314533444561,167.4691030791738,77.31916475816297,120.21457088469188,140.92196782669598,209.1931777194642,197.7038694972605
2.3023023023023024,10.871389910924831,9.626387459346647,160.03646896483698,73.64636507927676,119.375886018135,140.67196401830918,210.5092678020993,197.69625237974105
2.335669002335669,11.18626795615645,11.067839593087518,153.3684735037,70.09025773040828,118.4156018757167,140.41730234081845,212.0521838512873,197.68818405620684
2.369035702369036,10.959262017211833,12.612924668552829,149.9971918954191,66.44862327176578,117.48479885494736,140.15563518717752,213.78740251187,197.6845175737197
2.4024024024024024,10.753748212119197,14.238694094918182,146.65477614528982,63.41560110687848,116.96340900763622,139.8932703891506,214.9279301264393,197.63960950773472
2.4357691024357693,10.68137806383903,15.979225130879318,143.40481465102357,60.6865257980158,116.64366271809304,139.6132156363093,215.8594569521036,197.5621476827864
2.469135802469136,10.845712284669554,17.54766525693611,140.08509835093764,58.17232226820859,116.49646781596104,139.35754370881236,216.6131647830512,197.4531943692449
2.5025025025025025,1.341958860940344,18.98653193892921,136.4710395057332,56.057335927193805,116.5349958277772,139.09723771593525,217.2460285950019,197.3661720959905
2.5358692025358693,1.341958860940344,20.47596699651198,132.9800802727626,54.225325512708096,116.75288550248376,138.87085526062157,217.6415926088416,197.2666370691102
2.569235902569236,1.341958860940344,21.990081659114782,129.64255504866597,52.93962154005325,117.13582846734997,138.69165850126834,217.7717100815828,197.15365377120875
2.6026026026026026,1.341958860940344,23.469150444273744,127.42640820018732,52.05266774973572,117.40221184201448,138.5449771291693,218.19176110169448,197.0321875816865
2.6359693026359694,1.341958860940344,24.917814195650347,126.09527432357103,51.788592160314174,117.67406777507756,138.44622959320546,218.67321193263825,196.89831152443952
2.669336002669336,-4.6889450793880725,26.285794591984445,126.41286055479073,52.13263471469031,117.87661336038668,138.39505562259302,219.2103107367672,196.7086582171435
2.702702702702702,-7.522823942701246,27.533160025722616,127.88284220823338,53.12442746759462,118.025494578179,138.39463796400094,219.79272804273984,196.49124246605103
2.736069402736069,-7.302819365085447,29.14329796706803,130.16451217477993,53.575658626914006,117.98489014637592,138.3945004727134,220.42654846150225,196.27246979860192
2.7694361027694363,-4.29850944167961,30.77497016293744,133.25176878723423,53.97551873211229,117.82219901902982,138.40716003621588,221.09270447990875,196.090774954288
2.802802802802803,1.1866057573853883,32.77600123332441,137.8266464753807,54.31021789921914,117.54773098392737,138.43200828246768,221.70923966673325,195.89909988176373
2.836169502836169,8.986773102124666,34.9314530580138,144.08029456860135,55.32777951792406,117.15199349359116,138.54892832120004,222.2905038893392,195.7415903379957
2.8695362028695364,18.692987250110043,36.746108319526975,145.96051360326047,55.02957348277549,116.70342018967112,138.61049715433634,222.7245818674409,195.557776029351
2.902902902902903,30.49045343573964,39.02085024276055,148.08095266969747,50.45602426596276,116.2571636509141,138.70493857133013,223.02880417464007,195.2666202296936
2.9362696029362696,43.50084048118126,40.320054328174,150.06824707837828,47.23501013779694,115.78234352949777,138.78663061262395,223.30728271417567,194.9513523165859
2.9696363029696364,57.86470873750996,40.71970794081909,152.18132237742776,49.30526423867065,115.14876794686558,138.86976092342024,223.5388728935596,194.61738884345075
3.003003003003004,73.33399232555988,40.703110759739225,154.25187087868898,51.20136223726229,114.51559297518187,138.92604826932592,223.6542123481207,194.28488292046217
3.0363697030363697,99.37662148445384,40.80349360966393,153.22206092223658,53.34928730193363,113.86540050275094,138.97282760430406,223.74077129159068,193.93325735216823
3.0697364030697365,122.92259109020628,40.89817929757989,152.03557104567014,55.69047486093674,113.34011328531572,138.92806548721575,223.7690331694372,193.60442796152017
3.103103103103104,144.56935054507915,41.3269764836562,155.4863007422503,58.53590394026688,112.9146783777692,138.88720573315558,223.66073062930303,193.23298147334583
3.1364698031364697,164.2755785125866,41.27482108984055,157.74354194753772,61.830598799916736,112.73638238789168,138.77920678880807,223.4345836119091,192.92973325001708
3.169836503169837,181.812400849658,40.789479905320746,154.49106835330787,64.21607242991533,112.6508887668532,138.5518234030057,223.0255011328089,192.754050081894
3.2032032032032034,196.88844292986573,41.12445641640719,152.0568618165816,63.46218006967469,112.58841387534324,138.2139378216493,222.8245599045344,192.72719870302555
3.2365699032365702,209.1719172377792,41.37061214320697,150.96867176968885,62.7586391719838,112.64486083373286,137.8740837260955,222.73022858369345,192.7769217092164
3.2699366032699366,218.5251091881372,41.08469423546768,151.1646064379287,62.64207577685409,112.64804178325066,137.47478934618485,222.68168144552484,192.89534022261435
3.3033033033033035,224.25963864783824,40.081013120569054,152.305993856754,62.18479630070952,112.48568764157228,137.17883328539384,222.73580253058407,193.0749228844056
3.3366700033366703,227.59444412479772,39.29960457236032,152.2920152659573,66.88488785397338,112.27717709296856,136.87507381499904,222.7235043270576,193.31662319812503
3.3700367033700367,228.2525872963014,38.266144265381485,152.38065278365863,73.09252072343129,112.20075993245196,136.52967723504202,222.8129282925921,193.56666133120137
3.4034034034034035,227.39226171407435,36.98287884132734,153.18781114315584,75.66233277373547,112.28012016887224,136.1290776061323,222.56087080497832,193.8735148760959
3.4367701034367704,224.63898045139985,35.4068926737745,154.11315678421366,78.20690044695601,112.3861120021128,135.69762510941408,222.2607343388329,194.25435056743865
3.4701368034701368,219.31320535801365,33.727888511633566,157.78784692855845,80.97144620054158,112.65811262388426,135.16385557446085,222.07189287282225,194.70469274356932
3.503503503503504,211.776924248758,31.93418536922944,164.04238169825717,83.1267515799293,113.27237111045962,134.39534056185542,221.8229419202621,195.36248235559688
3.5368702035368704,202.4946096052457,30.24120622123313,167.1528386106639,85.62795282796966,114.10001339557957,133.59967575879637,221.23842149605343,195.9734286213984
3.5702369035702373,191.25807227617875,28.22262891801944,170.1383885227414,88.06020074350225,115.02340842241628,132.81234511599297,220.45163318892327,196.4759573911691
3.603603603603604,176.91422536828412,26.44144103315804,172.47101365982925,91.00858063224408,115.97616764767776,132.05761809019373,219.56528540136367,196.98931994261244
3.6369703036369705,160.8539123422215,24.96105129849998,175.94283343366297,95.1683358053894,116.94595503110966,131.3486272265206,218.38455010801547,197.51356130361097
3.670337003670337,142.85921574778732,23.61588851967494,177.1082813557547,98.0775379446917,117.96778552167066,130.65688502304516,217.2263288185085,197.97506259753584
3.703703703703704,123.45416272067592,22.729602641266705,176.0151960628517,100.87643474338272,119.1204042828498,129.9102443355894,216.0742425039845,198.13301234011777
3.737070403737071,101.80499276867543,22.30870692116881,174.5134402276516,102.03359213663718,120.27994309904612,129.15824844866705,214.94651114378377,198.2724674421711
3.770437103770437,77.53829561953873,21.954726102366827,173.40831166202352,101.52482149179107,121.32543753784076,128.52821689592955,214.00639054868697,198.18511382936933
3.803803803803804,64.18686399950683,21.48084267983611,172.5037545623363,100.70067409962238,122.40588184635514,127.95818014097289,212.8930297498825,198.1513370247104
3.8371705038371706,51.17398326271524,20.96370817631677,172.31000988179258,100.53516397239476,123.39005758050672,127.6163276763742,211.5295313672553,198.4067301271751
3.8705372038705375,39.54457545238243,21.02510643479535,171.80070114190195,99.73753492125002,124.25515869437234,127.31196222278736,210.03580200654253,198.78210371581216
3.903903903903904,29.81083488745505,20.953287367933545,171.4172565785455,98.7730696303062,125.0933364160516,126.98907528058456,208.4379153884101,199.2739885857057
3.937270603937271,21.726092584105466,20.808945022950184,171.26440422546216,97.44809797499433,125.79411099451586,126.5170150031115,206.78821904137823,199.8021366686621
