Time,Left Shoulder Angle,Right Shoulder Angle,Left Elbow Angle,Right Elbow Angle,Left Hip Angle,Right Hip Angle,Left Knee Angle,Right Knee Angle
0.0,28.47304411841229,36.570814905202006,161.95292198364115,166.9689972645032,141.61604955519294,131.5847246719207,203.8682018637145,212.2903016242727
0.0333667000333667,28.19210040820706,36.462398489802325,161.04567973617054,167.32798100876005,141.45424360825987,132.17385102401818,203.82488032750544,212.0399646605564
0.0667334000667334,27.977375298018348,36.36848090551977,160.31427009265508,167.63030928304102,141.2663032921973,132.66839533635783,203.79766880389093,211.8384070143912
0.1001001001001001,27.824472702143023,36.28704003351368,159.74891926897138,167.87854445482003,141.05444216183986,133.07419620634846,203.78565488488312,211.6831378873697
0.1334668001334668,27.72899653487797,36.216053754943424,159.33985348099617,168.07524889157094,140.82087377202214,133.39709223139883,203.78792616249405,211.5716664810844
0.1668335001668335,27.68655071052006,36.153499950968346,159.07729894460607,168.22298496076766,140.5678116775788,133.64292200891776,203.8035702287359,211.5015019971277
0.2002002002002002,27.692739143366165,36.0973565027478,158.9514818756778,168.32431502988408,140.2974694333444,133.81752413631406,203.8316746756208,211.47015363709212
0.2335669002335669,27.74316574771316,36.04560129144115,158.95262849008805,168.3818014663941,140.01206059415358,133.92673721099646,203.87132709516084,211.47513060257032
0.2669336002669336,27.83343443785792,35.996212198207736,159.07096500371344,168.39800663777166,139.713798714841,133.97639983037382,203.9216150793681,211.5139420951546
0.3003003003003003,27.959149128097323,35.94716710420692,159.29671763243067,168.37549291149057,139.40489735024127,133.97235059185488,203.98162622025484,211.5840973164375
0.333667000333667,28.11591373272824,35.89644389059806,159.6201125921164,168.3168226550248,139.087570055189,133.92042809284845,204.050448109833,211.68310546801155
0.3670337003670337,28.299332166047545,35.842020438540494,160.03137609864734,168.2245582358482,138.7640303845188,133.8264709307633,204.12716834011485,211.8084757514692
0.4004004004004004,28.50500834235212,35.781874629193595,160.52073436790013,168.1012620214347,138.4364918930653,133.69631770300825,204.2108745031124,211.95771736840305
0.4337671004337671,28.728546175938824,35.7139843437167,161.0784136157515,167.94949637925822,138.10716813566313,133.5358070069921,204.30065419083783,212.12833952040543
0.4671338004671338,28.965549581104547,35.636327463269176,161.69464005807805,167.77182367679256,137.7782726671469,133.3507774401236,204.39559499530327,212.31785140906905
0.5005005005005005,29.21162247214616,35.54688186901037,162.3596399107565,167.57080628151172,137.45201904235125,133.14706759981158,204.4947845085208,212.5237622359862
0.5338672005338673,29.462368763360534,35.44362544209964,163.0636393896635,167.3490065608895,137.13062081611076,132.93051608346482,204.59731032250252,212.74358120274945
0.5672339005672339,29.71339236904479,35.324536063696634,163.7968647106771,167.10898688240133,136.81629154326117,132.70696148849322,204.7022600292624,212.974817510953
0.6006006006006006,29.89776927436627,35.19567427196251,164.47277547794596,166.90160724391808,136.56210166906746,132.48323386151532,204.73977352883867,213.2197014483316
0.6339673006339673,30.031325724062107,34.99561432745199,165.05327221410587,166.63824061930418,136.34479535980515,132.28563725435524,204.78965856312092,213.4583257147889
0.6673340006673341,30.18004349475329,34.77674542087997,165.67945193800062,166.4107051170094,136.14590473224052,132.11774520712686,204.846003199939,213.69931027394875
0.7007007007007008,30.37246650997369,34.50674228221195,166.36782876145168,166.13088330151362,135.92632229658736,131.9788336829753,204.93220434346256,213.9387914484295
0.7340674007340674,30.627933535747864,34.21139013775103,167.140321947198,165.81910325127933,135.664003044794,131.8507984079757,205.0813094174896,214.1954912439168
0.7674341007674341,30.872870969989567,33.91398130429911,167.8841556767295,165.55700441681788,135.39437367058167,131.75898561120658,205.25020350964948,214.4508641583434
0.8008008008008008,31.08420869990227,33.60804512381083,168.57803420957558,165.31101976032215,135.15456976587032,131.71210493475465,205.39039450598656,214.6999489561757
0.8341675008341676,31.25085978217804,33.31132528708971,169.20185958336242,165.12932600683695,134.92819749079962,131.7136329756853,205.5374891296277,214.9349574656448
0.8675342008675342,31.36058466297767,33.00712018409619,169.7289439560666,164.94737822863934,134.71945438445346,131.7560928813151,205.658773336292,215.15978204972333
0.9009009009009008,31.42554613638968,32.6928176076326,170.1234923404094,164.7265616266626,134.5113245664628,131.83312430363858,205.77442456023843,215.3822113053789
0.9342676009342676,31.414344838118144,32.3350710570383,170.42015275810562,164.43646578364283,134.3209501515191,131.94866088900108,205.8720095288037,215.5966812728001
0.9676343009676344,31.310060641795666,31.95766379796272,170.68621798674616,164.18065507561408,134.1770634383965,132.12213606987189,205.945111792874,215.7475333258632
1.001001001001001,31.23252614007521,31.534132285680524,171.12612217168152,163.84691285533637,134.03487341824288,132.33522606743895,205.97955861828103,215.86496658114189
1.0343677010343677,31.117434523114373,31.12205037170116,171.9628554255553,163.46722270909285,133.9549227203699,132.6054565482356,205.94125298591425,215.9434144284399
1.0677344010677343,30.98165120298735,30.762540505787378,172.39905424893217,163.13123936522393,133.88690440032215,132.90460415718553,205.9264260600151,216.00274643021984
1.1011011011011012,30.801700352752,30.448236336175245,172.51385011871022,162.8952091138591,133.83007876745293,133.23348019344056,205.90920366354,216.0388862669693
1.1344678011344678,30.62333390748133,30.12716330211552,172.5800425793101,162.608263626006,133.75480841881893,133.57542498825927,205.9038340938552,216.0534082738509
1.1678345011678346,30.4828298887562,29.726101220872536,172.73732829295298,162.20810787479593,133.6529853888516,133.9142958145104,205.91083720339765,216.04493931908044
1.2012012012012012,30.36362256509876,29.277388424526784,172.98217103135775,161.9199421773152,133.57234701040554,134.284314694286,205.9190525543403,215.9962761647066
1.234567901234568,30.175611863057547,28.77177689360775,173.1405245419077,161.54083743907245,133.45604427172802,134.6553520751857,205.95663071536967,215.9167910748306
1.267934601267935,29.967433299213724,28.233048560359705,173.21224616261475,160.9968338663601,133.32246587029422,135.03985722858624,206.0063781175444,215.7969971251077
1.3013013013013013,29.63820287778275,27.4969330907981,173.27730869402268,160.27011624117736,133.28444666132023,135.43913518016902,205.9512678341696,215.63004836121056
1.334668001334668,29.32292079500533,26.54556920774689,173.5636942312454,159.40785950711052,133.26810926815185,135.84618220455786,205.88654016873093,215.40198612390537
1.3680347013680347,29.00914436205869,25.39999346802704,174.04926919063672,158.3138644118974,133.20488557991987,136.24259117747516,205.8970945399041,215.1341309135738
1.4014014014014016,28.43469391537685,24.295934713707336,174.7044881439977,157.433983003511,133.05635167251197,136.6164534711364,205.99723102310804,214.85660213319852
1.4347681014347682,27.5822554194312,23.015530864981947,175.21491030856228,158.33940119919075,132.84230976611326,136.95826271780493,206.16801373959927,214.5458146998648
1.4681348014681348,26.547116468041832,21.52677128706514,175.9761286160752,159.30545054095705,132.56595991309192,137.30381568390672,206.43069203392903,214.20455960093744
1.5015015015015016,25.28689021964688,20.01744775614545,177.08358115854776,159.77137297642463,132.22204736239573,137.6454206524664,206.76034892100284,213.827974761257
1.5348682015348682,23.82939465597878,18.442883258848155,178.38046343411972,159.51376790128086,131.81835877070068,137.95512710815044,207.12848144160083,213.43599330920588
1.5682349015682349,22.054119799974387,16.90719750926679,180.1645470494392,158.7797090446401,131.37618295631964,138.2372288285232,207.5298464606664,213.01543054800524
1.6016016016016017,20.37062293500146,15.269768925705394,183.8096065550608,157.29313732801936,130.90850087938338,138.5170161683276,207.95828929048275,212.58437635344052
1.6349683016349683,18.941330898656474,14.120958588442573,187.2749079774597,155.57530797041085,130.44833449273662,138.78733808316164,208.41847195195905,212.1427145052408
1.6683350016683351,17.58833446847065,12.76468366370379,190.0462055713949,153.64947346136415,129.98738552183423,139.0529033698448,208.8968526817744,211.7082662884752
1.7017017017017018,16.3142399891899,10.900544851397818,192.14718737143832,149.78032329805194,129.54032087331944,139.3109777114026,209.3734811596401,211.27122804743047
1.7350684017350684,15.116920648924724,9.185176962583691,193.54136638024585,146.5653119966632,129.1000579007743,139.59244234214856,209.8693848940447,210.83956060112865
1.7684351017684352,14.08266649042516,7.949116552212424,194.5581503768298,146.01340021781832,128.57677532923327,139.8309310002886,210.4562020029242,210.4396024929426
1.8018018018018016,13.13410052686292,7.105118249309062,195.21053633754303,142.8485883623852,128.016679031076,140.04224140872142,211.07089794264584,210.0806545270788
1.8351685018351689,3.040929060835784,6.477633089237623,195.2479963830581,138.8275536533264,127.43946847675817,140.2281860638931,211.70795217803493,209.75655512080544
1.8685352018685355,3.040929060835784,6.045012660824885,194.7554811350112,134.37229900981723,126.87360362683528,140.4160370451488,212.33717727047784,209.44898523343747
1.901901901901902,3.040929060835784,5.873001347639919,193.837636608946,129.65629706432057,126.33026073813502,140.6150814216048,212.92418545986467,209.1254965093686
1.9352686019352687,3.040929060835784,5.873001347639919,192.43804929345265,124.84265771142331,125.81723500793372,140.80362727026017,213.4904723127876,208.81405278966105
1.968635301968636,3.040929060835784,5.873001347639919,190.681019491825,119.8162753377162,125.32294794084,140.97206397669288,214.06804739630587,208.52536107119712
2.002002002002002,-3.46293542550556,5.873001347639919,188.70277376754188,114.70457260573237,124.86745735220433,141.10710312889034,214.61808555179343,208.2584101134868
2.035368702035369,-6.782460830966596,5.873001347639919,186.62733809599283,109.49225488666752,124.45606583297236,141.21549481059742,215.15620138803084,208.0053485714812
2.0687354020687354,-7.104977440249882,5.873001347639919,184.45841129790315,104.24802102641608,124.13371584115863,141.31032076592976,215.65320083810403,207.75021992027897
2.1021021021021022,-4.764790929271472,5.873001347639919,182.2279103723993,99.1303232264523,123.88527364114542,141.4002542044665,216.10982040913427,207.45154174023867
2.135468802135469,0.0465531864016233,5.873001347639919,179.87787734864906,94.20371247608156,123.7034296750834,141.4697134412198,216.54603463757687,207.1711035920657
2.1688355021688355,0.0465531864016233,5.873001347639919,177.24259239225103,89.59677485804963,123.60550172248884,141.5220361038339,216.95395893440303,206.89896048850784
2.2022022022022023,0.0465531864016233,5.873001347639919,174.02036209156068,85.47348183264367,123.54920298512046,141.54419610923782,217.3894050006581,206.63345656939964
2.235568902235569,0.0465531864016233,5.873001347639919,171.044348620111,81.82477647315567,123.57701619961188,141.57244853853675,217.7809970450216,206.35128846690367
2.2689356022689355,0.0465531864016233,5.873001347639919,168.33162944427187,78.56324409841035,123.68076421962644,141.6023012595691,218.13475096788932,206.05337712093151
2.3023023023023024,0.0465531864016233,5.873001347639919,165.8150174042758,75.83439296788603,123.87898667488024,141.63972720278838,218.42436905683164,205.73389143782424
2.335669002335669,0.0465531864016233,5.873001347639919,163.45510674253788,73.74737701820574,124.1445559033737,141.69986897734944,218.6665054372665,205.39578268317769
2.369035702369036,0.0465531864016233,5.873001347639919,161.24689680121182,72.04782183429731,124.45342308764276,141.76258976149518,218.8697149200268,205.0336819453451
2.4024024024024024,0.0465531864016233,5.873001347639919,159.35553539818568,70.87280153100701,124.84329467156203,141.8689695085735,219.006629395428,204.6152890259662
2.4357691024357693,0.0465531864016233,5.873001347639919,157.8830274013449,70.37087382924608,125.25370041396728,141.97786528202616,219.11243144341609,204.1787135914731
2.469135802469136,0.0465531864016233,5.873001347639919,156.80348404652915,70.65874984052816,125.5529208008402,142.092012278426,219.28672907639952,203.72012002496265
2.5025025025025025,0.0465531864016233,5.873001347639919,155.98273547625433,71.71376228926187,125.76173436132406,142.22334516686794,219.50054199871352,203.23771598565585
2.5358692025358693,0.0465531864016233,5.873001347639919,155.53699447572288,73.97569319707014,125.9192000281814,142.3869184098126,219.72280302770096,202.741424135891
2.569235902569236,0.0465531864016233,5.873001347639919,155.45789979692492,76.94090320682807,126.04514400584918,142.57747472018875,219.95001689711296,202.23093178903613
2.6026026026026026,0.0465531864016233,5.873001347639919,156.34325066307886,78.78626156889153,126.1228989160859,142.79775496527958,220.19314439623489,201.7353531587393
2.6359693026359694,0.0465531864016233,5.873001347639919,158.13583167796665,80.27331335240372,126.15574510309996,142.9987386909796,220.428431723716,201.30552766021023
2.669336002669336,0.0465531864016233,5.873001347639919,160.3339405885607,81.92564899334116,126.1848843942297,143.17445056166574,220.6542582642843,200.93815038595264
2.702702702702702,0.0465531864016233,5.873001347639919,163.3007911915542,83.64925931088223,126.1771179967869,143.28497790022865,220.87931967580312,200.67519021926552
2.736069402736069,0.0465531864016233,5.873001347639919,166.66645310836347,85.48154569668043,126.07865792758454,143.2705156893291,221.1767361758081,200.5691184579093
2.7694361027694363,0.0465531864016233,5.873001347639919,167.93581630997292,86.86936184128498,125.87601720594436,143.13000198781685,221.5183743784755,200.68267327613907
2.802802802802803,0.0465531864016233,5.873001347639919,169.11406312065765,87.35913463543334,125.48757950432424,142.89429798050864,221.98402209215527,201.0156251470582
2.836169502836169,0.0465531864016233,5.873001347639919,170.07715624366142,87.39879766377545,125.03134305248471,142.60278442732553,222.4799978416615,201.49571425446987
2.8695362028695364,0.0465531864016233,5.971198571487361,166.5154852265287,88.41558565715687,124.52550371339832,142.23273036514715,222.84176539838748,202.11456274742844
2.902902902902903,0.0465531864016233,6.268993134701454,163.56426849949543,88.64858871897425,124.11054751822849,141.77556338634676,223.0234018846324,202.8557291584549
2.9362696029362696,0.0465531864016233,6.751199299963012,166.3291534829524,85.26702111166891,123.78888492807329,141.273383751892,223.0836136821013,203.7129503375461
2.9696363029696364,7.116178177289426,7.423116119543524,162.71027044089556,82.79668803864595,123.50504368709528,140.7568692377751,223.0484604073071,204.6500150085433
3.003003003003004,16.18677509655081,8.274143814697009,161.63926339241783,80.49178546712318,123.18646881607955,140.21702943377468,222.96938838847552,205.67201783259333
3.0363697030363697,27.07272862058058,9.369629507067746,161.78562512209896,79.16421850990095,122.8516542819146,139.63030154669593,222.8347168749717,206.8251490554038
3.0697364030697365,39.57212353334844,10.739325530879434,162.30336843984074,78.29786781499209,122.56997784927393,139.02398445069872,222.69454118132992,208.0856655668994
3.103103103103104,53.51571403753486,12.441088991010112,163.06635917241456,77.53762911638923,122.18596501000704,138.33584851940765,222.6753930091092,209.4776645593802
3.1364698031364697,68.68477251223794,14.462131052545049,164.0095924070252,77.13869927618939,121.82804294882628,137.7203533050913,222.53561027369977,210.8489491541455
3.169836503169837,84.77790053632613,16.72589484543274,165.44328398787368,76.43182077083496,121.5203990177774,136.9302067618472,222.18616657485447,212.43980795176563
3.2032032032032034,101.63445327410194,19.1230987704412,166.5212073677734,76.319778258457,121.43698826267652,136.09028354712157,221.68654545715992,213.93908434414567
3.2365699032365702,119.04122332616193,21.65909771665393,167.51376831227088,76.94127282677164,121.4654176811024,135.23377495267087,221.0726374257732,215.2922925497094
3.2699366032699366,136.74451530619808,24.324026892458253,168.35123426485924,77.89488987367757,121.65702473954562,134.42332176034313,220.27999430902776,216.5303051979609
3.3033033033033035,154.49835830134612,26.987276541734268,170.44714027869756,79.47152360216005,121.91934372076462,133.82394217213152,219.3429958981785,217.53638502950184
3.3366700033366703,172.14500175331904,29.54330591523116,172.2573935670005,81.84037982356165,122.35092997789089,133.3739844910074,218.2049352865513,218.27450859310983
3.3700367033700367,189.4137129212083,31.924299671461323,173.21792127837915,84.70968960475416,123.02252797661777,133.14174470923516,216.8639728776521,218.6833934143621
3.4034034034034035,206.15864791449644,34.219429978249096,173.69795669317313,87.80360236294878,123.89862731428693,133.080823406123,215.28552172146664,218.76262868114983
3.4367701034367704,222.0280933678987,36.42757149228836,174.07238336270163,92.14907620864938,124.91835949416392,133.2307192206639,213.6057828437018,218.46727950244107
3.4701368034701368,236.77679197216432,38.67703514517316,174.04873611169447,96.26652519579788,126.04756048283036,133.33583219449005,211.75192980846305,217.8111549382916
3.503503503503504,250.4785180471564,40.620779799140166,173.90078957942782,100.95499484294024,127.24188261808423,133.5501829073732,209.75181420445185,216.7553778069069
3.5368702035368704,262.8677634089386,42.60275460878286,172.02635397333128,109.10093602590408,128.39153169225364,134.16150255161074,207.9466262335632,215.2265543482508
3.5702369035702373,273.5972480066165,44.56234046671968,169.7742962541607,117.30611573223798,129.64798555470438,134.91892189118798,205.86959504622132,213.50147049592763
3.603603603603604,282.8392458716031,46.43483216105234,169.22809382520734,124.88772301086615,130.8781340199929,135.7648511233721,203.7955081999561,211.5582685739576
3.6369703036369705,290.46077149082333,48.12911801009775,169.03167908669397,132.45378142657077,132.03515119731995,136.8951698658467,201.78349335428905,209.3992465159322
3.670337003670337,305.9470100437708,49.64097504717391,168.71024387114684,138.14772841507985,133.22623711047487,138.17138748933962,199.70229068935544,206.93221983821195
3.703703703703704,317.218340085543,51.41128625996147,168.10177772400098,142.794149544075,134.40382275783276,139.38916529641455,197.62520034059645,204.2303283741433
3.737070403737071,324.3388237088713,52.09145337125674,166.90835461574193,146.08984831359442,135.56566886163336,140.64536060630718,195.5600912945497,201.4471073564794
3.770437103770437,326.94617315651897,52.14724962332095,164.3103321852636,147.80505999609812,136.6948204213825,141.8807774995024,193.5926959716976,198.5810385188951
3.803803803803804,324.71609333390035,52.59201270921098,161.25087214616804,148.1015497910902,137.7708928702865,142.92454169233753,191.7229342137093,195.8459249539169
3.8371705038371706,317.27233827699337,52.491159664802936,160.03293357929422,144.59663160866162,138.75450081035976,143.802660645541,189.9823933519344,193.2949960202324
3.8705372038705375,304.69128581836765,52.02555194240989,156.90206318428795,139.18351410019002,139.6405212569102,144.47268362054578,188.4004540616844,190.975244381476
3.903903903903904,286.8252090729512,50.96976879194261,152.43099254776752,132.4374398342048,140.43762380286086,145.00487861868066,186.9199636524868,188.93308137183803
3.937270603937271,276.99138648008943,49.36875902899745,147.02586423111643,125.14788699060765,141.16784435733794,145.38846610479874,185.55327948881208,187.097855870217
