Time,Left Shoulder Angle,Right Shoulder Angle,Left Elbow Angle,Right Elbow Angle,Left Hip Angle,Right Hip Angle,Left Knee Angle,Right Knee Angle
0.0,25.566359842381885,28.77172953448128,165.5854629790479,172.69772482333272,136.2931914919076,132.57872481121234,195.01802235819488,197.66912784732924
0.0333667000333667,25.076881866959347,28.794684528217164,164.81348716711489,172.43701210146435,136.1251503248732,132.35024056813248,195.3698160793728,197.63093709724168
0.0667334000667334,24.65663411796891,28.811619134751933,164.18166960467494,172.2061613966518,135.9571006626509,132.12129387122076,195.68474156175083,197.61690182951097
0.1001001001001001,24.30185467715987,28.821888579520746,163.68222616548775,172.00313585283584,135.7890767293715,131.89229244612298,195.96530780189764,197.6260263520634
0.1334668001334668,24.008781626281515,28.82484808795876,163.30737272331314,171.82589861395732,135.62111274916572,131.66364401848494,196.21402379638187,197.6573149728251
0.1668335001668335,23.773653047083137,28.81985288550113,163.04932515191086,171.67241282395702,135.45324294616438,131.43575631395245,196.43339854177225,197.70977199972225
0.2002002002002002,23.592707021314023,28.80625819758305,162.90029932504072,171.54064162677574,135.28550154449823,131.20903705817128,196.6259410346373,197.78240174068105
0.2335669002335669,23.46218163072347,28.78341924963965,162.85251111646247,171.42854816635432,135.11792276829806,130.9838939767872,196.794160271546,197.8742085036276
0.2669336002669336,23.37831495706076,28.75069126710609,162.89817639993586,171.33409558663357,134.9505408416946,130.76073479544598,196.94056524906665,197.9841965964881
0.3003003003003003,23.33734508207519,28.70742947541756,163.02951104922073,171.25524703155426,134.7833899888186,130.5399672397935,197.06766496376807,198.1113703271889
0.333667000333667,23.335510087516045,28.6529891000092,163.2387309380768,171.18996564505724,134.6165044338009,130.32199903547544,197.1779684122192,198.2547340036559
0.3670337003670337,23.36904805513262,28.58672536631617,163.51805194026386,171.13621457108331,134.44991840077228,130.10723790813768,197.27398459098828,198.41329193381543
0.4004004004004004,23.4341970666742,28.50799349977364,163.8596899295417,171.09195695357326,134.2836661138634,129.89609158342594,197.35822249664423,198.58604842559365
0.4337671004337671,23.527195203890084,28.416148725816768,164.2558607796701,171.0551559364679,134.11778179720514,129.68896778698604,197.4331911257557,198.7720077869167
0.4671338004671338,23.64428054852956,28.31054626988072,164.69878036440878,171.02377466370805,133.95229967492818,129.48627424446377,197.50139947489137,198.9701743257108
0.5005005005005005,23.781691182341905,28.19054135740065,165.1806645575176,170.99577627923452,133.78725397116335,129.28841868150494,197.56535654061983,199.17955234990208
0.5338672005338673,23.935665187076427,28.055489213811725,165.69372923275623,170.96912392698812,133.62267891004143,129.09580882375528,197.62757131950988,199.3991461674168
0.5672339005672339,24.1024406444826,27.904745064549346,166.23019026388587,170.94178075091102,133.45860871569425,128.90885239686173,197.6905528081317,199.6279600861827
0.6006006006006006,24.33561649495787,27.76899815572706,166.89434910871344,170.9405356971852,133.32003322466844,128.7061905859479,197.73839938530483,199.86603887463505
0.6339673006339673,24.49324083146446,27.67951521186092,167.45880374830105,171.1819589064,133.21194455208138,128.52473732182054,197.8426504228055,200.10712984401053
0.6673340006673341,24.626298810270143,27.56552486165766,167.92592511656866,171.44335506044283,133.07438539923194,128.32975555983958,198.0047879898273,200.4105644152975
0.7007007007007008,24.70040251526148,27.415481099915,168.24076152057157,171.58501847485323,132.9264912821234,128.13729121962646,198.18423221068537,200.717585363356
0.7340674007340674,24.784077247312105,27.197452134913377,168.53866167909874,171.57700715304782,132.76443075819142,127.96359151994126,198.37213746163465,201.0164278445133
0.7674341007674341,24.937694380039503,26.96141430134763,168.8887277200053,171.5377529833965,132.5691852977201,127.81075840825832,198.58587345590004,201.29637250837865
0.8008008008008008,25.109312433693173,26.64364352219026,169.2743540724131,171.36381715645388,132.356412330065,127.68085336644695,198.7982412154272,201.5646049790413
0.8341675008341676,25.276466469382907,26.208725854742937,169.56668349958517,170.99088958350697,132.08218346871874,127.52922596049348,199.0296260770586,201.82302762637863
0.8675342008675342,25.40430400407604,25.708447856671818,169.8299036280217,170.51859581528032,131.79885070888696,127.39149736629452,199.24953606971908,202.08084985846432
0.9009009009009008,25.49616581256019,25.208310963329502,169.90411489906447,170.02981456173012,131.4815295360941,127.25750063603093,199.49276432694845,202.33304240733253
0.9342676009342676,25.570886828327453,24.67805400956798,170.0015791560649,169.44929506855118,131.18310155190406,127.15946852129328,199.7161336640862,202.5627304443757
0.9676343009676344,25.680154790712823,24.17091975768097,169.96821175416923,168.86909901518004,130.901545767358,127.0624438055013,199.90887683810564,202.81352947868552
1.001001001001001,25.788434257072304,23.62952751191997,170.06850920167517,168.1764294003879,130.6606024527757,127.0058636965412,200.05982185276173,203.0375989654927
1.0343677010343677,25.88058682123674,23.05377974214756,170.32309822831252,167.39664629022175,130.4814257741389,127.0012230008894,200.1604154052258,203.21052741218503
1.0677344010677343,25.959496301389333,22.45455041491045,170.78963844296126,166.53598939893118,130.41796043163308,127.0454775513036,200.17356771610875,203.34212925153892
1.1011011011011012,26.019404645400268,21.92328482994653,171.19965688064903,165.76828681624076,130.41220145522175,127.110148741942,200.1721850216772,203.45170656332752
1.1344678011344678,26.041740544429928,21.341863425947484,171.79405451344496,164.86788288912072,130.39823881483164,127.20695433143636,200.18593218629985,203.5212112389552
1.1678345011678346,26.19308368223593,20.70703047049604,172.6937930741785,163.80081983676345,130.49838170879073,127.36486473278572,200.1463891502884,203.5195484528645
1.2012012012012012,26.295598245904,20.010154523473485,173.80019940499338,162.5724634658995,130.6462134788023,127.57028821875046,200.0315473180108,203.4704401143176
1.234567901234568,26.45134001445717,19.34781206916748,175.2524935213651,161.27672479702886,130.74548874717564,127.80963974878148,199.92957838309263,203.39176095193383
1.267934601267935,26.53086305830201,18.61090569796117,176.90105351934855,159.84659822759838,130.79438574617785,128.10577874130715,199.8428242377124,203.2712083060908
1.3013013013013013,26.56206176866721,17.759148997867644,178.22454201808557,158.36435243782634,130.9284632397632,128.46252482390182,199.6768195547127,203.08229940825595
1.334668001334668,26.42918447943334,16.798275887000056,179.5788807571604,156.87700589378633,131.00350250727422,128.84395992928015,199.5564690859924,202.86540673144088
1.3680347013680347,26.214259951641424,15.723243931044305,180.7833514010414,155.28570393043245,131.00317447616348,129.2378415263236,199.4768097970764,202.60622606766844
1.4014014014014016,25.839548076593505,14.573959834380306,182.0513505885442,153.52751425171363,130.89805873352051,129.6481324876025,199.48435888898925,202.3290187372148
1.4347681014347682,25.070896325487983,13.486766944954494,183.50053178956705,151.69194681714612,130.68569813019104,130.07426227718966,199.5736357295524,202.0316604669092
1.4681348014681348,24.13472712119907,12.408149487255953,185.15400773555515,149.7994988884294,130.35093815332243,130.50185198926047,199.7864995925537,201.72503101312145
1.5015015015015016,22.88055453914549,11.296470445496082,186.9967479924336,150.1141247346409,129.84183985461792,130.92199541387836,200.11942332658944,201.41461325304627
1.5348682015348682,21.56790536069601,10.24168729150628,188.6856971552763,149.91951065813058,129.22484564289869,131.32685622397707,200.5431059860333,201.11756662492752
1.5682349015682349,20.07660285070049,9.568926688137651,190.74136778759936,148.50153758293536,128.55719329072676,131.71199603757952,200.9767619496241,200.8334155259104
1.6016016016016017,18.64738675121398,8.930457408591568,192.63058522391145,146.9992449392321,127.83586713097372,132.07153899232244,201.4840110451617,200.5827651848768
1.6349683016349683,17.246350324409764,8.040789379049336,193.9584460601681,145.07854502875983,127.064285338287,132.40466834760116,202.10252667433377,200.3582568227124
1.6683350016683351,16.031384661037563,7.174868347979308,195.16326070015296,142.95915775156223,126.26052253729816,132.72138754193463,202.7887947383525,200.17104223061875
1.7017017017017018,14.896131060536629,6.165169819889464,196.35187296404868,140.28722830444917,125.39092561116856,133.00481086469875,203.551015001295,200.0280229315888
1.7350684017350684,13.96808387441652,5.381803930742566,199.43925027950203,137.60209446215916,124.47396732620962,133.26851070050637,204.45405551812613,199.91605686793588
1.7684351017684352,13.18749511398905,4.895541340856919,201.13484032959067,135.3692633835702,123.54558365591934,133.50049059433277,205.4230992833852,199.8418896074372
1.8018018018018016,12.607683920608508,4.590989563764046,201.4591235134852,133.32026617581087,122.56836330672576,133.68414633320913,206.4329254547723,199.81942114843983
1.8351685018351689,12.50147717248364,4.260419467703715,200.45285063447267,132.93488904397068,121.56536173760368,133.85691871387058,207.4497689468745,199.7783382682688
1.8685352018685355,12.468010521804624,4.064352902314882,198.5159956553373,131.11017194495943,120.53861946107897,133.9753297392747,208.51644578696383,199.8220070253224
1.901901901901902,12.987052161728457,3.899178979987729,196.7926438652173,128.40204850313987,119.45689431407702,134.0617447870273,209.60804604694584,199.89196875998132
1.9352686019352687,13.66715279258018,3.8206261738420175,194.36605683420652,124.62237172369775,118.3988964001124,134.1271856920665,210.69510671300668,199.978242968121
1.968635301968636,13.95101570408739,3.8206261738420175,191.08910810752232,121.41166330062546,117.46757505928386,134.16809550876914,211.74017585256584,200.07689903365053
2.002002002002002,14.29999026129528,3.8206261738420175,187.22570892855344,117.3318545870004,116.66949553764508,134.24101887986222,212.76072335627973,200.185479927716
2.035368702035369,14.66307085177278,3.8206261738420175,182.7774113106446,112.43644926905094,115.98536898354295,134.31320363375528,213.7461711613352,200.28973823477995
2.0687354020687354,15.10139251395131,3.8206261738420175,177.94825577601375,107.24109066357704,115.47338703843003,134.41226250157075,214.64782618719525,200.38042779832304
2.1021021021021022,15.23695542074122,3.8206261738420175,172.08842944062,101.85330825911512,115.0594991709644,134.49312516908446,215.48630107502444,200.48871314351203
2.135468802135469,15.928978899746262,3.8206261738420175,166.83214780006608,96.23699597379976,114.78094701944042,134.60962660729112,216.26693721486512,200.5474039672536
2.1688355021688355,16.469153066192153,3.8206261738420175,161.30642480731268,90.71533884330682,114.63287237563064,134.74680886887057,216.97362536809663,200.5686866420009
2.2022022022022023,17.353729359775883,3.8206261738420175,155.94093403100158,85.26622528016354,114.62795370952648,134.8969199862386,217.6049810226526,200.57926922995856
2.235568902235569,9.66323956733804,3.8206261738420175,149.55067350546705,79.82792874799551,114.71751639363364,135.05152643462748,218.19841026695545,200.5692150797616
2.2689356022689355,4.514291135515268,3.8206261738420175,144.49251589876158,74.28442731370664,114.9122228958108,135.25285748455002,218.6957765011884,200.5053396718932
2.3023023023023024,2.3149343694067044,3.8206261738420175,139.99008455422495,68.8350529089887,115.22379968300734,135.50172245533136,219.0801853717048,200.395688448287
2.335669002335669,2.3149343694067044,3.8206261738420175,135.81372447910294,63.701379472678745,115.5060068828573,135.75312566888158,219.4287681595316,200.2776589461353
2.369035702369036,2.3149343694067044,3.8206261738420175,131.07427937593195,58.64056241691617,115.79448929913912,135.99836028647545,219.81225383102733,200.16243179420863
2.4024024024024024,2.3149343694067044,3.8206261738420175,126.71265002459508,53.95931612174798,116.16282449931067,136.25308002589077,220.1641561397252,200.0147931348669
2.4357691024357693,2.3149343694067044,3.8206261738420175,122.82355858256628,49.86604090373592,116.63123664118284,136.5177372547939,220.4379954576916,199.8260017627873
2.469135802469136,2.3149343694067044,3.8206261738420175,120.04693440372866,46.372984784535625,117.00824174608891,136.76959307773697,220.77837546283413,199.6312199456681
2.5025025025025025,2.6481059501469133,3.8206261738420175,118.1063973395845,43.463450984239785,117.37545334421092,137.02208224986143,221.1254985661333,199.40567249487376
2.5358692025358693,2.6481059501469133,3.8206261738420175,117.23055324908935,41.278506109899126,117.70704734135902,137.26964063985923,221.50360564479607,199.1939803967212
2.569235902569236,2.6481059501469133,3.8206261738420175,117.28972750007132,39.87825777092085,118.01395024769285,137.51936113979508,221.87391692036192,198.96752411076244
2.6026026026026026,2.6481059501469133,3.8206261738420175,118.09103657329138,39.32227882547891,118.30212054684888,137.7488739802393,222.22395921321484,198.7619813706364
2.6359693026359694,2.6481059501469133,3.8206261738420175,119.59039691533783,39.80604279361912,118.566530189846,137.98903713693406,222.5104289006308,198.50844948675223
2.669336002669336,2.6481059501469133,3.8206261738420175,121.74579290800332,38.4491583772226,118.89236815490652,138.22395277118474,222.70628414480944,198.2609595781792
2.702702702702702,2.6481059501469133,3.8206261738420175,125.36905353659203,37.58316413434432,119.10493342049736,138.38889883190706,222.8500787827072,198.03328808308763
2.736069402736069,2.6481059501469133,3.8206261738420175,129.31342100591928,37.90123175552362,119.31624566725846,138.5362693089024,223.015853503348,197.8546994786388
2.7694361027694363,2.6481059501469133,3.8206261738420175,133.14291655109713,38.47562992769425,119.6784405644278,138.70251023014015,223.2001308733309,197.70232593633384
2.802802802802803,2.6481059501469133,3.8206261738420175,137.57250786244683,39.58574873664495,120.07065871576567,138.8629367043822,223.355764746002,197.62229333648327
2.836169502836169,2.6481059501469133,3.8206261738420175,142.10218616838057,41.09985250387727,120.4297148568063,139.065660402897,223.50772098904508,197.5109657637772
2.8695362028695364,2.6481059501469133,3.8206261738420175,146.65588278553466,43.46182998827233,120.80857664694982,139.25926994324448,223.6087155396021,197.46827034436023
2.902902902902903,2.6481059501469133,3.8206261738420175,149.1893460921686,46.208065172802094,121.10662609830256,139.41918294879105,223.59427713556755,197.49721228970444
2.9362696029362696,2.6481059501469133,3.8206261738420175,151.88399649259452,48.95281460168648,121.36991384856272,139.53249039835782,223.536635579633,197.63904082528683
2.9696363029696364,2.6481059501469133,3.8206261738420175,155.352192836056,51.675015774929605,121.46782769820771,139.6566121014939,223.49167174462664,197.7928105770281
3.003003003003004,2.6481059501469133,3.8206261738420175,158.65498428674798,51.93264263785219,121.5881705960088,139.73283321894937,223.438383390914,198.0642670427866
3.0363697030363697,2.6481059501469133,3.8206261738420175,160.9595732147125,51.18888963770896,121.77059319154522,139.79089510792906,223.3652836005965,198.3831226726317
3.0697364030697365,2.6481059501469133,3.8206261738420175,162.25637033767055,50.85673139472611,122.05614024724336,139.79722069131404,223.2737990913943,198.80513595700944
3.103103103103104,2.6481059501469133,3.8206261738420175,157.94768613938874,51.20769192832946,122.4571609197918,139.72166640781234,223.1967245791704,199.35160612469525
3.1364698031364697,2.6481059501469133,3.8206261738420175,154.60701754364254,50.37369782970661,122.8395390411156,139.5830017058014,223.1322589982598,200.0123113197852
3.169836503169837,2.6481059501469133,3.8206261738420175,152.22069296395657,47.905638451621485,123.1306994851766,139.2879795705982,223.168727570887,200.81944234815617
3.2032032032032034,2.6481059501469133,3.8206261738420175,150.64796958787883,46.91042006582808,123.38875713804062,138.99651278168017,223.1960814574276,201.66701051089188
3.2365699032365702,2.6481059501469133,3.8206261738420175,150.87865922373027,45.256089412624895,123.52103710536882,138.6652583440817,223.346332928342,202.6218087305037
3.2699366032699366,2.6481059501469133,3.8206261738420175,152.05835196278136,44.544263604525824,123.68515941025638,138.38445930198932,223.45163687436263,203.5965791157886
3.3033033033033035,6.313869073322104,3.8206261738420175,152.91718412027353,44.32685881414859,123.89351249289064,138.19981529176872,223.48649653007843,204.56838671944607
3.3366700033366703,11.83047022764611,3.8206261738420175,153.80372222328464,44.6468088194525,124.18754387659811,138.07604322851873,223.34154468912456,205.52495399955825
3.3700367033700367,19.12032401541181,3.8206261738420175,154.46046174236224,45.22772952896489,124.52977155032,138.0636788740974,222.98594720453332,206.4425117641748
3.4034034034034035,27.883130815900465,3.8206261738420175,156.34102156126534,46.498460710391086,124.95154957536498,138.09837320284447,222.41938358867424,207.32260263207115
3.4367701034367704,37.99742698954352,3.8206261738420175,157.57942100551662,48.16873173731307,125.4649079292678,138.1959834570281,221.7011754541522,208.1264309813437
3.4701368034701368,49.16063387087655,3.8206261738420175,158.67241315954718,50.48154755073014,126.1186581451684,138.28975633312004,220.83598264548064,208.8980570633157
3.503503503503504,61.22621916243741,3.8206261738420175,159.7525306897766,53.02051477981637,126.72908716932317,138.27037822773272,219.9656839898265,209.7124581406523
3.5368702035368704,74.30478752010325,3.8206261738420175,161.79894338444055,56.5282206064097,127.41928395479904,138.23113992448123,218.95448808345125,210.4501652172478
3.5702369035702373,88.18306650463217,3.8206261738420175,164.05298142770073,60.53934526070578,128.2525514792033,138.20258062615235,217.75684179859329,211.1202070887865
3.603603603603604,102.9009736332596,3.8206261738420175,166.33316592763634,65.22696728382253,129.13143025650305,138.15705363377555,216.4556902910812,211.6913021000916
3.6369703036369705,117.8168290414969,3.8206261738420175,169.1604647401469,70.34091924252671,129.9692252908911,137.99548606810632,215.1716813852888,212.23333129060933
3.670337003670337,133.03521388855955,3.8206261738420175,171.74563181857954,76.01608608783363,130.81095653679228,137.82983262467556,213.80509049480443,212.66421686777463
3.703703703703704,148.54198221383663,3.8206261738420175,174.6853921182946,82.29187839934261,131.58368335243955,137.7863048569125,212.4584322566644,212.9278327101557
3.737070403737071,164.30812140683315,3.8206261738420175,177.14228514054383,89.1204072200523,132.3731920040518,137.7890285120344,211.02129302288736,213.03865843794568
3.770437103770437,180.07300635936312,3.8206261738420175,178.82318739146362,96.41889196202924,133.16009323117248,137.81389739525585,209.5192608861356,213.0215999335624
3.803803803803804,195.80657627263983,3.8206261738420175,180.1547876842274,104.05890999692971,133.9166350555277,137.83911331305197,207.97619266520223,212.91626639519976
3.8371705038371706,219.99930415310072,3.8206261738420175,182.1814253573741,112.708474263015,134.61111605107266,137.8692144680822,206.3582180715823,212.67966198474105
3.8705372038705375,241.16559724479745,3.8206261738420175,183.5337069333759,120.97045923525816,135.4425056612535,138.00068266361808,204.73180484110748,212.3142014307373
3.903903903903904,259.94335371605337,3.8206261738420175,184.25278614659248,133.14230386173355,136.2850378379703,138.20025881877456,203.1348203134814,211.8235502303636
