Time,Left Shoulder Angle,Right Shoulder Angle,Left Elbow Angle,Right Elbow Angle,Left Hip Angle,Right Hip Angle,Left Knee Angle,Right Knee Angle
0.0,30.93745480863088,44.90026217736288,161.115253741075,174.66749805100133,131.43642955661642,125.08163215586596,197.92627915279817,211.27514043949023
0.0333667000333667,30.73672514553278,44.58096133530277,161.14834335377645,175.07321132698772,132.00850407040522,126.01095854911812,197.6540227293387,210.7790031893124
0.0667334000667334,30.572157829426764,44.28045012180321,161.19277445416782,175.40535974204218,132.48723916425965,126.81470908729196,197.4145322030756,210.359139689166
0.1001001001001001,30.44227660857988,43.997665364613326,161.24988160215983,175.66688483052047,132.87783395072844,127.4997059171422,197.20591393760407,210.0108493754012
0.1334668001334668,30.345605231259164,43.73154389148223,161.3209993576632,175.86072812677844,133.18548754236036,128.07277118542356,197.02627429651952,209.72943168436845
0.1668335001668335,30.280667445731662,43.481022530159024,161.40746228058862,175.98983116517184,133.41539905170418,128.5407270388908,196.8737196434172,209.51018605241816
0.2002002002002002,30.24598700026443,43.24503810839282,161.5106049308468,176.05713548005647,133.57276759130863,128.91039562429862,196.74635634189235,209.3484119159006
0.2335669002335669,30.2400876431245,43.02252745393272,161.63176186834843,176.06558260578814,133.6627922737225,129.1885990884018,196.6422907555403,209.2394087111661
0.2669336002669336,30.261493122578923,42.812427394527866,161.77226765300426,176.01811407672258,133.6906722114945,129.382159577955,196.5596292479564,209.17847587456512
0.3003003003003003,30.308727186894743,42.61367475792734,161.933456844725,175.91767142721568,133.6616065171734,129.497899239713,196.49647818273573,209.1609128424479
0.333667000333667,30.380313584339,42.425206371880265,162.11666400342128,175.76719619162313,133.58079430330795,129.54264022043054,196.45094392347377,209.1820190511648
0.3670337003670337,30.474776063178744,42.24595906413575,162.3232236890039,175.5696299043008,133.45343468244693,129.5232046668623,196.4211328337657,209.2370939370662
0.4004004004004004,30.59063837168102,42.0748696624429,162.5544704613835,175.32791409960444,133.28472676713906,129.4464147257631,196.40515127720693,209.3214369365024
0.4337671004337671,30.72642425811287,41.91087499455084,162.8117388804708,175.04499031188985,133.07986966993312,129.3190925438876,196.40110561739263,209.43034748582377
0.4671338004671338,30.88065747074134,41.752911888208665,163.09636350617654,174.7238000755128,132.84406250337787,129.14806026799056,196.40710221791807,209.55912502138068
0.5005005005005005,31.051861757833475,41.59991717116549,163.4096788984114,174.3672849248291,132.58250438002202,128.9401400448267,196.42124744237867,209.70306897952344
0.5338672005338673,31.23856086765632,41.45082767117045,163.7530196170861,173.9783863941946,132.3003944124144,128.70215402115076,196.4416476543696,209.8574787966024
0.5672339005672339,31.43927854847716,41.304580215972976,164.12772022211254,173.56004601796644,132.00293171310472,128.4409243437185,196.4664092174877,210.01765390896963
0.6006006006006006,31.63819417998177,41.09660293813355,164.50299498779273,173.03528709893493,131.75859627809157,128.20302446512227,196.435598667674,210.11867833443205
0.6339673006339673,31.864737335543182,40.939465920646434,164.9144829764636,172.59180609045828,131.4812269003265,127.92676596272187,196.3944686948635,210.2717719228397
0.6673340006673341,32.125376153613594,40.83439818953872,165.41751656852756,172.19532057645733,131.18717725501963,127.63728586331597,196.3720843166304,210.42025176111747
0.7007007007007008,32.36754140565726,40.75241184383664,165.9298767125433,171.7773738137809,130.94552239504074,127.34386338310544,196.31588444630452,210.5475362317856
0.7340674007340674,32.61818566518584,40.67350220656389,166.49252732891833,171.3244903264843,130.7238223393462,127.06186171251146,196.26170814986176,210.6501302917365
0.7674341007674341,32.88842941787475,40.60375176282976,167.12696355128818,170.86828582321516,130.57573183243937,126.76087459684044,196.15131863037868,210.7778997537631
0.8008008008008008,33.16817452979213,40.50762600870334,167.84422177509416,170.3254378789145,130.45794899399573,126.48673472423712,196.0842062026382,210.88555718871245
0.8341675008341676,33.44267060592945,40.3616975405253,168.61811466605755,169.67797151587797,130.35032849861562,126.26395028207725,196.02179716605497,210.97901911238452
0.8675342008675342,33.734301326136,40.19537416184086,169.39134732758026,169.04301470100165,130.2240475507741,126.09941798435294,195.97900983752248,210.9801239999649
0.9009009009009008,34.02683126076957,40.039557972143164,170.21552389367088,168.43927164569448,130.06615482416396,126.0357532188986,195.97783578108053,210.90833203893965
0.9342676009342676,34.302820605112124,39.8286170761504,171.09470037728593,167.8393187458537,129.89925221219113,126.07786830290186,196.0144641063461,210.7667904943357
0.9676343009676344,34.45800659722943,39.60406131653709,171.7689914185593,167.24776316346112,129.6813721098656,126.18902637676952,196.1350497990983,210.55493765888048
1.001001001001001,34.50783418073544,39.331780830868425,172.08331517038343,166.70773200589323,129.4858006561169,126.39336775326927,196.2966261559652,210.2761999007468
1.0343677010343677,34.531840902944644,38.99345688537728,172.46288674060588,166.0912111643627,129.29656499461922,126.67314779494416,196.51896322602883,209.96617489781167
1.0677344010677343,34.52719745509879,38.59868911253921,172.76734173130458,165.49880290879557,129.10948779598723,127.0529142631338,196.79769356460383,209.57988097643525
1.1011011011011012,34.4857355531596,38.21583462466869,173.0327433820987,164.9515045198876,128.945099219216,127.4951090497342,197.07991095073808,209.1615735807289
1.1344678011344678,34.4902445078764,37.82026001462343,173.0166569209623,164.47089911407917,128.7640290884094,128.02611051865577,197.41005740433084,208.6683234293032
1.1678345011678346,34.554956939681574,37.353708050369534,173.68004125323165,163.90408679299958,128.5415305984414,128.59303800522184,197.77457188822885,208.15019430463505
1.2012012012012012,34.59708463598504,36.838336164218205,174.69200107804258,163.39878865052867,128.1901577057023,129.1999166013659,198.247108692167,207.62359716306648
1.234567901234568,34.60033690211896,36.23711150753597,176.05542593848767,162.86813674578434,127.68966534148092,129.8578675754472,198.8887945173609,207.07547283252887
1.267934601267935,34.593583508348985,35.47004838553185,177.71296196364256,162.16673246231113,127.13396353238086,130.56135271796992,199.56271484872167,206.49868705694743
1.3013013013013013,34.39695433674061,34.60515522226779,179.1433366952391,161.53607981160212,126.57854987533467,131.3268982516889,200.25779115106647,205.90272801167632
1.334668001334668,34.16326683962209,33.61932797091941,180.6104076696422,160.77087154091183,125.9852689960224,132.07034086907635,201.0182320750627,205.362489132748
1.3680347013680347,33.976780061778705,32.52819631312831,181.2826403362937,159.99174285431988,125.36927569146572,132.8779255112445,201.81581877638607,204.7866402513923
1.4014014014014016,33.77806766527754,31.29080937682605,182.1690179444888,159.12282034831173,124.74405039574458,133.73892754552782,202.6076878097048,204.18176847756905
1.4347681014347682,33.37483098229748,29.908125016178253,182.7881996816172,158.11237658829387,124.1256588119337,134.61891029426235,203.4153591965825,203.5771113071892
1.4681348014681348,32.579174646343375,28.46642547261144,183.75865141176263,157.47663838170024,123.51191037624996,135.47056631546042,204.21546896364583,202.9862377418404
1.5015015015015016,31.357441790403843,26.802491953124694,185.487656955847,156.90069556555127,122.92157390182044,136.3232076359848,204.96768356635684,202.37661575596044
1.5348682015348682,30.02203829607806,25.083422017543043,186.95231080620687,156.0297925566903,122.3219752652051,137.16112666944048,205.69738620728765,201.77881215507287
1.5682349015682349,28.55616575666472,23.283684233780136,191.0825648326503,154.95706121743592,121.69874866567658,137.98617438828026,206.39829802444103,201.19009205364324
1.6016016016016017,27.16083074477365,21.39883292580487,194.70673519551207,153.7319336572495,121.06742125728113,138.7628682483118,207.07630594105385,200.6553235171924
1.6349683016349683,25.791890472908,19.438789680468545,197.80438641704384,152.19421939279331,120.45277434005487,139.48019423803723,207.70310478564528,200.1780521288478
1.6683350016683351,24.430706329537,16.930928502039283,200.3501233721832,150.7296174584082,119.88232534811242,140.14036722618386,208.2566856647624,199.7550446739734
1.7017017017017018,23.00193072536259,14.480329407593436,202.31745010004747,148.8859601086732,119.34356180743144,140.7245406560397,208.79038056400387,199.3862663219944
1.7350684017350684,21.495946069489616,12.849959217477862,203.39333985665104,146.31536149025632,118.83564756740628,141.24999930920674,209.31333913733343,199.0586336937193
1.7684351017684352,19.82340240777112,11.033368404039336,203.56554181665248,143.63520516115932,118.42561482808324,141.74267132425382,209.78642345304183,198.72030297549563
1.8018018018018016,18.14229804733868,8.929991728374675,202.87040963917968,138.52189546271944,118.14258808790994,142.18903426456052,210.13896116824964,198.37299994725484
1.8351685018351689,16.574749687444804,7.130208728030202,201.4936136036584,134.29111921123717,117.99013563212588,142.57560561740647,210.36666028381256,198.06126877691256
1.8685352018685355,14.959933631661542,-3.589258490067512,199.3026689256956,129.25405492971868,117.89499938643937,142.88986678293313,210.5616165040495,197.80475296383003
1.901901901901902,13.386249729816532,-2.346449071390116,196.38582256944872,125.75417901180164,117.88917067128392,143.13271979589248,210.6897005321264,197.5790869953757
1.9352686019352687,2.3871989389742376,0.4045360307041412,192.8560726803291,123.53966329586687,117.84043597457558,143.31570757619767,210.87742035480125,197.33559394527583
1.968635301968636,2.3871989389742376,3.35253881510209,188.75235361238805,121.01520711884736,117.77034102651577,143.45850524384957,211.03979206273416,197.1036977601269
2.002002002002002,2.3871989389742376,3.35253881510209,184.14045025792464,118.02195637401826,117.62950584359156,143.4898209988053,211.2436915015895,196.8531384990582
2.035368702035369,2.3871989389742376,3.35253881510209,179.2357936886983,114.67819839622764,117.440069721046,143.4722936435006,211.4651418840394,196.6537481696361
2.0687354020687354,2.3871989389742376,3.35253881510209,174.10681096185186,111.11178823214888,117.2523706722037,143.3858262404258,211.6590517179405,196.4872055298498
2.1021021021021022,2.3871989389742376,3.35253881510209,168.96473872789232,107.10727953433856,117.02830251819675,143.22891667743482,211.8601412947415,196.34945496823028
2.135468802135469,2.3871989389742376,3.35253881510209,163.90612564614798,103.13204316064189,116.86512899162884,143.07030300180128,212.00875095303184,196.2405657402167
2.1688355021688355,2.3871989389742376,3.35253881510209,159.2699494042954,99.03858388584553,116.6854312165875,142.89534442589192,212.18517516563125,196.1670185427384
2.2022022022022023,2.3871989389742376,3.35253881510209,154.87585048183905,94.7790741564635,116.49739936685836,142.7352384392167,212.3934419164996,196.08924671247576
2.235568902235569,2.3871989389742376,3.35253881510209,151.0369603662626,90.96547483310786,116.30559316041654,142.5549426438169,212.60766963515172,196.04627828345457
2.2689356022689355,2.3871989389742376,3.35253881510209,147.90023775657068,87.80455845917042,116.1294769589206,142.39966157332466,212.82635040438,195.9772265196133
2.3023023023023024,2.3871989389742376,3.35253881510209,145.85139298189063,85.16908197479555,115.95828506163474,142.251602458384,213.0402839338998,195.93780537417584
2.335669002335669,2.3871989389742376,3.35253881510209,144.069627079679,82.91379478766164,115.80031891478905,142.1223123919155,213.2676200892002,195.896370370012
2.369035702369036,2.3871989389742376,3.35253881510209,142.4207365943991,80.89194759255506,115.6847021182866,142.013959663861,213.4822322976264,195.87933873555843
2.4024024024024024,2.3871989389742376,3.35253881510209,140.97662814519637,79.12528021026006,115.62581195496372,141.92121329057557,213.67208085743096,195.8774192777213
2.4357691024357693,2.3871989389742376,3.35253881510209,139.70845968329877,77.72210231158562,115.6669699223267,141.85653714830144,213.8175917164095,195.8988554692412
2.469135802469136,2.3871989389742376,3.35253881510209,139.02674377379623,76.5892418922849,115.70399261894018,141.7961857087708,213.99028010376816,195.95199509032884
2.5025025025025025,2.3871989389742376,3.35253881510209,138.71043978218535,75.88101361356756,115.71351290009191,141.77195280445727,214.1703392947772,195.98521917524323
2.5358692025358693,2.3871989389742376,3.35253881510209,139.76987181270525,75.53328237626361,115.6940902484766,141.7335192976561,214.35093840565412,196.0567757964054
2.569235902569236,2.3871989389742376,3.35253881510209,141.52781346519595,75.66659973996393,115.65584345844694,141.68987518455782,214.53975507950625,196.16342133192123
2.6026026026026026,2.3871989389742376,3.35253881510209,144.52979382714275,76.26512723826723,115.59048015217633,141.6355554974179,214.72042412507253,196.29710045809
2.6359693026359694,2.3871989389742376,3.35253881510209,148.3223664485477,76.80629604838802,115.5168132722402,141.59710348004924,214.88062026385413,196.44218179097115
2.669336002669336,2.3871989389742376,3.35253881510209,152.48658998767772,77.27811783915993,115.43035271841664,141.58958118427344,215.04598252669768,196.5890109944428
2.702702702702702,2.3871989389742376,3.35253881510209,158.1048907032557,78.02449949890251,115.3519244236881,141.61296065667534,215.19192750233404,196.7318441225208
2.736069402736069,2.3871989389742376,3.35253881510209,161.08098195098964,78.78615915514047,115.2795110630234,141.6348405190101,215.3578542517408,196.89214376675923
2.7694361027694363,2.3871989389742376,3.35253881510209,163.3624814965723,79.42187333990408,115.2204705627406,141.66962702543972,215.5253973106836,197.04046623691104
2.802802802802803,2.3871989389742376,3.35253881510209,165.07333035133894,80.04764566203774,115.17985994183076,141.72496490493867,215.70024162157355,197.16000531728
2.836169502836169,2.3871989389742376,3.35253881510209,166.28930675111835,80.02909378424162,115.1347325955408,141.78522105181153,215.8833067909288,197.25401707354783
2.8695362028695364,2.3871989389742376,3.35253881510209,166.78781822638524,79.72283024485269,115.1063602118093,141.84827378229602,216.05338098410417,197.3259778147544
2.902902902902903,-4.88278201979845,3.35253881510209,166.80591259452353,79.549397199416,115.08386896010192,141.90837622675042,216.21854673163628,197.3630413747187
2.9362696029362696,-8.658169570796044,3.35253881510209,166.52988306669616,78.93715613273497,115.05008967566192,141.9408165545079,216.3667212386956,197.3970284175726
2.9696363029696364,-9.245341601737405,3.35253881510209,165.96799684187692,80.81117138866355,114.99703311371115,141.9554171960047,216.513242051754,197.4048870437338
3.003003003003004,-7.0099701675471335,3.35253881510209,164.90821281413668,82.26543940559354,114.90636845520058,141.91363771929073,216.6584085877289,197.41572641845644
3.0363697030363697,-2.2803068590324003,3.35253881510209,163.6867770972965,85.21764626062843,114.78615357764676,141.82205455562195,216.7812000037721,197.4350906341384
3.0697364030697365,4.650401751069293,3.35253881510209,162.34167837318705,87.26942942216036,114.59442247468031,141.71412485629065,216.9385583751013,197.41946804313025
3.103103103103104,13.626534763339912,3.35253881510209,160.86031549361405,87.8400910033364,114.37884316391532,141.61274606606403,217.09186870346025,197.4005881215692
3.1364698031364697,24.42600055068456,3.35253881510209,159.3080043302403,88.07604350272453,114.13259276481637,141.51612536125003,217.2610929847514,197.3461142102516
3.169836503169837,36.80143556787903,3.35253881510209,157.95356259075672,88.25878676694072,113.94671193698524,141.46478961754852,217.4141393356359,197.3026131087496
3.2032032032032034,50.51385544433522,3.35253881510209,156.75051643640228,88.15949781226367,113.83581117674048,141.46637002588895,217.57145695451345,197.20297643015755
3.2365699032365702,65.28954253902043,3.35253881510209,155.7373123658288,87.8230401546945,113.80030215433584,141.5455018674298,217.70734553084063,197.0496506061928
3.2699366032699366,80.90967967717444,3.35253881510209,154.86885436383983,87.68611277977561,113.88041808243086,141.7368340262911,217.7344308961768,196.83131845483427
3.3033033033033035,97.33851559769136,3.35253881510209,154.08072632648134,87.5803111295436,113.99371515726467,142.11883333590873,217.8073200744101,196.39281878777064
3.3366700033366703,114.28692297136786,6.367259268028211,153.47339604800408,87.50368841692355,114.1220798047527,142.57878550755163,217.9266485591988,195.9437478916113
3.3700367033700367,131.3244442315982,9.412082277648777,153.09667509773303,87.67418814836925,114.23925816768724,143.06312867965482,218.0664546403841,195.53305190296888
3.4034034034034035,148.44197366610183,12.56837112170972,152.9712550979751,88.06560806684494,114.35593194448438,143.53148467125598,218.22550568674453,195.15995443662587
3.4367701034367704,165.34589996977624,15.509406949624394,152.87676428257433,88.45793815862226,114.47308905618848,144.03506894401312,218.3974234079648,194.7030077703845
3.4701368034701368,181.7466265728321,18.63677610559947,153.1169292549094,88.52858334787801,114.56938174619808,144.47043421291949,218.6773301003161,194.3665562406854
3.503503503503504,197.3735751549364,21.78728780915296,153.14370163168832,89.44449106596545,114.48494854680564,144.72017103777577,219.10859260295643,194.2906695413737
3.5368702035368704,212.1690559794404,17.133070473035172,155.10090426848646,88.16948024965151,114.08517813254844,144.72873321042982,219.57537637745145,194.55299688648435
3.5702369035702373,226.18597583827696,15.301976906710244,157.27574964944822,88.06725455757712,113.89294659150625,144.57043331601082,220.00726900582703,195.1627764863164
3.603603603603604,239.28655724937383,15.787493770677983,158.74546552109666,88.65395657233253,113.78044125289615,144.24240696010614,220.34683425969223,196.0061021295547
3.6369703036369705,250.9040201442645,18.326478796011592,153.8569057281099,88.76206423622861,113.570570022327,143.72447887806737,220.59916164585383,197.06871059322668
3.670337003670337,261.3938652994359,23.016652699302576,158.08255633068768,89.36555133668416,113.54472618146264,143.06526614139818,220.72807616362235,198.31292958409884
3.703703703703704,270.66845615453207,29.75305348021582,159.34215489694063,89.05315782681214,113.48441895302534,142.29438898336377,220.8129729520395,199.78756207796164
3.737070403737071,278.4189064518698,38.30743129498661,159.61349119611748,87.92831404076898,113.4376055940214,141.30617806718905,220.8776562213064,201.46996306298016
3.770437103770437,284.35160407552024,48.41898521128806,155.05478262102292,86.36861951879828,113.38096476330256,140.1462758222507,220.9218897134564,203.30943721671403
3.803803803803804,288.3934613562306,59.79495072176441,151.42857885081082,85.24847525525108,113.44160156866806,138.9454942235517,220.72466945246904,205.34333872876675
3.8371705038371706,290.4798483924565,72.3004852188802,147.99694183615867,84.51024533310596,113.59992887914802,137.6949668855675,220.4088779764872,207.5017516824633
3.8705372038705375,290.538294781696,85.65473582694334,144.4984713598083,83.70778346160893,113.71261616349447,136.38570775330865,220.121409594301,209.76988069307671
3.903903903903904,288.498166109378,99.6070973693292,141.183570815114,83.03759091730252,113.95029552909747,135.05391893616442,219.9105918297805,212.07975401144355
3.937270603937271,284.0429463129415,114.0315518194113,138.61645060330034,82.60132692087744,114.30389791424552,133.72381628243932,219.44336816677395,214.3744898507824
