Time,Left Shoulder Angle,Right Shoulder Angle,Left Elbow Angle,Right Elbow Angle,Left Hip Angle,Right Hip Angle,Left Knee Angle,Right Knee Angle
0.0,24.27796180763119,28.030295636066693,168.68844970004048,155.43259942845668,134.11797859118593,146.40930649495792,210.4551482836399,204.2197950178728
0.0333667000333667,23.87789830879402,27.055295449727115,168.74694755094345,152.52579821366152,134.04730478502285,147.55040286988287,211.1225019420827,203.48841215360508
0.0667334000667334,23.608496207668928,26.14170522579177,168.88137737678383,149.94217909859307,134.04124649183356,148.53421039415224,211.59592210525267,202.9063645843228
0.1001001001001001,23.45936621731203,25.288479936724883,169.08599757021167,147.6697493859235,134.09269687499494,149.37027148816782,211.8907244685989,202.46299419101177
0.1334668001334668,23.42011905077944,24.494574554990628,169.3550665238769,145.6965163783249,134.1945490978839,150.06812857233143,212.0222247275705,202.14764285465805
0.1668335001668335,23.480365421127274,23.758944053053213,169.68284263042952,144.01048737846943,134.3396963238773,150.63732406704486,212.00573857761648,201.9496524562476
0.2002002002002002,23.62971604141165,23.08054340337683,170.06358428251949,142.59966968902924,134.52103171635198,151.0874003927099,211.85658171418592,201.8583648767664
0.2335669002335669,23.857781624688688,22.45832757842569,170.4915498727968,141.4520706126765,134.73144843868485,151.4278999697284,211.59006983272795,201.86312199720035
0.2669336002669336,24.154172884014503,21.89125155066398,170.96099779391147,140.55569745208325,134.96383965425278,151.66836521850212,211.22151862869163,201.95326569853543
0.3003003003003003,24.508500532445208,21.37827029255591,171.4661864385134,139.89855750992174,135.21109852643264,151.8183385594329,210.766243797526,202.11813786175776
0.333667000333667,24.91037528303692,20.91833877656568,172.00137419925267,139.4686580888641,135.46611821860128,151.88736241292253,210.23956103468012,202.34708036785312
0.3670337003670337,25.349407848845765,20.510411975157467,172.56081946877916,139.25400649158237,135.7217918941356,151.88497919937285,209.6567860356032,202.6294350978076
0.4004004004004004,25.81520894292785,20.15344486079549,173.13878063974292,139.2426100207488,135.97101271641247,151.8207313391856,209.03323449574413,202.9545439326071
0.4337671004337671,26.29738927833929,19.846392405943945,173.72951610479387,139.42247597903548,136.2066738488088,151.70416125276265,208.38422211055217,203.3117487532376
0.4671338004671338,26.785559568136204,19.58820958306703,174.32728425658206,139.7816116691146,136.4216684547014,151.54481136050578,207.72506457547627,203.69039144068512
0.5005005005005005,27.26933052537472,19.377851364628945,174.92634348775744,140.30802439365823,136.60888969746716,151.35222408281678,207.07107758596555,204.0798138759356
0.5338672005338673,27.73831286311093,19.214272723093885,175.52095219096995,140.98972145533855,136.761230740483,151.13594184009747,206.437576837469,204.469357939975
0.5672339005672339,28.1821172944012,19.09642863092624,176.1053687588711,141.81471015682882,136.87158474712686,150.90550705275095,205.83987802543749,204.848365513791
0.6006006006006006,28.40721022559763,19.200551172269016,176.54049448960998,142.83815482868425,136.78809484357112,150.8197300427613,205.5863823982176,205.0079956482874
0.6339673006339673,28.64363581769541,19.265520618747345,176.99314424972965,143.9260990441957,136.5474775948835,150.74440890706643,205.4510097351083,205.1318209280651
0.6673340006673341,28.85104462035499,19.352886143612505,177.4055853918223,145.07610585806472,136.23611867476478,150.6710893968786,205.38597710320823,205.22740113640072
0.7007007007007008,29.033396285672964,19.51520437538628,177.72973025477532,146.34289254008326,135.82196261474613,150.57794035913628,205.4245028094228,205.29921030025923
0.7340674007340674,29.149107001636523,19.744396180780523,178.0701664957559,147.81415330409325,135.3870921835823,150.4841454345276,205.5730431543112,205.3274368390624
0.7674341007674341,29.233176921364866,19.96794193813103,178.4222236048272,149.26767005909048,134.87142561109442,150.37228335589396,205.8119950471948,205.32296377677125
0.8008008008008008,29.26261531822847,20.24449015742637,178.8448946150544,150.75479605552488,134.3290174669164,150.2714395969469,206.0824413327188,205.2861255089684
0.8341675008341676,29.25552766362089,20.343612553027672,179.28247072792252,151.94818437891746,133.75544250203797,150.22123541400305,206.39722655465337,205.2166295364025
0.8675342008675342,29.12645098116311,20.48677086853037,179.76911399653568,153.236063174576,133.2008792706993,150.22182011542264,206.75120248288755,205.07490882697223
0.9009009009009008,28.885818856891056,20.61100932505624,180.1925297862428,154.59724314188816,132.65217114784392,150.2813497414085,207.17472825606373,204.9221861291377
0.9342676009342676,28.485511856618896,20.637592800066425,180.4923324790705,155.98172646895495,132.15699395687662,150.42091276573146,207.59709633333512,204.71972502057827
0.9676343009676344,27.87141685394799,20.54168126605161,180.74610406026468,157.2944125367838,131.70790406005696,150.6359032795458,208.02900623185764,204.45165518501545
1.001001001001001,26.985768890481378,20.445364239906247,180.85544506272248,158.38848615162237,131.29450232951598,150.83685340478922,208.4501115205708,204.15405844228223
1.0343677010343677,25.85453964620065,20.289893880844684,180.99171871432227,159.4458797725833,130.96055825934565,151.12768637537928,208.8697560906776,203.78616816024424
1.0677344010677343,24.542481751612183,20.09100515439616,181.1907511218556,160.58813744161327,130.69077224128165,151.51083840351728,209.2893452014772,203.3471696754896
1.1011011011011012,23.05537584797995,19.58313436081793,181.48557361704363,161.3589009456067,130.47711233619867,152.03917255190407,209.709175363881,202.8467675480804
1.1344678011344678,21.46561352911885,18.856834077925747,181.8312318437991,162.15106283039674,130.3262076392896,152.68007845742173,210.1236863967945,202.31049829930927
1.1678345011678346,19.744802094306813,17.975159312252426,182.03930946122483,163.35595252502495,130.22244309699,153.42157633973534,210.53294413680047,201.74411662370687
1.2012012012012012,17.97422260783824,17.021005707058,182.1269880054126,164.4088456826707,130.1430751215502,154.2415360294363,210.9226689801446,201.1429225441873
1.234567901234568,16.360667086486156,15.89846002428917,182.047009128299,165.29445471048945,130.0663097427329,155.12627372925934,211.2379971716292,200.4948885797944
1.267934601267935,14.840129924032654,14.76435951883662,181.9703983502468,166.4804121246741,130.01824296318344,156.10235515073268,211.51697401436456,199.7838819935314
1.3013013013013013,13.304049696312113,13.615439135536464,181.4244413568344,167.7115488980449,130.02121249640257,157.16028684795825,211.7347348006973,199.02949492429624
1.334668001334668,12.027492132357056,12.467958542263409,180.8667723773557,168.87907492318146,130.28730319151992,158.10902896089175,211.59357532893543,198.6478677143857
1.3680347013680347,11.188374434834447,11.251273906942467,180.3688375972509,169.3327022565166,130.9822238547549,158.26338707632823,211.2135174019305,198.59452414962453
1.4014014014014016,10.240678207917988,10.232780182054888,180.37430969009924,169.29068015149025,131.48803854476665,158.72923108251496,210.71285836809736,198.42819476936825
1.4347681014347682,9.753130221584009,8.969120984102856,180.0187902847726,169.82641469710958,132.05356057062386,159.14921847202206,210.2759482619594,198.5220453231589
1.4681348014681348,9.517207133611493,7.73703520245353,179.5598380759918,170.60799278710843,132.58453418856175,159.7398863524882,209.7164765864304,198.36352975466585
1.5015015015015016,9.207905700080072,6.646307508801474,179.6053121296203,171.32542897437892,133.0308065091757,160.42915156895896,209.3619376483265,198.02949871562245
1.5348682015348682,9.379635365435004,5.79807710298383,178.86158095452433,171.94152287065594,133.4947605214749,161.1068783822457,209.0261020303101,197.66016487609284
1.5682349015682349,9.560085307320742,5.3530333645625525,178.7164409409418,172.73540324717388,133.93115213551283,161.76815682083642,208.70119618030887,197.28586780208184
1.6016016016016017,10.02580979007509,5.088087538183764,178.5895969639278,173.71589743019297,134.35561840550977,162.33426249695685,208.45639451824377,196.93328636686965
1.6349683016349683,10.787335700647851,5.004470340137678,180.04672982147514,175.0967889195148,134.72483547330512,162.80190850480105,208.2295430655587,196.61315306651608
1.6683350016683351,11.954611133497902,5.026795056565149,181.4219301304791,180.89742283678345,135.08247660100068,163.2441510438771,208.0756689040824,196.2736623130265
1.7017017017017018,13.525777892635457,4.998800059370208,182.4782531351655,185.6934929428869,135.37207067258038,163.63994700670503,208.0266058062138,195.9328286821984
1.7350684017350684,15.033066933517226,4.998800059370208,182.98228079011585,189.60451124691951,135.55221665502967,163.96599365618394,208.12050991252025,195.60959451025863
1.7684351017684352,17.316181335455713,4.998800059370208,184.4340181257582,192.8122158646333,135.67095650443434,164.23715840099757,208.27065417111552,195.29194628332093
1.8018018018018016,19.215770862155605,4.998800059370208,184.435523838328,195.0460426804016,135.84074290938895,164.4632645167627,208.418356001761,194.9805034816419
1.8351685018351689,21.14135351160855,4.998800059370208,183.9750864819964,196.41303532177923,136.00839758439852,164.6378495852853,208.5886303410832,194.675185671719
1.8685352018685355,14.970136385676824,4.998800059370208,183.4263650268257,196.94897087138867,136.22195204551173,164.7705164306897,208.7412048346718,194.3702411347984
1.901901901901902,11.898807308240476,4.998800059370208,182.7127418067984,196.61270022474503,136.3659873255762,164.79734626333226,208.85902979785328,194.09664881115867
1.9352686019352687,19.34967240421645,4.998800059370208,182.6977956336696,196.74599666019168,136.62423367775955,164.9402195279406,208.46585618221707,194.03278785436177
1.968635301968636,18.837138804199167,4.998800059370208,182.1822135299797,194.5185408066258,136.86848708918123,164.85114287450835,208.42740761120712,193.8805824403992
2.002002002002002,20.6714159941073,4.998800059370208,181.2746659764229,191.9033789674621,137.17618784808573,164.65289347485208,208.48609636035783,193.6514809649904
2.035368702035369,24.562784274287992,4.998800059370208,179.80270349166057,188.70167925127308,137.59291406397674,164.47047062632694,208.63536590181312,193.3963482368364
2.0687354020687354,30.24840701932761,4.998800059370208,178.18039320005315,185.06857325543905,138.0773855658436,164.2630385456646,208.75965064654585,193.0942126011693
2.1021021021021022,37.35867074699832,4.998800059370208,176.71498842018696,181.38153225601013,138.58104007266584,164.09187626008753,208.8688486423192,192.73575949411315
2.135468802135469,45.850464562686206,4.998800059370208,175.04561451342028,177.43314970979213,139.12511159014005,163.94264928815684,208.9215648621538,192.36233903231275
2.1688355021688355,55.99060888308384,4.998800059370208,173.43072906552726,173.54783426156175,139.69531456938046,163.89161451122698,208.9385410249244,191.95334965932304
2.2022022022022023,67.19207351813174,4.998800059370208,171.8987255702538,169.23410566843626,140.25552846302952,163.8821164337687,208.93533160001263,191.5574043023928
2.235568902235569,79.20842199633397,4.998800059370208,170.3722665168644,164.8767453339891,140.80936978022947,163.89493184883773,208.91711399658325,191.1747230930848
2.2689356022689355,92.13448016777546,4.998800059370208,168.62519546068188,160.1460845712133,141.29111982166194,163.94127965263047,208.8599875132656,190.80620243442
2.3023023023023024,105.54083079401455,4.998800059370208,166.86082467883696,155.45524994824996,141.74776495402497,164.02834988301302,208.78632975462315,190.43024283732805
2.335669002335669,119.38175219800917,4.998800059370208,165.09970345669626,150.4638898954261,142.20072769807612,164.18986240573997,208.7009074811685,190.027199711558
2.369035702369036,133.46972083822132,4.998800059370208,163.3687202083226,145.55096221348907,142.67656793845828,164.41871934518977,208.55330356220645,189.59541048653955
2.4024024024024024,147.61948620546292,4.998800059370208,161.8153579593305,140.68834456239577,143.13270075139698,164.69974571946904,208.37331473281608,189.15584728553904
2.4357691024357693,161.6991654234717,4.998800059370208,160.2143075985972,135.46367410850527,143.5654353950183,164.99342209792363,208.1713305581078,188.7453295652481
2.469135802469136,175.6990285656398,4.998800059370208,159.2415576220199,130.14066376258958,143.949724802933,165.2850855345282,207.96611191762764,188.36829494242755
2.5025025025025025,189.33887337640297,4.998800059370208,158.56904037719534,124.60246240982706,144.29720496198388,165.53930377611866,207.7568844200241,188.03682043688585
2.5358692025358693,202.4122918525756,4.998800059370208,158.19593605561158,119.71522117861124,144.6099981376157,165.75976588911368,207.54984026972656,187.7495784808698
2.569235902569236,215.19762397273712,4.998800059370208,157.60934502429075,115.60780452312363,144.904852687505,166.0787332694707,207.38434205333056,187.4426641010905
2.6026026026026026,227.079610366239,4.998800059370208,157.600187022584,111.56248385342278,145.17430812841974,166.4042387087862,207.198744357087,187.1652797265793
2.6359693026359694,238.00305740492087,4.998800059370208,158.1353928966529,107.9412556448015,145.41452732967497,166.72981775556943,207.0127032727628,186.92103404360705
2.669336002669336,248.11350014649148,4.998800059370208,158.4645915322958,105.13008277387507,145.61077081530576,166.9997272002776,206.83375375004192,186.7087731416621
2.702702702702702,256.7662510753393,4.998800059370208,159.98261309531907,103.56924656340765,145.7682927466109,167.24779785652203,206.66735517216352,186.52627800840293
2.736069402736069,264.34137137367867,4.998800059370208,161.53142728805977,103.24939245551676,145.922444991063,167.43231569070966,206.53088525413872,186.3658902744505
2.7694361027694363,270.5312091309692,4.998800059370208,163.60357787777122,104.07666531174,146.04951210009017,167.5819605590524,206.40813769731145,186.2211597701497
2.802802802802803,275.21056937190855,4.998800059370208,164.39954412597322,106.13170775683666,146.17627198543232,167.66771352722265,206.3901478755105,186.14262142458068
2.836169502836169,278.007949267744,4.998800059370208,165.03962964229137,104.3123909090192,146.24598821267017,167.69904090719012,206.36857648137763,186.10896952797475
2.8695362028695364,278.84389771363755,4.998800059370208,165.50197146960068,102.5868423906797,146.25420623353813,167.69355758950763,206.32538523911583,186.1067582807923
2.902902902902903,278.07875681040827,4.998800059370208,166.1345067370714,100.95666437549647,146.26621424572903,167.6813533831435,206.2289618412708,186.06465366186663
2.9362696029362696,274.2421874778869,4.998800059370208,166.92560378769184,97.33381070202918,145.8375534581992,168.2204761139146,206.3690342963498,185.9002719364768
2.9696363029696364,268.8896515319261,4.998800059370208,167.33724728956153,94.823906779485,145.87269266393113,168.3499296432968,205.99665259613528,185.2457175921197
3.003003003003004,261.8107430643875,4.998800059370208,166.62679253602997,93.13904893025232,146.02841922101902,168.2510325124754,205.64061948079487,184.9292640390306
3.0363697030363697,263.58099507954336,4.998800059370208,165.79819980984152,92.82924797172804,146.2408570668664,167.90860214777305,205.2443790360259,184.9723222823117
3.0697364030697365,265.4547505144231,4.998800059370208,165.3477754962677,93.26625429519052,146.41068425591567,167.19889596522086,204.98911888026984,185.51888488527
3.103103103103104,257.19810402312334,4.998800059370208,164.07455424096506,92.26794579782953,146.40004499464428,165.97881343101656,205.37636567085772,186.29873010697523
3.1364698031364697,257.0900862933213,4.998800059370208,162.803205321315,92.39257346562758,146.36805268123922,164.78718400531665,205.5734742714718,187.33903081490183
3.169836503169837,265.41389412783445,4.998800059370208,163.06411493928383,91.02685975571237,145.9150569293534,164.18303454838284,205.6061982452047,188.9240196705086
3.2032032032032034,262.7357700887734,4.998800059370208,162.12953859830708,91.2326284656229,145.83195211466716,163.16543272653877,205.75148501907483,189.80990700766856
3.2365699032365702,269.6862433156804,4.998800059370208,162.31498957435997,90.81384763324236,145.2877707277417,162.29677932816674,205.742391572106,191.2311892876614
3.2699366032699366,274.9757102423744,4.998800059370208,162.78524717510956,91.46422192920332,144.65877208790147,161.49858975170335,205.6309569723377,192.9432276091636
3.3033033033033035,278.12277399716874,4.998800059370208,162.915476954599,92.7538450342808,143.87892759133177,160.4041139590117,206.45882511583025,193.92167188006027
3.3366700033366703,278.7621446444848,4.998800059370208,162.4754862961919,95.3251838542909,143.2637735821114,159.10907166551755,207.1698643117201,195.2473349442133
3.3700367033700367,277.5458393907659,4.998800059370208,160.7020046793605,97.39900734620744,142.89151505746733,157.2016540979687,207.60408755184696,196.5115755990824
3.4034034034034035,274.20478765352595,4.998800059370208,162.00416733845125,99.43907871088086,142.36029368577545,155.8161209590504,207.6517185519012,198.19468917417743
3.4367701034367704,269.4063398993613,4.998800059370208,156.49212533384716,100.14568569867096,142.05061603048452,153.62830925518713,207.8258364944572,199.89458071225425
3.4701368034701368,262.9019642943495,4.998800059370208,152.73148813075187,100.97635904353837,141.62962792672872,151.6071983821189,208.0556482203047,201.5538975405721
3.503503503503504,254.60724488200708,4.998800059370208,149.29022003520274,101.9303161438689,141.2699293850103,149.75316317495344,208.29770224493345,203.20155126604976
3.5368702035368704,244.90338615141675,4.998800059370208,145.65447150578495,103.11670517203778,140.83186859705438,148.08835953105162,208.39635798318423,204.8667936957225
3.5702369035702373,234.0447191986737,4.998800059370208,142.3722375957495,104.77094241995384,140.437757955776,146.62939499271295,208.2436468334957,206.555690055516
3.603603603603604,221.7228956628236,4.998800059370208,141.05107774970875,103.91612401826444,140.08308143255536,145.75201388674338,207.4690961692889,208.36011836002052
3.6369703036369705,208.3967258720332,4.998800059370208,139.69813452638718,104.8255893902942,139.7702977451565,144.85799568653167,206.75106993604885,210.1131286769128
3.670337003670337,193.43263743216284,4.998800059370208,137.87368072484531,106.73256323168457,139.61754968937626,143.87216325220345,206.1011135931793,211.7558921142505
3.703703703703704,177.77981189020312,4.998800059370208,136.96122489033297,108.98223378314422,139.57098755845277,143.00851948158865,205.34912361520787,213.26633441453555
3.737070403737071,161.62560969407346,5.074953408186838,136.43410281484842,110.96144303748903,139.63586643591026,142.3075701746058,204.43529669346228,214.65415253396816
3.770437103770437,145.33354033479912,5.289128000309436,136.42383338165135,113.17798574034477,139.82457357040275,141.73262018827887,203.2879894038507,215.86123801765407
3.803803803803804,129.61778903972169,5.711495315706904,138.04723958392688,115.01853768610528,140.22318858772434,141.21318405559364,201.9773942159795,217.01515161687195
3.8371705038371706,114.154684292794,6.341249798021043,140.15798164392672,116.77770572319244,140.70964976664928,140.90652048715475,200.74866347786715,218.0509730536904
3.8705372038705375,98.65783201886286,7.168331777117741,142.3237536796059,118.22653535721584,141.39939261552763,140.84108435669924,199.494422769974,218.887954571495
3.903903903903904,83.3487904552705,8.200721626226246,144.31401606310183,119.53081361331397,142.07442755600655,141.08561782031578,198.30279596317536,219.49602271039248
3.937270603937271,68.88217758012586,9.620050359833076,146.70676941533392,120.05762148752004,142.7962997911391,141.56889353036442,197.1559788171257,219.88343209681827
