Time,Left Shoulder Angle,Right Shoulder Angle,Left Elbow Angle,Right Elbow Angle,Left Hip Angle,Right Hip Angle,Left Knee Angle,Right Knee Angle
0.0,19.59792060270661,37.327754011646746,156.86648801952472,165.20870680191445,145.1264992642526,153.83333229709407,204.1355336126992,197.24264664378995
0.0333667000333667,18.165730790110405,36.2341788468046,158.08215314346097,163.68547984708846,144.45335574911422,154.04693635159018,205.8971577096885,196.2722425967796
0.0667334000667334,16.914307741065695,35.26021703326533,159.14366433417055,162.29245290748594,143.85458982346432,154.226621054482,207.3894421671062,195.4645745488444
0.1001001001001001,15.836165813928428,34.39864648190957,160.06343002106365,161.02642420890336,143.32875070631184,154.37693917067418,208.6267465914501,194.80793236324823
0.1334668001334668,14.92381936705456,33.642245103617995,160.85385863355046,159.88419197713708,142.8743876166657,154.50244346507145,209.62343058921832,194.29060590325497
0.1668335001668335,14.169782758800038,32.98379080927125,161.52735860104116,158.86255443798356,142.4900497735349,154.60768670257846,210.39385376690868,193.9008850321284
0.2002002002002002,13.566570347520816,32.41606150974998,162.0963383529459,157.95830981723924,142.17428639592836,154.69722164809997,210.9523757310192,193.6270596131324
0.2335669002335669,13.10669649157284,31.93183511593486,162.57320631867492,157.16825634070054,141.92564670285506,154.77560106654062,211.3133560880478,193.45741950953072
0.2669336002669336,12.782675549312067,31.523889538706527,162.9703709276384,156.48919223416385,141.74267991332388,154.8473777228051,211.4911544444925,193.3802545845873
0.3003003003003003,12.587021879094449,31.18500268894564,163.30024060924652,155.9179157234256,141.62393524634385,154.91710438179814,211.50013040685133,193.38385470156592
0.333667000333667,12.512249839275928,30.90795247753285,163.57522379290944,155.45122503428226,141.56796192092384,154.9893338084244,211.35464358162213,193.45650972373045
0.3670337003670337,12.55087378821246,30.68551681534882,163.8077289080374,155.08591839253023,141.57330915607287,155.06861876758856,211.0690535753029,193.58650951434467
0.4004004004004004,12.69540808426,30.5104736132742,164.01016438404054,154.81879402396595,141.63852617079982,155.15951202419532,210.6577199943917,193.7621439366725
0.4337671004337671,12.938367085774493,30.37560078218964,164.19493865032908,154.6466501543858,141.7621621841137,155.2665663431494,210.1350024453864,193.9717028539777
0.4671338004671338,13.272265151111892,30.273676232975788,164.37446013631316,154.56628500958627,141.9427664150234,155.39433448935546,209.5152605347849,194.2034761295241
0.5005005005005005,13.689616638628143,30.197477876513314,164.56113727140303,154.57449681536374,142.17888808253792,155.5473692277182,208.8128538690854,194.4457536265756
0.5338672005338673,14.182935906679203,30.139783623682867,164.76737848500883,154.66808379751464,142.4690764056662,155.73022332314233,208.04214205478564,194.686825208396
0.5672339005672339,14.744737313621137,30.09337138536537,165.00559220654213,154.84384418183674,142.81188060341825,155.94744954053374,207.2174846983854,194.91498073825068
0.6006006006006006,15.72701720313551,30.05946478933224,166.3909768692871,155.03984611832158,143.28318187499758,156.27689417615215,206.456307949865,194.9406152435471
0.6339673006339673,16.494900128459758,30.09741826518148,167.09863958786653,155.42647494062328,143.93513585507816,156.6045992983854,205.6783657392744,194.9546479696217
0.6673340006673341,17.25784158671087,30.194061651762887,167.39226018847577,156.0015756072565,144.47379750814932,156.9900343419556,205.1065614576465,194.8790394762026
0.7007007007007008,18.0537790096542,30.22503028838645,167.81064593688606,156.51030791281335,145.03139513480303,157.47080056282238,204.69754323321715,194.71316046928504
0.7340674007340674,18.82346027384457,30.10875507395749,168.19867580218605,156.99964057997158,145.61149893836108,158.00901774671192,204.24150959342285,194.5233342785565
0.7674341007674341,19.661499342021816,29.97029028801756,168.6324459513265,157.59898789637575,146.20941366638746,158.63856535646124,203.68918327551364,194.29064985203544
0.8008008008008008,20.902838726417777,29.7860406817614,169.7541358570152,158.36600501895074,146.75270958741933,159.3276262229981,203.1466423800901,194.03357626358127
0.8341675008341676,21.947157921786435,29.62093921874053,170.30035140121865,159.2464114143934,147.32112623533817,160.1341269458948,202.55851665634725,193.66457700515045
0.8675342008675342,22.31821571861228,28.96249843838351,170.63106570478843,160.50699066118952,147.82803098369183,160.92186895502238,201.923323831128,193.2634583773465
0.9009009009009008,22.59815980427265,28.02412743066777,171.38428779455472,161.52949439449964,148.3242977152152,161.72140480355353,201.2553975343656,192.83808633229413
0.9342676009342676,22.711120454826418,27.161314855048204,172.54745857113278,161.89042593128764,148.79535673040655,162.5365830280022,200.5397775038413,192.3531711364207
0.9676343009676344,22.859469015097403,26.089809160185464,173.49888215320965,162.94971236054292,149.25073772284333,163.44914832229858,199.7808971440924,191.7932407578145
1.001001001001001,22.393555897774,24.735393787598746,174.9957858549585,166.79550905956305,149.74985314792414,164.4129770678244,198.9967338981172,191.1733015223376
1.0343677010343677,21.92255789442236,23.28736678645677,179.7462063738931,170.5901433412293,150.3086550048112,165.41917916748986,198.20306248069627,190.51534018652083
1.0677344010677343,20.724286864256,21.74998232241482,182.5060022719143,172.62650038422188,150.87586362502728,166.42491672237549,197.40435847322155,189.8297917091699
1.1011011011011012,19.45185758750512,20.05325604411039,184.2129550600271,174.02843852262492,151.44303613482305,167.42725400961533,196.62260844919416,189.12517651179152
1.1344678011344678,18.223536651575564,18.308298383899366,186.40173816235009,174.76422997869074,152.0112677324006,168.39162939826696,195.8816760613172,188.40354303457377
1.1678345011678346,17.057003680222373,15.80117971592738,188.0858853277033,174.41739465580773,152.5806792743387,169.30531257190955,195.1635480111533,187.6745013312305
1.2012012012012012,16.12233877329942,13.64105040367243,188.7267757707048,169.05740287679484,153.05194136198804,170.1946621289091,194.4389958132892,186.9831516832442
1.234567901234568,7.884017212296561,12.065845910973083,188.8379679371108,165.8345706824383,153.42504316855053,171.01752099769854,193.7205473386596,186.3244762756855
1.267934601267935,2.6351939345406263,11.38750287400173,188.75577478597032,162.11900084343358,153.75863847310137,171.7232790820507,193.00452763468093,185.7054714906343
1.3013013013013013,0.3994529140920617,11.37126198634027,188.7784833521012,157.03359142022774,154.05344333353736,172.3641712288749,192.3088488206221,185.1355702990421
1.334668001334668,0.7381535595389686,11.030613333579874,188.27590398456783,150.31457927413862,154.42979639736012,172.90699136558473,191.4310237482052,184.6373284041657
1.3680347013680347,0.7381535595389686,11.416216110868882,187.54254249969412,143.2521449875401,154.8480777942373,173.33905958579854,190.3795362099987,184.2188709679076
1.4014014014014016,0.7381535595389686,5.293011900943117,186.6056965416392,135.3800837121591,155.2241790936578,173.67336168682434,189.3461648294948,183.8854283275148
1.4347681014347682,0.7381535595389686,2.191652013451118,185.490381060188,127.88332058506096,155.48226435992166,173.8620265475931,188.4973438637205,183.6615878369525
1.4681348014681348,0.7381535595389686,1.2851760467834668,184.25736012802724,121.40150398050235,155.66063475731883,173.91894627064886,187.8273629894716,183.538753364355
1.5015015015015016,0.7381535595389686,1.2851760467834668,182.95491923209207,114.85023907661746,155.9690079744255,173.86672864649566,186.97010065190003,183.5241268679735
1.5348682015348682,0.7381535595389686,1.2851760467834668,181.66773908424616,109.12521927620152,156.1203466705445,173.69619946897228,186.2375794731533,183.59182883898487
1.5682349015682349,0.7381535595389686,1.2851760467834668,180.29092417326893,103.63113875360116,156.34188617840428,173.45578919659224,185.3870283587177,183.6602252235164
1.6016016016016017,0.7381535595389686,1.2851760467834668,178.8315517577575,98.69117781646776,156.57292972323677,173.19004566040886,184.5613556298384,183.68117606504285
1.6349683016349683,0.7381535595389686,1.2851760467834668,177.30113339420927,93.95778355120964,156.90277917795618,172.8946962282939,183.5858711089618,183.630724333216
1.6683350016683351,0.7381535595389686,1.2851760467834668,175.8273467903957,89.2502286128022,157.1804526307439,172.5568221370505,182.6871229520821,183.600106185803
1.7017017017017018,0.7381535595389686,1.2851760467834668,174.3199122954439,84.76498944316275,157.44396482309548,172.15230239604563,182.6419429940129,183.617940296398
1.7350684017350684,0.7381535595389686,1.2851760467834668,172.708025990219,80.73657399089274,157.4883176839776,171.73318350732134,182.67175816129088,183.6603197140566
1.7684351017684352,3.506434735604241,1.2851760467834668,170.94105882960417,77.04277473563175,157.36932660018206,171.23587056601474,182.96906867050657,183.7669228407168
1.8018018018018016,8.560534584453347,1.2851760467834668,169.1235639587029,73.66863165546104,157.04818646836756,170.7993031222357,183.45674436054685,183.82120971929768
1.8351685018351689,15.59090628134633,1.2851760467834668,167.50946705117434,70.6098611761288,156.85011299067128,170.40512922675106,183.7557100653161,183.8839531076243
1.8685352018685355,24.30733033091718,1.2851760467834668,165.75866372416257,68.42891421915246,156.6731502630134,170.0196209957768,183.6302767213472,183.9395782379544
1.901901901901902,34.400919018679296,2.787050767523948,163.79382688565207,66.83616662340607,156.52004653782154,169.78446208800585,183.36386720414632,183.792483804411
1.9352686019352687,45.899674624388496,13.914864270026731,161.98570482082468,63.284984030988944,156.6673762240694,169.72955430823637,182.8538048862123,183.3646832219526
1.968635301968636,58.67085364290005,24.847511020861,160.25267477898666,60.69164770370216,156.6969566683175,169.76576562523528,182.41068959888028,182.57840863552883
2.002002002002002,72.5102788939656,35.61115474193023,159.9640999420082,63.75639184325615,156.20086793034676,169.75533667997368,182.46879624400285,182.31658606925097
2.035368702035369,87.26343031931984,46.174705774328885,157.26647489355238,65.1042347208104,155.7663469904069,169.7398565014447,183.07636819127083,181.73031068398492
2.0687354020687354,102.66621056884584,56.458116928670734,157.17629259501092,67.26080791141003,155.3834597016783,169.3880275010938,183.83030231010343,181.616745569098
2.1021021021021022,118.49031436586502,66.39641158497344,156.46915396971715,71.44847344061894,155.0466670986204,168.92798353477968,184.82822827073664,182.11608473823333
2.135468802135469,134.59585784336733,75.89493928598313,159.78826149749048,75.9580798995338,154.6596079933426,168.27703132621258,186.1119660940101,183.62478900265768
2.1688355021688355,150.83353582079573,84.8337135886333,165.0912449033287,72.0825649191562,153.03282289196088,166.95287334368672,188.7964805796501,185.8927939498998
2.2022022022022023,167.00188393096033,93.09491655684928,165.81320360880002,79.83166563717417,151.8592325869361,165.84279366463443,191.0167900129384,188.0423965187369
2.235568902235569,182.8609550502713,100.5318438483218,162.60065261369277,77.09687736158155,150.93452678802498,164.8310128286532,193.09086067704263,189.9610244703656
2.2689356022689355,198.1430558298768,107.39459517672454,157.76104265110718,77.1521489584177,150.81063511225335,164.5670111528729,194.79830919227948,191.23315276910512
2.3023023023023024,212.66438696440315,113.49498616602156,155.52491874606798,77.96330096871158,150.66839093557124,164.87893687715035,196.76053433477253,192.4935168389744
2.335669002335669,225.59768543097687,118.4501427716226,153.77677271125884,79.32568544733127,150.8016598349832,164.99784346269698,198.40832208665788,193.76512189705585
2.369035702369036,245.2851699854677,115.33566589289266,151.7867024611833,85.12887244777106,151.131059578725,165.14258142378685,199.7533224117681,194.8895447529657
2.4024024024024024,262.2146905229427,122.33876840954017,150.50205618635556,89.06148250524397,151.57172979614066,165.19110588955982,200.87313797216183,195.85669040977865
2.4357691024357693,276.7305820904832,127.59702896798002,149.7830173435824,92.64978704044916,152.07103074441733,165.07566924910083,201.8493216912485,196.6275524909433
2.469135802469136,286.8158569935371,132.2143947521616,149.82336896057635,97.3834632637904,152.75220173495902,164.64517394691384,202.5207065078945,197.27709370794523
2.5025025025025025,291.5964998479749,134.29912214456382,150.3938398737782,103.97990110771345,153.3586424878587,164.23002789804798,203.1005434750508,197.75546973185035
2.5358692025358693,293.60348351724963,134.3119109918615,151.34191123507992,109.93394662365462,154.07057822311873,163.58278164633387,203.2285843226524,198.06568264573497
2.569235902569236,292.10572177785093,131.30233893580098,152.999023706373,118.33462798700504,154.67785774200382,162.838438882822,203.54867240031416,198.1487607360449
2.6026026026026026,287.36953467411394,125.4059080836524,154.96404846169384,130.44312276155503,155.28952530352242,162.12304725430735,203.61791669445512,198.028853373264
2.6359693026359694,273.817472147614,118.26255960854375,157.10623484194673,142.42788851843818,156.7163153691756,161.3191223793724,202.29323442040868,197.59601718240768
2.669336002669336,259.3103567496489,110.97843016513012,158.7969696752671,153.33043810418795,157.81364117172254,160.66735119625253,200.86949729567985,197.1624028081473
2.702702702702702,241.40811452111964,101.9521398248034,160.96582049016058,162.12434682523886,158.86972123224882,160.05604120633285,199.22390419831612,196.56968633317456
2.7694361027694363,221.4749295998428,94.00678673783472,162.017762782839,169.6456605249245,159.85181609674322,159.61061778289448,197.2878978455791,195.70310232835595
2.802802802802803,199.88329552232096,86.79089553913664,161.95531688628154,169.49438091203646,160.82283784592028,159.2339633601306,195.1767197952477,194.5678340684269
2.836169502836169,186.77217435254275,80.23090519852612,155.88849332664395,173.27026168497858,162.0116500420638,158.50784916818523,192.86916016650065,193.23513942926945
2.8695362028695364,174.17657233068593,73.91093658511363,150.15872217929913,175.36580286610072,163.29415906709238,158.25222878205193,190.2824692528136,191.51436227122363
2.902902902902903,162.1179262591101,67.98925515104784,143.77463712062846,175.83181598561055,164.38066441125235,157.89256397335313,187.6421658361656,189.7146467491696
2.9362696029362696,151.05208945935067,69.96926603494644,138.1635878432059,174.9161002730406,165.30544445609348,157.61624288144185,184.9147946789549,187.86375123947823
2.9696363029696364,141.04475888587058,64.40770964167169,132.53030747420888,172.29438435542272,166.22747139056293,157.69584695072518,182.00038890461207,185.7619638079261
3.003003003003004,131.9748979740758,68.25522578873667,131.89189770241785,168.27495960809458,167.0680717038408,158.00275647611232,178.90032027471491,183.4408301557276
3.0363697030363697,124.12773274511312,80.47244452335275,131.76287131875316,162.55617882510285,167.81998089956215,158.49626031060458,175.80698991252822,180.9319022470028
3.0697364030697365,117.14034458590356,96.57252859139678,129.4441240124086,153.63403754847025,168.37162625396368,159.10955468125036,173.05249213006562,178.33196434373227
3.103103103103104,119.91057222353756,113.3181771016308,127.4668137416456,139.1977887291185,168.75894675267642,160.11683819774743,170.38786033379893,175.73750201236965
3.1364698031364697,122.36965945793968,121.834507959302,124.94354830957592,129.10234298228792,168.48226995748416,160.7811712207397,168.66084386824178,173.654425881098
3.169836503169837,124.9591094275537,128.5602653966265,121.49092324008522,121.23816747287398,167.7150016544903,161.1585881361914,167.81903950143703,172.40166670086717
3.2032032032032034,127.39052219581647,133.346960317969,117.33458472387278,105.77537308096636,166.82166717756616,161.53617313391686,167.54717061287067,171.97654412465215
3.2365699032365702,129.25771864137977,138.3171528465655,113.02646914024888,90.52574979667898,165.8547526478654,161.9683229453821,167.5013563957687,171.64888939064366
3.2699366032699366,131.10240485992858,142.19596609460658,108.58524889665536,75.87078771583765,164.84200128484866,162.45999758531224,167.66035197121963,171.38765842961487
3.3033033033033035,132.54127168238617,145.08042306312225,104.02959640053544,62.19197693426907,163.81115630797785,163.0161570684336,168.00291246031344,171.16180717234036
3.3366700033366703,134.7085788801218,146.777324326375,99.37818405933214,49.8708075478004,162.78996093671506,163.64176140947248,168.50779298414005,170.9402915495948
3.3700367033700367,137.07076790076894,147.47232655536513,94.64968428048866,39.28876965225851,161.8061583905222,164.34177062315527,169.1537486637894,170.69206749215283
3.4034034034034035,142.55946814539922,147.01888016909672,89.86276947144809,30.82735334347012,160.8874918888613,165.12114472420828,169.9195346203515,170.3860909307891
3.4367701034367704,148.46377694763072,145.36699222385576,85.03611203965357,24.8680487172621,160.06170465119433,165.98484372735783,170.78390597491634,169.99131779627822
3.4701368034701368,154.03727757040485,141.72912284728574,80.18838439254824,21.7923458694613,159.3565398969833,166.93782764733027,171.72561784857382,169.47670401939487
3.503503503503504,160.54745279682635,136.04521388823505,75.3382589375752,21.981734895894785,158.79974084569017,167.98505649885192,172.72342536241393,168.81120553091364
3.5368702035368704,169.16182304717063,130.97407012208458,70.50440808217758,25.817705892389228,158.419050716777,169.13149029664913,173.75608363752667,167.9637782616092
3.5702369035702373,168.67810320105528,134.99426732433918,65.70550423379852,33.6817489547715,158.24221272970573,170.38208905544823,174.802347795002,166.9033781422562
3.603603603603604,161.11621786547985,122.45936837720792,60.96021979988113,45.955354178868674,158.29697010393832,171.74181278997557,175.84097295592983,165.59896110362928
3.6369703036369705,152.4067625735919,109.3267025329664,56.287227187868496,63.02001166050741,158.61106605893684,173.21562151495746,176.85071424140017,164.01948307650306
3.670337003670337,142.74027097729623,95.91824328237628,51.70519880520384,85.25721149551458,159.2122438141632,174.80847524512023,177.810326772503,162.1338999916522
3.703703703703704,132.3072767284978,82.55596411620033,47.23280705933021,113.0484437797175,160.12824658907942,176.52533399519024,178.6985656703283,159.9111677798513
3.737070403737071,121.29831347910228,69.56183852520148,42.888724357690734,146.77519860894188,161.3868176031476,178.37115777989382,179.49418605596597,157.32024237187505
