Time,Left Shoulder Angle,Right Shoulder Angle,Left Elbow Angle,Right Elbow Angle,Left Hip Angle,Right Hip Angle,Left Knee Angle,Right Knee Angle
0.0,25.752659389881853,29.98220449866181,154.48333448860436,157.49952382563058,131.5581766123404,129.92710896862172,201.0022161545036,201.07205529253207
0.0333667000333667,26.36801734908194,30.143235038986223,155.33642882524697,157.96911709126846,131.95763363107352,130.20325677320827,200.7106811691075,201.26057226193703
0.0667334000667334,26.902074397049944,30.28952053314768,156.07118069776274,158.39950640187575,132.3132871595597,130.4455585604664,200.4667715385465,201.4493227030009
0.1001001001001001,27.360567626438097,30.421412580716325,156.6963828816922,158.7910936171453,132.62754665110185,130.65530175083217,200.2671543709708,201.63790163189708
0.1334668001334668,27.74923412989862,30.53926278126231,157.22082815257588,159.14428059676982,132.90282155900286,130.83377376474164,200.10849677453032,201.8259040647988
0.1668335001668335,28.073811000083747,30.64342273435578,157.65330928595438,159.45946920044213,133.14152133656566,130.98226202263083,199.98746585737533,202.01292501787933
0.2002002002002002,28.340035329645705,30.73424403956688,158.00261905736824,159.73706128785497,133.34605543709316,131.10205394493582,199.900728727656,202.19855950731204
0.2335669002335669,28.55364421123672,30.812078296465764,158.27755024235796,159.97745871870117,133.51883331388825,131.19443695209267,199.8449524935224,202.38240254927013
0.2669336002669336,28.72037473750901,30.877277104622568,158.48689561646415,160.18106335267345,133.66226442025382,131.2606984645374,199.81680426312445,202.56404915992692
0.3003003003003003,28.845964001114822,30.93019206360745,158.63944795522733,160.3482770494646,133.77875820949282,131.30212590270605,199.81295114461253,202.7430943554558
0.333667000333667,28.936149094706373,30.971174772990548,158.74400003418805,160.47950166876743,133.8707241349081,131.3200066870347,199.83006024613667,202.91913315203
0.3670337003670337,28.99666711093589,31.000576832342013,158.80934462888686,160.5751390702747,133.94057164980262,131.31562823795937,199.86479867584697,203.09176056582268
0.4004004004004004,29.0332551424556,31.01874984123199,158.84427451486434,160.6355911136792,133.99071020747928,131.29027797591613,199.91383354189355,203.2605716130073
0.4337671004337671,29.05165028191773,31.02604539923063,158.857582467661,160.66125965867366,134.02354926124096,131.245243321341,199.9738319524265,203.4251613097572
0.4671338004671338,29.057589621974515,31.02281510590808,158.8580612628174,160.6525465649509,134.04149826439055,131.18181169467007,200.04146101559604,203.5851246722454
0.5005005005005005,29.05681025527817,31.009410560834475,158.85450367587407,160.6098536922037,134.04696667023103,131.10127051633935,200.1133878395522,203.74005671664543
0.5338672005338673,29.055049274480936,30.98618336357997,158.85570248237158,160.53358290012483,134.04236393206526,131.00490720678494,200.1862795324451,203.88955245913056
0.5672339005672339,29.05804377223525,30.95348511371498,158.8704504578518,160.42413604840826,134.03009950319725,130.8940091864439,200.2568032024265,204.03320691587564
0.6006006006006006,29.07800962135359,30.882575874338684,158.88714238576944,160.1127521018906,133.9879366230109,130.75868321744932,200.3003656043169,204.1479438982052
0.6339673006339673,29.12457835327682,30.79641103676055,159.0011365973412,159.83059507684513,133.99409889479125,130.62122912617494,200.2554285793372,204.2645428521133
0.6673340006673341,29.24015710424687,30.691436772977266,159.16610302011273,159.56108233408875,133.99509567892792,130.4746764008369,200.18866394195487,204.39104219554184
0.7007007007007008,29.41171385648499,30.60477922164684,159.48566136201453,159.30819778193668,134.0346203757037,130.2800151066646,200.115878763984,204.51385969145832
0.7340674007340674,29.67367787891726,30.54122343756593,159.98694318063394,159.073779084469,134.13838024730063,130.0611593160891,199.98353654986343,204.62980053941752
0.7674341007674341,29.952713235529668,30.50056976924329,160.4719875504911,158.8671274733353,134.2126590894455,129.85105039990344,199.8709602718118,204.7377896371888
0.8008008008008008,30.25203000856666,30.458189380488736,160.98921501583527,158.64546629690423,134.24569864748693,129.65310972312568,199.8174662011029,204.83294117903864
0.8341675008341676,30.59490848189531,30.419965367709267,161.5585807072803,158.3876741867676,134.2918125284435,129.41818813105797,199.77850200157727,204.9345484010042
0.8675342008675342,30.987781458632604,30.38288214206179,162.21671678689876,158.12152864171145,134.32789486508463,129.19285174260946,199.7565198130058,205.0344008479773
0.9009009009009008,31.44227094537838,30.35360199457051,162.91844864274512,157.91747103329666,134.31773705082955,128.97076932341835,199.7287294820176,205.1383152312213
0.9342676009342676,31.906529163661705,30.30918618027468,163.63580286667118,157.6740444906273,134.25713854655987,128.75222854654024,199.72371359057817,205.2569080941865
0.9676343009676344,32.3253945392422,30.268751065128203,164.27485181783163,157.45208965141396,134.13153957484414,128.5503240263305,199.816804733971,205.37244270664925
1.001001001001001,32.75062261735663,30.21711961116171,164.9409817846548,157.1892654680341,133.9330748752783,128.38720627913764,199.984010340225,205.4761478064138
1.0343677010343677,33.25556758849626,30.1715100161937,165.73724474377497,156.82803378151266,133.71384714038516,128.18954883105363,200.14905429699172,205.6126420127336
1.0677344010677343,33.79844068397905,30.144783453045942,166.61090950381447,156.452577439694,133.4411128497778,128.03587403807765,200.36619260414184,205.73935125131092
1.1011011011011012,34.32976363769772,30.203770373472526,167.4802959226724,156.22958744044726,133.0752467028253,127.9036818677012,200.68956424337352,205.9223394836792
1.1344678011344678,34.83752916059861,30.24418846078167,168.3510381312206,155.97290509504606,132.65050056959203,127.83445707086864,201.0886246618902,206.10718004128807
1.1678345011678346,35.378200119123775,30.24190674017116,169.25162286915224,155.66062155112283,132.22521877311678,127.80721627646074,201.5601467001555,206.2597373561036
1.2012012012012012,35.91775971528445,30.18918626073629,170.165011667455,155.29474603034865,131.74385082327848,127.86356261846989,202.09799419180504,206.349898228506
1.234567901234568,36.43925593351923,30.154086285297662,171.01160660584344,155.0096437542099,131.2190050524502,128.00655345608027,202.64699357287424,206.372153551023
1.267934601267935,36.89033841440472,30.051651339775432,171.80284031900285,154.66574222283984,130.6926184710032,128.27171130969455,203.17963022425928,206.3027457729873
1.3013013013013013,37.2440587330457,29.822610132587258,172.32292465845956,154.38658376637233,130.1693325408133,128.64866151795115,203.7065722651909,206.1436246811689
1.334668001334668,37.47686886453222,29.53345436296814,172.80665796964914,154.01902281801492,129.72552179536416,129.10476567264828,204.19423045088345,205.92565847511892
1.3680347013680347,37.67646487166663,29.2958157893885,172.80755820977242,153.8173428520726,129.42496311584523,129.67134814057664,204.5750179465969,205.5675441092699
1.4014014014014016,37.80351029494635,29.00150140466271,172.98464032785543,153.3983687192379,129.16377198294532,130.291242993087,204.93617803952665,205.1625599441045
1.4347681014347682,38.19072782920315,28.704955739507007,173.15613175872642,153.06519864388784,128.93066679838896,130.9757468708912,205.31438040023107,204.71607094755043
1.4681348014681348,38.40326597781529,28.24431583888112,173.5335697423071,152.46920466618,128.69863411376278,131.69836707787044,205.69990595541995,204.2693234494737
1.5015015015015016,38.40081134957703,27.72017815250454,178.9040690665459,152.40072432992267,128.4729513191732,132.42467706215555,206.06942534277832,203.8371970904633
1.5348682015348682,38.1307967674064,27.14806931982142,182.78635896658884,152.0761849900461,128.20709895918782,133.13469303865753,206.4409586894509,203.4258340874665
1.5682349015682349,37.64132425155948,26.64988389562957,186.40096662235453,151.72604628976418,127.89043689414186,133.76996659772576,206.83121467081887,203.14085860563625
1.6016016016016017,37.19516210221988,26.13317185102337,187.14220194546084,150.82644276352357,127.54107236790696,134.3837307781037,207.2182737057534,202.9060782076619
1.6349683016349683,36.679815931967525,25.22986103346291,182.4727145956541,149.95933379577784,127.17237656020149,134.97311111570212,207.5210493468569,202.6847257905028
1.6683350016683351,35.985349737336456,24.22855029614092,183.04793897917625,148.47243360561106,126.77422422497357,135.5156006817793,207.82432435414304,202.50329147914096
1.7017017017017018,35.35341818212156,23.25746118411333,183.27027653535427,146.49927093789287,126.39393285772604,136.00184220964374,208.09059553788103,202.39306086626857
1.7350684017350684,34.545675660842875,22.301026302840484,183.113932467982,143.49319899184246,126.01094961952724,136.35920718326653,208.358738184442,202.38820617069467
1.7684351017684352,33.127646457210794,21.335675454646736,182.26783350763327,140.07168181651704,125.53835325642623,136.6205383272979,208.67605735650508,202.45763313735543
1.8018018018018016,31.397878809531115,20.31430760787452,180.5998595134837,136.00161328758304,125.00409894172336,136.80989264299026,209.09759271343373,202.5409856664056
1.8351685018351689,28.74110790332294,19.26039239240964,177.7610005859442,132.9018748392683,124.46900265253493,136.9224119740468,209.5688766504515,202.6514928416664
1.8685352018685355,26.26759965619867,18.08715794596916,174.4832599418622,128.62640047805664,123.9055215311102,136.99122228369058,210.06289319975647,202.77927253655497
1.901901901901902,14.459001467033437,16.682052577412584,170.2649835780689,123.35497169574488,123.34657921208296,137.011828783118,210.6144392840992,202.9451181392789
1.9352686019352687,6.296448021666744,15.257777465661666,165.70351422894635,117.4782661711162,122.8215961657142,136.9532505601272,211.1714809746001,203.1267861746028
1.968635301968636,1.9874689283396407,13.2072254659942,160.5375597994998,110.4883086595036,122.35727639220494,136.86690115929682,211.7366866083084,203.3344911911932
2.002002002002002,1.9874689283396407,11.212286318116131,155.49427737436653,103.31252964496272,121.86023977533468,136.75530211788194,212.3384718548503,203.5101303132787
2.035368702035369,1.9874689283396407,8.99585273433485,150.7511071799184,95.66944816024588,121.36673804062524,136.5727473244481,212.9474980044326,203.616150436187
2.0687354020687354,1.9874689283396407,7.097885277492808,146.46095146373128,88.09707012672072,120.89075204409272,136.3678360656415,213.58499262307032,203.6758324252076
2.1021021021021022,1.9874689283396407,7.097885277492808,142.7722560074841,80.82106414079536,120.44409436325375,136.0806096916853,214.2199454961887,203.702486396432
2.135468802135469,1.9874689283396407,7.097885277492808,139.7016267897099,73.9312492635704,120.04334220122686,135.7328628581543,214.8051898443589,203.7449898616248
2.1688355021688355,1.9874689283396407,7.097885277492808,137.05433586391035,67.56422201468253,119.70433619696642,135.3162992763644,215.2929641912071,203.8068911038516
2.2022022022022023,1.9874689283396407,7.097885277492808,134.8179842613809,61.85284912152973,119.37456713917396,134.92611579379644,215.790599778496,203.84160312432263
2.235568902235569,1.9874689283396407,-3.356675881702462,133.11514806663934,56.6465533220394,119.05017479976776,134.50205051825873,216.2995830477693,203.87622532415105
2.2689356022689355,1.9874689283396407,-10.282680153881245,131.9620145293724,51.990949322893016,118.79656471234236,134.10200368395002,216.76031761729664,203.8209296231857
2.3023023023023024,1.9874689283396407,-13.967549007510913,131.34842381538795,48.09363752702349,118.6024556224904,133.72575015824307,217.175309634588,203.6830613938538
2.335669002335669,1.9874689283396407,-14.649592252934422,131.1994340374342,45.02361624890502,118.40356144413109,133.4167953309773,217.5430279772069,203.47913170445884
2.369035702369036,1.9874689283396407,-12.368689258487452,131.51923977717215,42.823575228370736,118.2098280919876,133.12823420350574,217.87883168639107,203.24271591108896
2.4024024024024024,1.9874689283396407,-7.651837765673406,132.4104900215109,41.38507636412402,118.00753947527096,132.85152636699624,218.23697510381308,203.00373420583983
2.4357691024357693,1.9874689283396407,-0.6612005527082117,133.85320974117968,41.086703178537725,117.81027360312622,132.58147898141982,218.6133198124533,202.76167238402044
2.469135802469136,1.9874689283396407,8.38452763422137,136.1671236783974,41.601518250266444,117.6043229965402,132.3257445986662,219.007486110686,202.5324652989664
2.5025025025025025,1.9874689283396407,19.333663024401208,139.28975952773445,42.84430277878552,117.43792506041726,132.1706499342877,219.3776005416996,202.21268476094056
2.5358692025358693,1.9874689283396407,31.841682451099235,143.82835255474072,44.5811139793793,117.18858550893198,132.0090257625178,219.8199058416492,202.0008946195304
2.569235902569236,1.9874689283396407,45.56009136245455,149.47833627175913,47.17757000211152,116.88743684275065,131.8709448338045,220.3045301656457,201.876328774886
2.6026026026026026,1.9874689283396407,60.52062519505712,156.3111896961154,50.307567115315095,116.52220485810408,131.70095883853466,220.7950872925573,201.8851558593032
2.6359693026359694,1.9874689283396407,76.68396745300488,164.0938732858953,54.52131420376438,116.09245318125524,131.58466436204054,221.32541424062887,201.9798499048472
2.669336002669336,1.9874689283396407,93.68400267595818,166.53395888182598,58.443005617812425,115.62344488820288,131.42087235503936,221.8482923433858,202.21918956837555
2.702702702702702,1.9874689283396407,111.32304313902468,168.44946405353747,62.69904034505926,115.15240289333556,131.2308986820811,222.34825929630367,202.57693464377311
2.736069402736069,1.9874689283396407,129.33035480378584,168.6556394597759,66.52964944884455,114.70028837629836,131.04524822285768,222.76360084335988,202.9841830777068
2.7694361027694363,1.9874689283396407,156.51189111365798,170.57675497377446,71.1914900950788,114.1649247959001,130.6971442218059,223.17246908631188,203.4758824162135
2.802802802802803,1.9874689283396407,181.10466191865063,178.03769512367418,74.83988617689037,113.6146704907713,130.2925145506658,223.5969878580962,204.06447157275625
2.836169502836169,1.9874689283396407,203.193128524419,180.54733234094965,77.56145823160583,112.88761531668612,129.76385837417237,224.0664060017013,204.80434003888035
2.8695362028695364,1.9874689283396407,222.28135390036988,182.020428254038,79.28153970118989,112.13457592751776,129.22443523436954,224.5454594707801,205.57119241583143
2.902902902902903,1.9874689283396407,238.91973289737905,182.18385107623843,78.68415253567726,111.45585784519444,128.73350837028178,225.07211589920777,206.264986126796
2.9362696029362696,0.4925168428917299,252.67523528880736,181.2714460902086,79.17384562574095,110.9912055720965,128.28732690744818,225.4583833327169,206.92507121269148
2.9696363029696364,1.5799945302018736,262.3863663105451,179.91457752989515,78.9981721635822,110.57243425421709,127.794661468097,225.8060928214301,207.62680854634536
3.003003003003004,4.828387490208355,269.1719644270124,178.67960827342705,77.04412855396868,110.24356871198758,127.32273897035262,226.02136090862467,208.33937176122413
3.0363697030363697,9.997937967848522,273.0338385944623,171.69162367147308,73.89252465293968,109.85836785366764,126.78834256275503,226.1827870134716,209.1106282724417
3.0697364030697365,17.04726679443204,273.9820120321561,165.19163758814256,71.1015507403618,109.56299990184144,126.29918758918656,226.2058038727444,209.8395269013085
3.103103103103104,25.95929212454176,271.69438687586387,161.1169113225396,68.17501663048522,109.4309179289098,125.93470831270322,225.9483214514165,210.488567718404
3.1364698031364697,36.327427488521536,265.94623300030867,158.020615560435,66.22517943719845,109.491349661012,125.60218869818556,225.41541755256267,211.05168377992052
3.169836503169837,47.95720488514264,256.48915332954425,155.7388151230353,64.5625901815966,109.66427200552744,125.38271962940937,224.6646138224428,211.52161510507247
3.2032032032032034,60.73376690477659,243.82261775964545,153.79085690331044,63.882489694490665,109.9658034902644,125.2652956797786,223.7453552745974,211.9354526852171
3.2365699032365702,74.51673858524956,227.7671338257985,151.91399855619423,63.654769084384114,110.42489138359318,125.1934005452467,222.6595823420089,212.3653587142438
3.2699366032699366,89.0966579466785,209.2124982988649,150.2295974133009,64.01105558431345,111.10509248058912,125.20918258026006,221.4439420709572,212.7685736031848
3.3033033033033035,104.31211036580468,187.5071968515149,148.69038825512135,64.55987226411612,111.80152373992966,125.17071829532864,220.26724956751104,213.1902060125818
3.3366700033366703,120.0071400213589,163.50463087515354,147.75421603809494,65.64537678609949,112.79271409037528,125.2363395616504,218.94610903637584,213.520317951928
3.3700367033700367,136.0250679374108,136.8686930061156,148.0381565312582,66.99829989161287,113.7798892713015,125.20681265047878,217.8037491741364,213.8690356062721
3.4034034034034035,152.2475782612882,119.73976524465536,148.25929116577305,69.24593535115173,114.94361681888076,125.28400134618629,216.54881635130613,214.10699957276728
3.4367701034367704,168.47794137369488,102.94715130076344,148.73581309769074,71.81732218974624,116.31502142171584,125.57475148095318,215.12233467293825,214.15453823738392
3.4701368034701368,184.51735574512907,86.84167126032649,149.61363875357688,75.19886992549363,117.81899884432758,126.072406292157,213.61021853519551,214.05378957041228
3.503503503503504,200.04400405211533,71.54605299626219,151.36812564009207,79.78039232918016,119.37794226468932,126.88031605443956,212.17721202381205,213.8859529560493
3.5368702035368704,214.61568867435508,57.17363814623815,153.20932453556256,84.83188495221593,121.05203211756998,127.81877772999306,210.7031593316069,213.6253442155332
3.5702369035702373,228.2690330928679,43.85415439191249,155.37187451289572,95.52627581689003,122.77031818600037,129.10765561218994,209.15163412047343,213.17513930692283
3.603603603603604,240.9266445039125,31.940416322479447,156.83604118529576,105.33539819648357,124.57357371489496,130.45990793347596,207.57501946033085,212.5946681585337
3.6369703036369705,252.3662620735609,21.74248940606477,159.4162044169072,113.05688437705705,126.45283745744386,131.8561431010197,205.98597405497208,211.97981204146475
3.670337003670337,262.6418073709675,13.198203612093817,161.46460587130696,119.66556341698282,128.37877530074078,133.11622821798252,204.4250994982431,211.37416364556424
3.703703703703704,270.7083653926316,6.72906885309773,162.7238792553456,124.624185883555,130.31129226037973,134.1828536445752,202.95176585277787,210.7664420169794
3.737070403737071,277.0968664490505,2.618320075661189,163.1800844012358,128.780013907418,132.22780879877774,135.1753088991532,201.5480451345992,210.0880828211224
3.770437103770437,292.493009017116,2.618320075661189,163.18696794200838,131.0697171398114,134.1081435486421,136.03275749686665,200.258529449404,209.31540350061675
3.803803803803804,302.76179529871393,2.618320075661189,162.49704469132033,132.1511654763792,135.9611171269658,136.69676904135915,199.00350376461435,208.5115308529839
3.8371705038371706,308.3608545982793,2.618320075661189,161.74002022381924,132.61245546611605,137.709313030179,137.31780521530024,197.88805974352795,207.60195178455672
3.8705372038705375,309.1199254006989,2.618320075661189,160.2614606764049,132.08113507189032,139.29579757091523,137.76898145024705,196.918603432466,206.74440558842383
3.903903903903904,304.2854113245447,2.618320075661189,157.79671262853674,130.14975817102405,140.65756723275322,138.01423229697556,196.13945173307772,205.8734092031116
3.937270603937271,295.4029164974223,2.618320075661189,153.90784549574536,126.39475874424244,141.88747986650577,138.19582209362082,195.46737941856227,205.0522247017288
