Time,Left Shoulder Angle,Right Shoulder Angle,Left Elbow Angle,Right Elbow Angle,Left Hip Angle,Right Hip Angle,Left Knee Angle,Right Knee Angle
0.0,38.87340622492479,39.01475003243204,169.99035573137334,169.39808114768724,143.96407120964602,141.29371151673766,194.35191904874344,204.3095843913706
0.0333667000333667,36.27022400075884,39.420066377568666,168.11044050777588,169.71624683883405,141.91294622478722,139.85903940913224,195.15067229259049,203.57251718759127
0.0667334000667334,33.99277561324142,39.73030734690404,166.43596162927153,169.92990887018854,140.174994708503,138.61598668374862,195.82309325500907,202.88131570856177
0.1001001001001001,32.02620317954017,39.95189451762703,164.96098074646082,170.0454016184453,138.73110984015332,137.5542864343479,196.37626041359377,202.2343426637368
0.1334668001334668,30.355648816822708,40.09124946692645,163.67955950994426,170.0690594602991,137.56218479909808,136.6636717546911,196.81725224593896,201.6299607625712
0.1668335001668335,28.96625464225668,40.15479377199115,162.58575957032232,170.00721677244448,136.64911276469724,135.93387573853943,197.15314722963905,201.06653271451967
0.2002002002002002,27.843162773009706,40.14894901000999,161.67364257819557,169.8662079315762,135.97278691631067,135.35463147965388,197.3910238422885,200.54242122903705
0.2335669002335669,26.97151532624941,40.08013675817181,160.9372701841645,169.6523673143889,135.5141004332983,134.9156720717956,197.53796056148173,200.05598901557804
0.2669336002669336,26.336454419143443,39.95477859366543,160.37070403882962,169.37202929757723,135.2539464950201,134.6067306087256,197.6010358648132,199.6055987835975
0.3003003003003003,25.923122168859425,39.77929609367972,159.96800579279142,169.03152825783584,135.17321828083595,134.41754018420505,197.58732822987733,199.1896132425501
0.333667000333667,25.716660692564982,39.56011083540351,159.72323709665045,168.63719857185947,135.25280897010578,134.337833891995,197.5039161342685,198.8063951018908
0.3670337003670337,25.70221210742776,39.30364439602565,159.63045960100715,168.1953746163427,135.47361174218952,134.35734482585653,197.35787805558124,198.45430707107408
0.4004004004004004,25.864918530615377,39.01631835273498,159.68373495646213,167.71239076798022,135.81651977644708,134.46580607955073,197.1562924714099,198.1317118595549
0.4337671004337671,26.189922079295467,38.70455428272035,159.8771248136158,167.19458140346674,136.2624262522384,134.6529507468387,196.9062378593489,197.8369721767881
0.4671338004671338,26.662364870635667,38.3747737631706,160.20469082306877,166.64828089949688,136.79222434892344,134.90851192148153,196.6147926969928,197.56845073222829
0.5005005005005005,27.267389021803595,38.033398371274565,160.66049463542146,166.0798236327653,137.38680724586203,135.22222269724028,196.2890354619359,197.3245102353303
0.5338672005338673,27.9901366499669,37.68684968422109,161.23859790127443,165.49554397996667,138.02706812241416,135.58381616787608,195.9360446317727,197.10351339554893
0.5672339005672339,28.81574987229343,37.34154927919932,161.93306227122952,164.90177631779702,138.69390015794085,135.98302542715115,195.5628986840992,196.90382292234048
0.6006006006006006,29.385183641059445,36.93628172753166,163.14196914589866,164.39937419108608,139.90260322870537,136.7494303788618,195.26948813846377,197.21379344083056
0.6339673006339673,30.05612965384344,36.69307612736126,163.99290762428754,163.83044323199505,140.44636088814826,137.08998823403883,194.75075638891764,196.9539226489399
0.6673340006673341,30.90512963134925,36.48969785193496,164.91701981268776,163.24038918893632,140.7395632975385,137.27779457980031,194.40764651487845,196.72551023652463
0.7007007007007008,31.91422067267497,36.34033777006393,165.95604156362438,162.72044853693424,140.8540607074653,137.4436326684558,194.1622965234304,196.55515024751364
0.7340674007340674,33.10341343018518,36.31648057994533,167.1887024893811,162.3646916940411,140.89711954962195,137.59476351732928,193.9419161470407,196.4922886772956
0.7674341007674341,34.42748687125109,36.31136167017896,168.5485077075958,162.02059976080596,140.91593807715586,137.7902466647273,193.71219886309729,196.36651491400693
0.8008008008008008,35.831719877249256,36.29305597434213,170.00091728984984,161.5961908908529,140.9346317155011,137.96298478881795,193.4589595579629,196.19492151684665
0.8341675008341676,37.32475325406667,36.24481863634094,171.47821079168082,161.13979939561932,140.85755654955904,138.18620226905043,193.233025252202,196.0033218566978
0.8675342008675342,38.86446568492575,36.2761141795916,172.88705881980158,160.85870610862773,140.7776231069233,138.44307818225548,192.9448082198906,195.7965462383136
0.9009009009009008,40.32994059781929,36.28661977895977,174.02505426451495,160.54479099499414,140.63466451494577,138.74543332290165,192.6775272954505,195.5602716176182
0.9342676009342676,41.6868020406348,36.386156267719805,174.54577277408518,160.21936032920905,140.33638809622886,139.0652436312902,192.5055288446431,195.3208700768491
0.9676343009676344,41.86326707445117,36.42028970427877,175.46926430227452,159.81779828681758,140.07254115079542,139.43870688390697,192.4116035818637,195.06910259785448
1.001001001001001,41.58499416487336,36.33752645562247,176.16074101949786,159.5226325329825,139.83448952822425,139.85614937066904,192.41438630330208,194.7814688708404
1.0343677010343677,41.35847791452265,36.14496016795845,175.92099097295787,159.13213582322692,139.56167596445687,140.28320698564914,192.4913204037291,194.5165091986992
1.0677344010677343,41.62546705758795,36.00668415933403,174.80339896244172,159.20161738630125,139.21595023423245,140.67499297305326,192.64243071244195,194.2655822949773
1.1011011011011012,42.22599105909349,35.77626893258625,174.83706759559274,159.08590276052348,138.84166952444147,141.1096492050062,192.81169657669537,193.9456109334841
1.1344678011344678,42.74580143246472,35.73231814306019,175.1033922219521,159.25369092941523,138.3675752080499,141.56482286007682,192.99489782799589,193.66013808197624
1.1678345011678346,43.29573434568824,35.5108655643462,183.3032836528009,159.10813861709167,137.86363909095292,142.05098820610797,193.1980259093353,193.3953446762669
1.2012012012012012,44.00474451438663,35.02759159629278,190.7238100459637,158.79688098442094,137.3884893758783,142.56994517568089,193.3945270428792,193.0569755961361
1.234567901234568,44.47881712072752,34.33987070559559,196.35985045068853,158.02545968380915,136.9397382679237,143.12838223301358,193.63595807678263,192.65467592721524
1.267934601267935,44.65794714663813,33.252517753589494,200.6200126847084,156.9802503483466,136.58298719693212,143.65263287075612,193.8919204990723,192.28458018637892
1.3013013013013013,44.42850337392292,32.163474383042264,203.09818753141056,155.59850898288065,136.23298056153783,144.21274967920138,194.2622131263973,191.91249606692887
1.334668001334668,44.06566719289147,30.68598063030886,205.44232319204392,155.1056640137563,135.89523363972663,144.77714393032338,194.76444462506743,191.54890377168903
1.3680347013680347,43.77229704685852,29.058187772716863,206.04274007641632,153.87920665295073,135.6200681500767,145.3517773020033,195.3048779138359,191.225060355723
1.4014014014014016,43.471348173809474,28.08554920163728,204.6062741400379,151.5674967977805,135.4048223695247,145.90739033132854,195.90037829189592,190.9156644342264
1.4347681014347682,43.00911752080161,27.398178629499974,201.14672443819737,148.2874794140422,135.2496805836147,146.44082318504104,196.48183696781297,190.61606037283963
1.4681348014681348,42.39294632313986,26.81036947903817,195.6116369976457,144.540461180964,135.14409990410866,146.96751333730916,197.04701026139224,190.32624294711368
1.5015015015015016,41.90926419799656,26.209812021126623,188.96277142852148,140.6476139635,135.03569859557274,147.48684948265264,197.58631469663288,190.0431475321089
1.5348682015348682,41.717642914648216,25.12169973522109,180.6882458126341,138.96214130618415,134.81488429664404,148.05636603454045,198.0951294929304,189.76319641408244
1.5682349015682349,41.29321147659587,23.953724721583804,172.25017797761583,136.2064477430638,134.56615320281608,148.6154285391605,198.5672512493648,189.50949499765133
1.6016016016016017,30.964881148498268,21.43159887823673,159.83693613705177,132.01920605887608,134.3815769816122,149.11713404516715,199.10308779210447,189.2791280449809
1.6349683016349683,24.12221879758862,19.04982643909212,147.44316416998785,127.2834007817446,134.22609036187112,149.5734410328435,199.64044025544965,189.1102534087503
1.6683350016683351,18.0577883033014,17.693396231277774,137.8408126613402,122.44739319962096,134.115417601213,149.9275041406083,200.0872686057588,189.02674992034864
1.7017017017017018,23.87404763324864,17.00205914387197,130.2285419393861,117.55243773415296,133.96294417593785,150.25657833656146,200.52606019068816,188.99227164225564
1.7350684017350684,28.631973409586266,16.196326015243482,123.1259338058078,112.38666804395076,133.73324317401037,150.55209133304325,200.91936422225564,189.01487529943364
1.7684351017684352,33.24477427632705,15.719165737859036,116.3969356013624,107.06375974726822,133.48858839911733,150.81884048108574,201.26683147183203,189.0614606762396
1.8018018018018016,29.54142455452435,15.487872420641834,108.8752530741934,101.44373321119694,133.27164072644374,151.0189768811581,201.63262953913693,189.1262694589333
1.8351685018351689,28.584110747890403,15.702367802974171,101.70438459816702,95.92912926019424,133.07502628592928,151.22522502788655,202.0385863026839,189.1529971016901
1.8685352018685355,29.51428708833726,16.411501307932017,96.11360685356,90.60372468473528,132.94864959673723,151.44678584793772,202.4110108928027,189.1785585542266
1.901901901901902,32.44389021355424,17.518254193381757,91.25251857694204,85.47902593118933,132.90908190396885,151.65740758387898,202.78504404060612,189.2011537087856
1.9352686019352687,37.969290823018966,10.935447800176608,86.08094406727015,80.31869900682206,132.9094426792799,151.80747285588166,203.25858525339265,189.2041973895009
1.968635301968636,45.271957003658414,7.319106969723802,81.7077573329188,75.75865344830383,132.89578172466315,151.95641915049237,203.7553990721944,189.19822924410988
2.002002002002002,53.62178138774485,6.459732019615809,78.89497526677728,71.76925115279757,132.9745816853212,152.10662404178083,204.18021384790052,189.15216601217173
2.035368702035369,63.251628886063166,8.050768044121682,77.32905442236031,68.23147304128769,133.00688672082848,152.23770546046282,204.6238026077492,189.09404862399472
2.0687354020687354,74.12261783573243,11.702522822742088,78.58369986634288,64.73871555501461,132.97663583682177,152.79006979110974,204.8060879869608,189.08420916532512
2.1021021021021022,86.1985188362287,17.643420740124345,80.57684892233307,62.04897397123168,133.0454309161197,153.08808326606115,205.0511772072516,189.009144808215
2.135468802135469,99.43355870354767,25.400108233410897,83.88145184594194,59.97587521768001,132.95379281658415,153.40794594604176,205.2640460655171,188.97225929842807
2.1688355021688355,113.389214943866,34.990516207176775,88.27995679230641,58.72336798613581,132.80575174496468,153.56884483993107,205.56792427965053,188.9037287174052
2.2022022022022023,127.71137730246402,46.10205497281625,94.12812619867664,58.0709406964253,132.7886270586051,153.6451229083525,205.79228531548176,188.79634515470548
2.235568902235569,142.209691962384,58.84878078642806,102.98259535269622,57.17496269166182,132.90086109641325,153.63054311080683,206.0648499366736,188.6295947980601
2.2689356022689355,157.0547500812917,81.95554207699138,112.85615951778264,61.280628446699865,133.0916639668913,153.5125395016487,206.3974894060813,188.3400509279152
2.3023023023023024,172.00601238386844,102.6301083911886,125.12314474674332,63.933822879013285,133.39182148965847,153.28505059078677,206.85677270452385,187.97061177942464
2.335669002335669,186.58997599367265,111.186171855379,130.37320567776595,65.62964160402633,133.46068542568682,153.01915996148745,207.51564487139663,187.48121114750649
2.369035702369036,200.4939316177802,121.29471342164108,133.88850336571767,67.50188907729452,133.56485592775277,152.49341755808584,208.39317966468283,187.00236745700693
2.4024024024024024,213.5085363481056,141.42248893287416,138.20697261140893,70.28211409364657,133.87283168906325,151.92831623645247,209.131520225675,186.66287213732187
2.4357691024357693,225.8573559732856,149.96136508102606,141.79551554068547,72.82015322462271,134.05554351889447,151.31660237084927,210.07165989657784,186.3606241635889
2.469135802469136,237.4207478270312,159.54391648213195,143.7679589798147,75.96910266981233,134.1793149142971,150.44619828236466,211.280857413652,185.86752696003828
2.5025025025025025,247.96838207461823,169.69385379321403,142.70866791337238,77.33807112496426,134.38586803619222,149.8840164314643,212.24144996365163,185.3234971153244
2.5358692025358693,257.4299642806489,180.72210173244804,139.85170157825416,79.66348773036016,134.55520281032105,149.1954705361048,213.4395332589289,184.59704059857484
2.569235902569236,265.1605859196883,191.4951739593727,137.9272420484451,81.48094670329876,134.48292097797824,148.67627011543422,214.45329872300744,184.0620483286569
2.6026026026026026,270.88583440244656,201.8422534434669,135.33820971402497,83.77147699845244,134.33203099749252,148.31256761204864,215.5068707410437,183.39310724381733
2.6359693026359694,274.6756795016014,211.4404745771988,131.94709680046302,87.25631455066835,134.11902565379842,147.75368341463354,216.58161206468137,182.96774513852685
2.669336002669336,285.0500700997955,228.9086072301632,127.97595455959308,92.91120619963937,133.8016713949772,147.20930320987907,217.67995157172948,182.6124305936849
2.702702702702702,289.8954717646838,233.5769228144857,124.06787188549228,95.9593553364541,133.4410296134578,146.45392960044168,218.86078235869724,182.53143944649955
2.736069402736069,290.8584348039296,247.96279824051825,119.70582665953845,100.83238942414458,132.85214820131597,144.98711168342615,220.4246917688984,182.5628694443581
2.7694361027694363,298.9113103963913,260.5853643315718,118.84256911235428,105.092477573899,132.1455863456648,143.5387304038578,221.84556297967737,182.88438997878043
2.802802802802803,304.3267980074572,269.32305842099146,120.64707643039836,110.45018632320084,131.3393370865173,142.1907690290975,223.1425261244064,183.452311687238
2.836169502836169,309.4760480619131,274.0498761737742,120.90612153945064,114.7764870811756,130.5061313166453,141.0636006380922,224.3311125618826,184.1845345436628
2.8695362028695364,301.80453081858656,275.1466631532454,119.60470227353348,117.46941864785964,129.73853339515512,140.0092157679597,225.57447344328344,185.0933462912961
2.902902902902903,290.3650700659733,273.2384932392077,117.98612660998243,119.29733650517996,129.04223495276904,139.02371399029306,226.8022137431847,186.30368541706784
2.9362696029362696,274.80270561777803,267.70347957753125,113.7243568240606,120.24452565371575,128.18730774764444,138.14452262312935,228.2432433320796,187.75588604595472
2.9696363029696364,265.7357240436819,258.7802755747934,111.86460605801918,120.64970011106874,127.30281234512312,137.3895702193663,229.61598508797448,189.5148471585173
3.003003003003004,254.53092549867887,246.4410152010342,111.6487780263786,118.9063554771482,126.31915931659896,136.76537630883217,230.9620862718092,191.6035971686764
3.0363697030363697,242.3168651945053,230.6372191978612,111.54202460173154,116.92753288777162,125.34832401350288,136.25985974801702,232.1268804885593,193.95526290889967
3.0697364030697365,228.75108390554465,211.5374661133951,112.891489988601,114.51943617378336,124.29553443985355,135.8638851634713,233.0785512349135,196.46193187646784
3.103103103103104,213.62965327122504,199.65059925870412,115.9685467901663,112.43669313108076,123.37429978756624,135.62862507258794,233.5497324161529,199.05859904494105
3.1364698031364697,197.68201744126983,186.9500088766552,120.36141159997842,110.17859061189644,122.50889580059568,135.63778508893412,233.49730475297383,201.7728589438876
3.169836503169837,181.6416211045904,173.86566478147608,124.9462834291418,108.02263160323112,121.79371872275289,135.82228863728304,233.0684255533029,204.51106002686188
3.2032032032032034,165.32107293652908,160.42965139281534,129.87242685931233,105.62799975941896,121.13760290320958,136.1820664716387,232.70495860654145,207.36982163279063
3.2365699032365702,149.0195568198227,147.5791918070391,133.1471179238504,104.141373462623,120.76323632929146,136.07314206436448,232.2283337596484,210.09140971756293
3.2699366032699366,132.82937634039567,134.8150310010665,137.22286977272034,103.09206834064184,120.62669794737312,136.0294819336644,231.3448380121172,212.8898508620452
3.3033033033033035,116.9911327471734,122.7895437375741,141.4774293145012,102.72101871450714,120.9357738753253,135.86847889689716,230.17085340889363,215.3741398769972
3.3366700033366703,101.8897732843313,110.86031681398984,145.99375913583495,101.25593295397742,121.2151968953243,135.49630770662623,229.0040349332857,217.8910437171805
3.3700367033700367,87.45400164361111,100.59394242943314,149.79094630927352,101.80430815057244,121.64194117520891,135.24424363023817,227.724764888538,219.96030200380568
3.4034034034034035,74.11142024434464,91.24090639122788,154.37684812421043,104.41847559560888,122.22966787697038,135.2664389566169,226.06813522671828,221.5740490683805
3.4367701034367704,60.59277913283202,70.97453819589738,159.7321027531732,103.20900093102206,122.92952170111512,135.45530008899385,224.2054180451517,222.7350847915212
3.4701368034701368,48.39196726739781,49.26130266384809,163.02787410018323,104.11688965150532,123.54095830413593,135.6655969283958,222.36373364944947,223.49904937953124
3.503503503503504,37.05151541048456,39.42801381168596,166.603404628133,106.97245130142592,124.720713831402,135.86018769855693,220.22419578111345,223.7970996362326
3.5368702035368704,27.048105560103817,31.96801813191606,170.0784927079501,110.37856008277085,126.13248230931823,136.1099640581285,218.13054194778056,223.35972940455724
3.5702369035702373,17.680573901567424,13.563391679934467,170.15375552961646,113.59964621301717,127.8245900535538,136.72298913884475,215.8737612878424,222.4084216013736
3.603603603603604,1.7567269208310314,5.230015873648479,167.90861799003574,116.26010545094952,129.60932923911642,137.45913266109204,213.78567244875708,220.6142934255168
3.6369703036369705,-8.788285974787174,-0.8104033268805949,165.7710273455909,117.40427756832482,131.5729715971848,138.73980622789432,211.30492440708983,218.4650207033066
3.670337003670337,-6.559620175786129,-3.0767503274883694,165.63121099466863,118.98694965801396,133.15278816538154,140.2748034696915,208.5779805632908,216.10677501581344
3.703703703703704,-2.257016683271509,-3.8150764094548495,166.33170890825576,119.41044792052702,134.82742925873188,142.00659287695416,205.4944351094131,213.66622256890167
3.737070403737071,7.169173088304806,-0.8657764815830777,162.97252744647253,116.90212256799018,137.06639257010153,143.00004249646668,202.83634675842043,210.5910560759923
3.770437103770437,18.988173008397705,4.473047482613905,154.12834836113626,115.72598343635534,139.24701729202016,143.88953875806752,200.2618563126017,207.58201407514292
3.803803803803804,23.4502445847368,4.473047482613905,152.92831579505193,119.66239376588958,140.8650774833964,145.27264882190872,197.5380556948804,204.61430420102025
3.8371705038371706,22.37205092655887,4.473047482613905,152.03146962041367,121.16798950997162,142.26916794800673,146.3767407495301,195.1170272374098,201.72635907985983
3.8705372038705375,32.09344048383597,4.473047482613905,151.0526358841468,119.97430693449644,143.76079727867804,147.57594670934373,192.87645541524304,198.8606047522016
3.903903903903904,40.33786060669495,4.473047482613905,148.09838274999174,116.31573563170676,145.39288183364567,149.29345155832297,190.5643049922472,196.2095623121844
3.937270603937271,48.23096929507246,4.473047482613905,142.54902126970535,110.99743420925483,146.95723535281334,150.97719402252812,188.67650326414065,193.69192888325856
