Time,Left Shoulder Angle,Right Shoulder Angle,Left Elbow Angle,Right Elbow Angle,Left Hip Angle,Right Hip Angle,Left Knee Angle,Right Knee Angle
0.0,23.961996689267863,32.570876732867674,155.60992654863676,168.78997035127944,131.73167594431436,130.39102453020314,205.967435366517,207.55285348832248
0.0333667000333667,24.52126010693944,32.341417948253536,156.27283118028538,168.6470746517213,131.94138950801658,130.35845622543843,205.5160763737178,207.44792062930955
0.0667334000667334,24.98609171640794,32.15337091746976,156.85501524518318,168.5456265153045,132.12312779624608,130.33294527753506,205.1278206460281,207.36701373513785
0.1001001001001001,25.36263571586924,32.00347135927059,157.3605204017895,168.4818766079488,132.27859751580186,130.31392903365045,204.79849053055543,207.309093863654
0.1334668001334668,25.657036303519185,31.8884549924103,157.79338830856364,168.45207559557412,132.40950537348306,130.30084484094195,204.52390837440737,207.27312207270447
0.1668335001668335,25.875437677553634,31.805057535643137,158.15766062396492,168.4524741441003,132.51755807608873,130.29313004656694,204.2998965246913,207.2580594201361
0.2002002002002002,26.023984036168443,31.75001470772336,158.45737900645264,168.47932291944727,132.60446233041793,130.2902219976828,204.1222773285149,207.26286696379543
0.2335669002335669,26.10881957755948,31.72006222740523,158.6965851144861,168.52887258753483,132.67192484326978,130.2915580414469,203.9868731329857,207.2865057615292
0.2669336002669336,26.13608849992258,31.711935813443,158.87932060652463,168.5973738142829,132.72165232144332,130.29657552501666,203.889506285211,207.32793687118388
0.3003003003003003,26.111935001453617,31.72237118459093,159.00962714102755,168.6810772656113,132.75535147173764,130.3047117955494,203.82599913229856,207.3861213506062
0.333667000333667,26.04250328034844,31.748104059603275,159.09154637645415,168.7762336074399,132.77472900095185,130.3154042002025,203.7921740213558,207.4600202576428
0.3670337003670337,25.933937534802915,31.785870157234296,159.12911997126375,168.87909350568862,132.78149161588496,130.3280900861334,203.7838532994903,207.5485946501404
0.4004004004004004,25.79238196301289,31.83240519623825,159.12638958391562,168.98590762627728,132.7773460233361,130.34220680049938,203.79685931380948,207.65080558594545
0.4337671004337671,25.623980763174224,31.88444489536939,159.08739687286914,169.0929266351258,132.7639989301043,130.3571916904579,203.8270144114209,207.76561412290465
0.4671338004671338,25.434878133482776,31.938724973381976,159.01618349658358,169.19640119815398,132.74315704298868,130.37248210316633,203.87014093943225,207.8919813188648
0.5005005005005005,25.2312182721344,31.991981149030263,158.91679111351823,169.29258198128173,132.7165270687883,130.38751538578202,203.9220612449508,208.02886823167225
0.5338672005338673,25.01914537732496,32.04094914106852,158.79326138213244,169.37771965042893,132.6858157143023,130.40172888546235,203.97859767508425,208.17523591917387
0.5672339005672339,24.80480364725048,32.08236466825125,158.6496359608868,169.44806487151675,132.65272968633067,130.41455994936584,204.0355725769416,208.3300454392179
0.6006006006006006,24.61697134296585,32.03429895387438,158.49914783841922,169.40207148209151,132.65404628699594,130.44250891259432,204.0377888702026,208.4731570376856
0.6339673006339673,24.567204628543507,31.94845196647224,158.42113109577943,169.2689442117105,132.65291258831337,130.45104448759926,204.0330446212388,208.6133826698305
0.6673340006673341,24.53559101780784,31.85790543547527,158.21537176626035,169.13725470356903,132.6783032360543,130.44237610339135,203.98622836289684,208.7556613229333
0.7007007007007008,24.446906795966385,31.825158738512613,157.8540388647227,169.13799981282023,132.71981421193678,130.41425838602842,203.89410631576223,208.9052947852745
0.7340674007340674,24.346550007017555,31.780825930332487,157.44412864184935,169.13767188541806,132.7440863718189,130.36594367225186,203.7744247873508,209.06387324016544
0.7674341007674341,24.24657379814811,31.79475058725204,157.0969843026464,169.22049887568284,132.7527668903132,130.32181487744177,203.6443097366364,209.23864147274364
0.8008008008008008,24.180567879334472,31.831717179270623,156.8350024803358,169.3540217491226,132.72538574252837,130.2661720000237,203.51555991101984,209.4328202984887
0.8341675008341676,24.134817698277573,31.825495287393675,156.6129730464797,169.2903889648034,132.71424479899207,130.19826072116348,203.3674384765035,209.6675622206432
0.8675342008675342,24.187286401066483,31.783082802434595,156.55840913042417,169.18609467344805,132.70161311139023,130.13759202869187,203.22369848597884,209.9248880335955
0.9009009009009008,24.27143988224128,31.65779379848128,156.61787114031532,168.9785704287741,132.72613410525196,130.09262607692193,203.0425611968569,210.2036222713276
0.9342676009342676,24.374476729757724,31.48184502534528,156.71000013018053,168.76976565133307,132.73675607660243,130.05630373148637,202.87314822016603,210.50174526533945
0.9676343009676344,24.515224049595577,31.23336309384415,156.9506859696099,168.4229376970404,132.69324235169324,130.02784275579788,202.7594770409177,210.8202553231701
1.001001001001001,24.63671866742233,30.92742285202354,157.30594087656502,167.93470684603037,132.6789536619067,130.0014425215274,202.63438650630823,211.15916104430653
1.0343677010343677,24.780876616819427,30.54759122407684,157.717226609212,167.36631428109766,132.61847863398165,129.98276358572852,202.57156842681388,211.50045526329595
1.0677344010677343,24.926224423626927,30.092378442624007,158.2708523730927,166.7587178544654,132.54624896000152,129.98910925043404,202.5196831431286,211.82642103262387
1.1011011011011012,25.06117227409737,29.585710281676707,158.81566579804783,166.1023715034519,132.4492139380275,130.02123799139002,202.5067775801384,212.13587374014787
1.1344678011344678,25.218844482995657,29.03600824305024,159.47491686325654,165.34121816138855,132.31880493296333,130.08377602857595,202.5414950188872,212.41121848712532
1.1678345011678346,25.36087046268157,28.44224014234106,160.27491237605977,164.52046719582634,132.13194031372038,130.17940175275132,202.6505842087408,212.641342644659
1.2012012012012012,25.46586469201017,27.826934010803537,161.03071023157807,163.69942725572784,131.9692679764813,130.30712822553312,202.79957923046769,212.82687187194847
1.234567901234568,25.51485865044272,27.13312755390474,161.378825077747,162.80834575423458,131.78475134843254,130.46221806676814,203.0209087695248,212.99025561813264
1.267934601267935,25.397645801537365,26.48777375835408,162.2280838387818,162.0751803234587,131.59003471854487,130.66299216311845,203.3040305975992,213.1025059024544
1.3013013013013013,25.1388955367504,25.712268306644244,163.43966319506362,161.2126286636001,131.40799684943377,130.91810653896468,203.64122804624023,213.17424472814852
1.334668001334668,24.98126410698892,24.92727969323576,165.02842190381776,160.4418969649044,131.2278830414947,131.22056150279806,204.0194047081744,213.1668674331709
1.3680347013680347,24.849297235574376,24.056880112315223,166.7878743553246,159.49081908402823,131.01611353517504,131.52922086418425,204.42518016259,213.11900209545232
1.4014014014014016,24.628512073189405,23.065947018203293,168.01510834604045,158.36746473573132,130.78538647854757,131.86757734037374,204.8619066399368,213.0021651055013
1.4347681014347682,24.344683866619576,21.95887228021474,168.9119837995491,157.1755933116931,130.5142090750642,132.23664558196302,205.3398214797539,212.8209591298805
1.4681348014681348,23.997043689581044,20.75772606974634,169.83880804085388,155.61975097131892,130.2253043205002,132.63073818654024,205.8494896754628,212.56852839376847
1.5015015015015016,23.672058295888444,19.45963854780284,171.37065083070183,153.94098264010125,129.89481529908895,133.03735434882734,206.39825752081865,212.24928598212745
1.5348682015348682,23.28572575863136,18.105063909160933,172.81916751509996,152.14169213613923,129.52317930070177,133.4584112181639,206.99212712704755,211.8708811971198
1.5682349015682349,22.710904647578992,16.68752465400495,174.73230227990797,150.3065840791275,129.11135087941787,133.92023491717654,207.6281795407181,211.4241332590373
1.6016016016016017,21.94519530631654,15.312866836434958,175.52549884017964,148.3645457678899,128.68286995212105,134.42193806878038,208.28112786387177,210.90694921863988
1.6349683016349683,20.945305861041245,13.927593223961797,176.3896427694222,146.5540695324958,128.24792833729015,134.9489024660638,208.9251261409428,210.3271635152687
1.6683350016683351,19.76087496732911,12.500169723096336,177.2559133059553,144.39655836835635,127.78464680536852,135.50807983120637,209.552462672664,209.6845293649231
1.7017017017017018,18.503064028100948,11.080896213401132,177.6434317177519,142.2915226546995,127.2653608576044,136.051697866718,210.1729922681945,209.0283023216982
1.7350684017350684,17.24490604608088,9.68021645919967,177.855771174915,140.2511324917436,126.76611185810562,136.6061102008388,210.7801413498492,208.3514041772968
1.7684351017684352,15.827570430329937,8.423378882850933,178.400828198808,141.90709978157423,126.28479343576622,137.14628511287802,211.3358304454832,207.657414851171
1.8018018018018016,14.400752723957169,7.291076420794298,179.08979475994474,143.03669086413157,125.82329277970231,137.64338752406988,211.8452468558536,207.02258141085272
1.8351685018351689,13.004699254900832,6.292419531548088,180.6299953887944,143.89903378856022,125.38860449232791,138.12748054686568,212.32636594517768,206.40972378194127
1.8685352018685355,11.59185895208454,5.333251694823061,180.9729156428681,144.04714329416947,124.9646195872125,138.62230526107325,212.7907734865508,205.79649153387209
1.901901901901902,10.402466055717218,4.567239107964099,181.25929771946736,143.6656621803227,124.60065425220888,139.14615761952624,213.2216582324656,205.18150874694325
1.9352686019352687,9.627492502655391,3.683702972877729,183.74812236261067,142.204378131864,124.30766530977904,139.6749497853943,213.60783296332545,204.5775966128436
1.968635301968636,9.12064847421716,2.840405547444453,185.91800932009852,141.2539322418315,124.12954958791912,140.2079775948447,213.9373641146227,203.997624331004
2.002002002002002,8.788703505224339,2.34876269533261,187.57855592152785,140.87056199594852,124.00957933906442,140.75029590756424,214.2335836578877,203.43146756340616
2.035368702035369,8.625390528795041,2.104402734343732,188.7834818729285,139.8934864120535,123.95544724548095,141.29781508893709,214.4835549396063,202.8719492114289
2.0687354020687354,8.625390528795041,2.104402734343732,189.6120306567988,136.8600574406147,123.90132458418417,141.8354375209157,214.7597653838582,202.3196154044757
2.1021021021021022,8.625390528795041,2.104402734343732,189.90201835016475,133.89610330128346,123.88859461738042,142.3624951573871,215.0251218886001,201.76981001328824
2.135468802135469,8.625390528795041,2.1198671355799474,189.52826189822304,129.995942611881,123.97205519726654,142.87799949877748,215.24180686193912,201.2294314214413
2.1688355021688355,8.625390528795041,2.1198671355799474,188.5789376785156,124.18901030151336,124.08353812627831,143.3924351813413,215.49883239365,200.6961270029264
2.2022022022022023,8.6955157753842,2.1198671355799474,187.1700333295978,113.17609417573118,124.27393402638022,143.8996217305956,215.7008254187241,200.18435649814896
2.235568902235569,8.952249972761111,2.1198671355799474,185.18846787373369,104.74082433698224,124.49839833536676,144.38422280680743,215.92799734628107,199.69676948509496
2.2689356022689355,9.372897668958087,2.3947599513880022,182.8627940178185,98.48500483958377,124.77311568708402,144.85053396085036,216.1734201273227,199.22986836768936
2.3023023023023024,9.989082737873463,2.3947599513880022,180.07024753294382,93.57440532252942,125.11770596834631,145.29482941891433,216.42692751309124,198.7870509007421
2.335669002335669,10.746207025751996,2.3947599513880022,177.41504198517742,92.7489634596778,125.55907476872784,145.71229991838152,216.67044715967629,198.3790521436906
2.369035702369036,11.546734820358395,2.3947599513880022,174.74134382294437,92.54190030089003,126.00895216548746,146.1092351280685,216.9376546487353,198.0060574669813
2.4024024024024024,12.522931023665654,2.3947599513880022,172.58328909563093,93.05314825813512,126.49469495069332,146.48545186927146,217.1897560497908,197.6379711892788
2.4357691024357693,13.517535593294737,2.3947599513880022,169.24341069275528,92.53239281852572,126.99014638983736,146.83070733808947,217.45183769991024,197.29551464713407
2.469135802469136,14.909622628622229,2.3947599513880022,165.7136514022534,91.2287375150542,127.43182815837343,147.13004971338054,217.7387594655506,196.967444267164
2.5025025025025025,16.606620943755097,2.3947599513880022,162.00394346875188,89.30625903951598,127.8073913687044,147.38218566246636,218.0510175356221,196.68269850441249
2.5358692025358693,18.49022886520784,2.3947599513880022,158.14467325309417,86.99614611206054,128.1444180106166,147.6147027171307,218.38701575364703,196.410331729883
2.569235902569236,11.202870647961008,2.3947599513880022,154.85278787127638,84.3650897138957,128.43448240441754,147.83341320812727,218.7562505662512,196.1628333119901
2.6026026026026026,7.201263946429677,2.3947599513880022,152.17251795434822,81.31095116709407,128.69164598109015,148.0554182287258,219.15721422903223,195.9117964309581
2.6359693026359694,5.953023898096937,2.3947599513880022,149.8895702877605,78.33855741475955,128.91308997295585,148.26479965808429,219.5955755765532,195.6820933872196
2.669336002669336,7.215015444553919,2.3947599513880022,147.37167719038823,76.10615108783625,129.0900579898976,148.48216107632652,220.06303723063905,195.46656680498555
2.702702702702702,10.817407856182603,2.944289286444062,145.29343840245008,74.40913831027015,129.21044346115633,148.721617578377,220.55037337804265,195.2557230789114
2.736069402736069,16.48907260168765,2.944289286444062,142.80634395588,73.50323411204512,129.31057173783773,148.92419673354885,221.05892498485807,195.07018076728852
2.7694361027694363,24.0129276481298,2.944289286444062,141.56918953270656,73.27174445036785,129.36655606647892,149.08100149833012,221.58919884473767,194.9258997061741
2.802802802802803,33.06211305002685,2.944289286444062,140.82880782097146,73.50897125708353,129.40362763783972,149.1878886046362,222.12960072185368,194.8211532670156
2.836169502836169,43.388544189659385,2.944289286444062,140.45581126937478,74.71046247295497,129.41740275515937,149.25764820455976,222.66788515367168,194.7558613744812
2.8695362028695364,54.89738842630316,2.944289286444062,141.2393687121073,77.02039804718453,129.48780896489507,149.2760325290146,223.17253497740543,194.71952379976787
2.902902902902903,67.46366003380403,2.944289286444062,142.82316493144552,80.66645120768618,129.57859925824351,149.25348167647724,223.66007429985152,194.69291207102805
2.9362696029362696,81.04210462241838,2.944289286444062,144.61998622383788,81.15776399406873,129.69374264235074,149.18761799926668,224.13136771487257,194.69805021434647
2.9696363029696364,95.4658808416216,2.944289286444062,146.5286178082177,81.13803723569264,129.83770550335962,149.11630697376668,224.5872170370629,194.6704267444105
3.003003003003004,110.3678309873907,2.944289286444062,147.61508872363703,79.24753911368481,129.9647130271844,149.0072221949273,225.03076870714057,194.68081530325952
3.0363697030363697,125.64175034043132,2.944289286444062,151.22110169117502,77.55790825680506,130.08618926556315,148.88118385733063,225.4576025132169,194.6998308550972
3.0697364030697365,141.3277528298197,2.944289286444062,155.5133346584141,75.71110429079982,130.19968935183672,148.7261519133484,225.86516131067543,194.7526985409599
3.103103103103104,157.2487103203164,2.944289286444062,158.03280328705725,75.90336551927848,130.32337102525128,148.5362284684603,226.26462183355008,194.79739649134723
3.1364698031364697,173.21096201437518,2.944289286444062,160.38706424330547,76.66503162875365,130.41932122876392,148.33192326969797,226.6557777256294,194.8337620477655
3.169836503169837,197.89845988553287,2.944289286444062,161.59371986151163,77.55660177382276,130.50511983625535,148.0957661205522,227.0456264542515,194.90547851159545
3.2032032032032034,219.73215656418392,2.944289286444062,162.97610390267832,76.79586886396893,130.61264228297202,147.88594045917665,227.42696596186755,194.9431358851201
3.2365699032365702,238.76041478932632,2.944289286444062,160.6466606879439,76.06684633383385,130.7450090320332,147.66995785913693,227.77747084625656,195.0107865669721
3.2699366032699366,254.8788288694791,2.944289286444062,161.10267640093434,70.35209369637478,130.89431794095975,147.46160936521295,228.0930925429113,195.1208950668201
3.3033033033033035,267.4678094552472,2.944289286444062,159.78978370235544,70.96595072183118,131.05133269785267,147.22471566138807,228.4266150241324,195.3364586989601
3.3366700033366703,277.4450746206492,2.944289286444062,159.52250300064492,69.73668253047046,131.24450365881626,146.93899459268064,228.71803458288747,195.745815244656
3.3700367033700367,283.9116147516424,3.769039980360626,159.2040532042354,77.65405824008891,131.37296319096762,146.6439186731156,228.9960155613299,196.3149728369777
3.4034034034034035,287.4886098948543,3.769039980360626,158.14160065832272,85.13442459466451,131.46233391420697,146.36227378576467,229.285005610358,197.00311452614724
3.4367701034367704,287.45359062360785,3.769039980360626,157.49275280231805,92.25571010523444,131.54286735313246,146.05681932607968,229.5683095213903,197.8333544328123
3.4701368034701368,284.1987143582373,3.769039980360626,157.4530921783552,100.09069308143626,131.56206602542366,145.71832809988643,229.86784470045245,198.826829958872
3.503503503503504,277.84155871407273,3.769039980360626,157.15502476383628,105.08149464615164,131.4765661346249,145.34241405297797,230.13686347562904,199.99750259237925
3.5368702035368704,268.5870494411795,3.769039980360626,156.48094976575777,109.1417286470506,131.249448106332,144.95090300613649,230.4539099478618,201.28971699117417
3.5702369035702373,256.0221158053258,3.769039980360626,155.1708010839487,111.71979555697894,130.92966792887276,144.55213478329085,230.67481380166464,202.7128335775765
3.603603603603604,240.3140325804642,3.769039980360626,154.85416477647988,113.9546823910934,130.52175041318026,144.13605160944277,230.72047005412853,204.19299915703985
3.6369703036369705,221.0029716927816,3.769039980360626,154.6065478106946,116.07936022950508,130.14774904826874,143.7105821668218,230.5663639632103,205.7117361891792
3.670337003670337,197.97472858925272,3.769039980360626,154.5952788960306,117.64351280687168,129.84061506879675,143.23543426425115,230.1068555678897,207.2470948403208
3.703703703703704,171.5956056338927,3.769039980360626,154.50612787082605,118.85709694875736,129.47938282769042,142.69783219190575,229.64319847213227,208.8140995639587
3.737070403737071,154.31754383710137,3.769039980360626,154.52665907295938,120.0532606110642,129.07288562513884,142.12663332097998,229.081942669922,210.41923037402915
3.770437103770437,136.7380649382173,3.769039980360626,155.27244752090388,121.01639836615216,128.77206399914868,141.5020718304886,228.31465953245703,212.0756097425981
3.803803803803804,119.3448989411554,3.769039980360626,156.73234184274122,122.250814480014,128.60662111182748,140.86072675290748,227.37595743622447,213.757621996229
3.8371705038371706,102.30817842555616,3.769039980360626,158.51558960324073,123.33921907346776,128.5672871108365,140.24186288477335,226.3728011825828,215.4049074463757
3.8705372038705375,85.85080671055738,3.769039980360626,160.05855080599605,124.33871216838884,128.63977208706137,139.6225021764671,225.29210046975945,216.9845879976253
3.903903903903904,70.35969141054423,3.769039980360626,160.8183583978949,124.88522710627171,128.76672979686646,139.00556730747073,224.0913817816688,218.48126047082744
3.937270603937271,56.178691172192806,3.769039980360626,161.5101684323257,125.31282863943566,128.969482115913,138.4548721749178,222.80024675484927,219.821829689224
