Time,Left Shoulder Angle,Right Shoulder Angle,Left Elbow Angle,Right Elbow Angle,Left Hip Angle,Right Hip Angle,Left Knee Angle,Right Knee Angle
0.0,26.72484226820644,32.767827039316686,148.1477690715265,165.3833236360313,133.99871947540962,133.00763222866783,206.3081110827009,205.8685526131087
0.0333667000333667,27.068244586557963,33.13933590497269,149.14280873534358,166.48535853687986,134.06676903404784,132.84757508665697,206.44778119019503,206.2207403741851
0.0667334000667334,27.3902567936244,33.427389434619336,150.06583211188934,167.4067632253004,134.11074055321112,132.70122607995765,206.5717558182424,206.531856770347
0.1001001001001001,27.69165666867928,33.63928202800936,150.92142945976516,168.16142147247697,134.13438536879545,132.56968701893308,206.67953680560527,206.8024361382664
0.1334668001334668,27.97322199099613,33.78230808489549,151.7141910375724,168.7632170495934,134.14145481669686,132.4540597139465,206.770625991046,207.03301281461543
0.1668335001668335,28.23573053984849,33.86376200503044,152.44870710391237,169.22603372783382,134.13570023281136,132.35544597536105,206.8445252133265,207.22412113606617
0.2002002002002002,28.4799600945099,33.890938188166935,153.12956791738645,169.5637552783821,134.12087295303496,132.27494761353998,206.9007363112092,207.37629543929063
0.2335669002335669,28.706688434253884,33.871131034057704,153.761363736596,169.79026547242228,134.10072431326364,132.21366643884647,206.9387611234563,207.49007006096105
0.2669336002669336,28.91669333835398,33.81163494245547,154.34868482014235,169.91944808113828,134.07900564939342,132.17270426164373,206.95810148882995,207.5659793377493
0.3003003003003003,29.110752586083727,33.719744313112955,154.89612142662688,169.96518687571412,134.05946829732034,132.15316289229497,206.95825924609235,207.6045576063276
0.333667000333667,29.28964395671665,33.60275354578289,155.40826381465092,169.94136562733377,134.04586359294035,132.15614414116337,206.93873623400577,207.60633920336792
0.3670337003670337,29.454145229526297,33.467957040218,155.88970224281582,169.86186810718118,134.0419428721495,132.1827498186121,206.8990342913324,207.57185846554245
0.4004004004004004,29.60503418378619,33.32264919617099,156.34502696972294,169.74057808644037,134.0514574708438,132.23408173500445,206.83865525683444,207.5016497295232
0.4337671004337671,29.74308859876987,33.17412441339461,156.77882825397364,169.59137933629526,134.0781587249192,132.31124170070356,206.7571009692741,207.39624733198227
0.4671338004671338,29.869086253750865,33.029677091641574,157.19569635416923,169.42815562792987,134.1257979702718,132.41533152607266,206.6538732674137,207.2561856095917
0.5005005005005005,29.98380492800272,32.8966016306646,157.6002215289111,169.26479073252816,134.19812654279752,132.54745302147492,206.5284739900153,207.08199889902363
0.5338672005338673,30.088022400798955,32.782192430216426,157.99699403680063,169.1151684212741,134.29889577839245,132.70870799727356,206.3804049758412,206.8742215369501
0.5672339005672339,30.182516451413345,32.693743890050015,158.39060413644037,168.993172465353,134.43185701295357,132.90019826383278,206.2091680636552,206.63338786004488
0.6006006006006006,30.17559667292212,32.76676321652564,158.7775306398751,169.0042450902027,134.64453224851988,133.1230796013232,205.9165762256888,206.42442797356293
0.6339673006339673,30.32544680764577,33.00706599768746,159.42033570389586,169.3249162441431,134.90404706656773,133.4153460382952,205.6522909586752,206.15114811920225
0.6673340006673341,30.467158473266053,33.32179103911788,160.06738504909887,169.79183923603424,135.23444472374592,133.75664063771077,205.37722103915425,205.82562224515365
0.7007007007007008,30.51985201389557,33.70284168600816,160.55324591453825,170.35728870316527,135.68038593895267,134.12368724164844,205.0874384238369,205.4499779450396
0.7340674007340674,30.47884732718352,34.09975716803276,160.88852455754304,170.96513326357993,136.2046001289301,134.53092816442626,204.77525113597096,205.01567270388523
0.7674341007674341,30.36669719734316,34.54693524248022,161.00987726913502,171.5419174127127,136.80657126400502,134.97246295541115,204.4876514124274,204.51551709739823
0.8008008008008008,30.270568072296,34.97743932558487,161.19812928409002,172.18536085260666,137.43519622271194,135.4790209505681,204.17538501871687,203.95390688967908
0.8341675008341676,30.255394498542493,35.710810933734464,161.4674068139648,173.58696811901518,138.0403179333567,135.98619046009924,203.90612611650664,203.27901867129177
0.8675342008675342,30.23621779370084,36.25751334722332,161.81037895842312,174.728717255051,138.6392079808902,136.55096074415897,203.5888250322822,202.57177159697844
0.9009009009009008,30.22949797624232,36.792673352191166,162.2580997127755,176.04786603335126,139.32830337299563,137.17211441539973,203.1914857617232,201.8597366022876
0.9342676009342676,30.25291529457972,37.16465694115585,162.795484510901,177.04009546458352,140.0214664690336,137.79764528212593,202.7389218503332,201.18438995887604
0.9676343009676344,30.189551349811865,37.245452489226494,163.26235155475976,177.44133380278706,140.70222370784657,138.42680606831874,202.214098988499,200.5391034731764
1.001001001001001,30.15897880741965,37.12421223880087,163.79475124290505,177.4348241215935,141.27092802908862,139.00322275661242,201.68773039581149,199.934322016262
1.0343677010343677,30.141563216486137,36.85474966097984,164.4278162836019,177.13262975880565,141.84766307475863,139.5864051456767,201.1241722860417,199.3534852839305
1.0677344010677343,30.137869116839248,36.4450747202896,165.1711100808936,176.59920456876253,142.43087117882112,140.19005823774003,200.5364947939235,198.7958475000643
1.1011011011011012,30.1138127664494,35.91762236478047,165.60731426933768,176.06744164313156,143.006577883633,140.76714986042904,199.93217982306115,198.2892166028205
1.1344678011344678,30.02554667968062,35.205416179934325,165.53504973778072,175.22855907590662,143.55624974730344,141.33861441326627,199.32330716181093,197.82505303174548
1.1678345011678346,29.86552147077784,34.30819220405362,170.44215163308758,174.62175472835764,144.06137670717365,141.90112257074065,198.7165414429316,197.42179223389704
1.2012012012012012,29.660666931079,33.31020054663046,174.00970830579956,174.05424045483304,144.52190963109462,142.45488915881052,198.137498467198,197.0663291947464
1.234567901234568,29.536123482499416,32.716930535406235,170.66567152326735,172.9391119447424,144.94613912767124,142.9739806092423,197.57759388484016,196.7680512504772
1.267934601267935,29.38599064080585,31.88948174058089,168.4518571882585,171.15751432554114,145.33422103271502,143.46015730684002,197.0499939534492,196.5263375820845
1.3013013013013013,29.218349629923004,30.69328987233493,165.08539287209572,169.40926179597506,145.65223143116904,143.89140013121556,196.57992325360829,196.34649452639576
1.334668001334668,29.20159812853176,29.26355052828213,162.2231800824321,167.24122202661545,145.9361973765295,144.30962435996676,196.15577522744087,196.2194962669002
1.3680347013680347,29.171492008606734,27.67235335288657,160.10138858745484,164.5381347793345,146.14408580632283,144.6860644311412,195.7944045860194,196.11186762218125
1.4014014014014016,29.134512495964024,25.91805228826228,166.2105223598301,161.32092960880132,146.2512805218716,145.02945659301832,195.52053875264664,196.0247813311264
1.4347681014347682,29.19938612698503,24.14477662030713,166.09974205185102,157.1721421650714,146.18355848048802,145.33503843361595,195.3202952706353,195.97738868189776
1.4681348014681348,29.222452972547305,22.33529989846052,166.80580827191443,152.9057998295428,146.023999049333,145.62579292590434,195.19908344559505,195.97396833494471
1.5015015015015016,29.37901622489255,20.51350242519095,171.34645334270886,148.69087087048635,145.76657298817602,145.87518713707425,195.14842243209395,195.9948616477949
1.5348682015348682,29.46309143668263,18.70774363234092,175.29724534599572,144.50136926580828,145.5188035449254,146.11091559059332,195.1337303142072,196.057409044468
1.5682349015682349,29.42622444197773,16.919586150002157,179.92805464090466,140.85092986634226,145.26738704696436,146.32263797176037,195.1704987644363,196.1402013229871
1.6016016016016017,29.28253854408084,15.08427661832826,183.26690671089565,137.16982560793036,145.0222822299187,146.47108750009082,195.2785589949516,196.26998736414768
1.6349683016349683,29.326070027467456,13.545214337198288,183.83045111687343,133.36022885155865,144.797497867711,146.55054370168205,195.45465818886024,196.4426554943137
1.6683350016683351,29.269611410641915,12.112981786429904,183.2161753056578,129.69546490241896,144.70255439372855,146.6784635580201,195.59008820318408,196.64271137598155
1.7017017017017018,28.679755142255047,10.81318844804957,183.81119505545144,126.1286698711628,144.6620140153012,146.80647013942288,195.7313998255058,196.8590417900592
1.7350684017350684,27.89928554075487,9.600038553190329,183.0205772254455,122.62612086440814,144.660336994629,146.99791710826236,195.91630054140097,196.99498978568093
1.7684351017684352,27.52014444775084,8.81992463280956,176.94780433603805,118.98246172857684,144.71515398567612,147.1670912827321,196.08397534220111,197.06257678479292
1.8018018018018016,26.68983099421244,7.985098795375771,166.38382564230685,115.15836465616378,144.81200010997617,147.29435203363423,196.25567184411648,197.12489692527325
1.8351685018351689,25.645394125057685,7.181405861644464,161.25118613468146,111.27483445819176,144.94584216488963,147.3944414684496,196.4746460949264,197.14810773383763
1.8685352018685355,24.57476308389012,6.560321876972183,158.28696996161042,107.63352199401594,145.04275505351703,147.49989779428608,196.71841518604475,197.114197496556
1.901901901901902,23.306616081548327,6.167809476451339,153.6933079309463,104.40128327653515,145.0725204760503,147.6105278422693,197.02754821996592,197.0300684404352
1.9352686019352687,22.111812559833663,5.875039735687269,148.95084508511377,101.51225930734216,145.03333590919354,147.72648499824436,197.3297456471488,196.9127134952321
1.968635301968636,20.80636488152821,5.310659199828216,146.35642688788354,99.35701474674102,144.96886720428705,147.83318444828487,197.6947754957204,196.7635746859972
2.002002002002002,19.30264256532593,4.335184019831855,142.5635449394067,96.69359745358072,144.93701833366814,147.9587698787887,197.98620452125385,196.67513833478856
2.035368702035369,18.173000339946803,3.440041676571417,134.69004664752148,95.29414017699705,144.95201078748042,148.08745891259093,198.22639794672827,196.58978258794872
2.0687354020687354,16.782021844730785,2.693535372343212,125.85116551254154,93.4214929788806,144.88078325568554,148.1469977136972,198.4667922549881,196.4999391861914
2.1021021021021022,15.233528930635538,2.0158677192214194,113.950167619238,90.7137166385552,144.71448448430226,148.12588266283038,198.72700461747783,196.40529464683328
2.135468802135469,13.881040128192698,2.0158677192214194,104.41359114682048,87.81405311145105,144.476701461782,148.00797260755706,199.03242402842247,196.36105624661383
2.1688355021688355,12.961517595515025,2.0158677192214194,97.59226380589332,84.32896020500873,144.30365391177816,147.86406572693122,199.3009640375467,196.3456451068296
2.2022022022022023,12.081765257875782,2.0158677192214194,91.71941345867556,80.75451069816738,144.09665517374256,147.70690740227172,199.5475989573524,196.2628494030932
2.235568902235569,11.274755245756976,2.0158677192214194,87.20836719154352,77.13416937771329,143.85510054895565,147.5151791860415,199.7871434266937,196.12504362848807
2.2689356022689355,10.55501478530313,2.0158677192214194,84.3347525181341,73.51865206557223,143.61324748175355,147.34047449827284,200.02300963809947,195.9263001442088
2.3023023023023024,9.544760946966104,2.0158677192214194,81.90702148980785,70.05283109351726,143.36855543771793,147.15883121781562,200.2494000607168,195.6763031498284
2.335669002335669,8.730915203639345,1.6966288045124056,78.4505670431854,66.28215762961284,143.1146913697774,146.97009017775713,200.5015666480652,195.37274865450013
2.369035702369036,7.683444177752927,1.8075170370033755,75.82026652184068,62.01828069693326,142.85434502712735,146.79210695138673,200.78810863855372,195.04202944700788
2.4024024024024024,-1.8301992183278049,2.259087377406275,77.32721216693137,57.79067659468417,142.58344941545226,146.64370067190566,201.10429633421245,194.6847871323769
2.4357691024357693,-8.462348090263854,2.259087377406275,79.77270403538087,53.78651339100653,142.28132681089835,146.53224762802498,201.4631068949632,194.33101581049075
2.469135802469136,-12.361877066081307,2.259087377406275,85.43025990753893,49.49912525925959,141.95383950837348,146.42273097438118,201.8474581913828,194.00081775288515
2.5025025025025025,-12.264306696585624,2.259087377406275,92.1886561072632,45.22271169047893,141.59562369599072,146.29726161855007,202.26517989905776,193.67257816161947
2.5358692025358693,-9.668911168251926,2.259087377406275,101.27194656129386,41.22461650368673,141.2199629242447,146.1767793912933,202.68521162627675,193.34614148778527
2.569235902569236,-4.414825766164402,2.259087377406275,102.60725514254229,37.55246448864512,140.91552892262956,146.05384116167562,203.0918034105168,193.0291527577384
2.6026026026026026,2.1490580840080504,2.259087377406275,111.05718420293763,34.947642623822766,140.7939501215785,145.95991554389482,203.49528641234943,192.742234319973
2.6359693026359694,2.1490580840080504,2.259087377406275,120.6455183869016,32.84425011034655,140.6679260177121,145.89691663704224,203.8378674551262,192.47129422153247
2.669336002669336,2.1490580840080504,3.075630188994144,127.141067454236,31.19587515583121,140.56313221381663,145.8414587497561,204.1720662427417,192.22895682175772
2.702702702702702,2.1490580840080504,3.075630188994144,133.65567107070828,30.09653515718196,140.51977341232035,145.8021258812916,204.4859866393124,192.01414196853176
2.736069402736069,2.1490580840080504,3.075630188994144,138.20744540318725,28.944520568737847,140.4953097629956,145.78032998235062,204.75629414763225,191.80872331693047
2.7694361027694363,2.1490580840080504,3.075630188994144,141.9849181769983,28.031949933036664,140.47603798683403,145.78375007097762,204.9788591637213,191.6068859324843
2.802802802802803,2.1490580840080504,3.075630188994144,146.924015771874,27.57657118122734,140.37177501287044,145.80841234916136,205.1730903312433,191.4213695333092
2.836169502836169,2.1490580840080504,3.075630188994144,152.06581583930392,27.68646673215075,140.2512353257558,145.8392781602273,205.32414551038065,191.2508626543305
2.8695362028695364,2.1490580840080504,3.075630188994144,154.30342873402492,28.113446972042468,140.1190034429229,145.86813057678228,205.42356153826267,191.0915818726029
2.902902902902903,2.1490580840080504,3.075630188994144,155.1123895042099,28.91526449920705,139.96093647671086,145.88297704419085,205.488057154032,190.97510575129616
2.9362696029362696,2.1490580840080504,3.075630188994144,159.53770102757937,30.225603316004467,139.7140534054279,145.89490991864366,205.6018869146565,190.88489889656464
2.9696363029696364,2.1490580840080504,3.075630188994144,169.53265844462385,31.9639277697537,139.45313304914723,145.9289816173207,205.7002803802152,190.80587942978624
3.003003003003004,2.1490580840080504,3.075630188994144,175.22789846087323,34.32046753137682,139.1532593695812,145.99061454634924,205.75083852212072,190.71573962427337
3.0363697030363697,10.608523521567175,3.075630188994144,177.6882528547914,37.18328723047555,138.80072364028948,146.08109839482046,205.7936957684243,190.603964745354
3.0697364030697365,20.381678979836217,3.075630188994144,180.22138113274684,40.32656061140655,138.4471207235202,146.17558310038265,205.8003988075076,190.5149034700269
3.103103103103104,31.39270687727901,3.075630188994144,181.9327244356446,43.78518985007194,138.13236908701404,146.27488227052015,205.8409650204117,190.44025377407544
3.1364698031364697,43.54096611300609,3.075630188994144,179.46376185148486,47.06586627749939,137.77787843232193,146.3610597725962,205.86726732352977,190.37672553246216
3.169836503169837,56.77507431908145,3.075630188994144,175.2654026592341,50.31637228441248,137.417654562528,146.46100715055235,205.86400392277133,190.33169673879547
3.2032032032032034,70.47975802731197,3.075630188994144,173.41573720584245,52.129566319838176,137.02547914862134,146.49886114309444,205.87711404715492,190.3316053278412
3.2365699032365702,84.63155679842613,3.075630188994144,172.2347428614822,53.18344163772269,136.5767168990771,146.50335478572111,205.9461149664064,190.3833452065792
3.2699366032699366,99.61848002242012,3.075630188994144,175.3160018742377,54.14872855319856,136.1121349708505,146.5122097162625,206.0290060466997,190.4555081149797
3.3033033033033035,115.0117178519658,3.075630188994144,178.3749726832015,54.894382779343005,135.66345607891867,146.53262496743685,206.1174951374052,190.47973198539057
3.3366700033366703,129.94197343226543,3.075630188994144,180.4513865610323,55.87040793442073,135.20868727424684,146.59185724278194,206.2200179151,190.4264571716946
3.3700367033700367,144.9469505226304,3.075630188994144,182.8414138856212,56.68294560435231,134.75145154618525,146.66609842706106,206.37697350498587,190.3881879732044
3.4034034034034035,159.780292165439,3.075630188994144,185.20306253536603,57.48160393007695,134.31098479388942,146.74891944761757,206.55030272729016,190.3713704268953
3.4367701034367704,174.13550230322477,3.075630188994144,187.67578200084205,58.08446440606328,133.93948982817878,146.8808019165874,206.7169717389965,190.36918974449608
3.4701368034701368,188.0454148639505,3.075630188994144,192.40988169036,58.55950088059155,133.6314368531288,147.03679186102758,206.9032024759309,190.3832151989336
3.503503503503504,201.14579889451093,3.075630188994144,193.52220198087755,58.759804724447385,133.4735860947553,147.25999850682655,207.1504736897793,190.3010735826385
3.5368702035368704,213.4294066582084,3.075630188994144,192.18122688234675,58.79930626594853,133.31989219222032,147.49240279606002,207.4800524110017,190.1810681113661
3.5702369035702373,224.9352440581255,3.075630188994144,192.4858769926482,58.97523265131973,133.1515204637695,147.71711044506992,207.81297089877452,190.02886993758645
3.603603603603604,234.8641699822712,3.075630188994144,191.8391569748228,59.11511606801157,132.9748343691098,147.8599758710558,208.15583241755155,189.89316348020407
3.6369703036369705,243.6141510449974,4.163760931698185,190.1459642040864,59.61668996508653,132.72480085759184,147.97030844671372,208.584028698626,189.7692289970146
3.670337003670337,251.07689766318268,4.163760931698185,189.68965822230572,60.05500972832467,132.41704974326953,148.0114421464214,209.03292225274123,189.7468859851422
3.703703703703704,256.9437261797651,4.163760931698185,189.99861217575776,60.32128164461423,132.15891537823055,148.04976255033472,209.46228108198744,189.7387313813393
3.737070403737071,260.6171519596248,4.163760931698185,191.28006478600705,60.35271117595065,131.89137024716493,148.03455437533333,209.8352782096919,189.85808055698075
3.770437103770437,262.27705916421667,4.163760931698185,193.54154911181487,59.32928553134874,131.58021771867317,148.00407544939378,210.11968146665612,190.0741600208219
3.803803803803804,261.74708319883865,4.163760931698185,195.23078927520777,59.09476456363809,131.31966990875495,147.82445145401238,210.37270131630044,190.44722489498207
3.8371705038371706,258.8265067245634,4.163760931698185,196.7698664671885,52.80020469152038,131.17016245850297,147.79349000682552,210.267675116904,191.04293391178663
3.8705372038705375,253.9023326731192,4.163760931698185,195.0902604228439,50.97369636821746,131.04320344581478,147.49881134818827,210.13353877444672,191.76741640644184
3.903903903903904,246.25822433769287,4.163760931698185,198.59976246917168,53.085067952430485,130.92033964696734,146.4370853796841,209.96709013791835,192.5686834378272
3.937270603937271,236.5234995797244,4.163760931698185,200.34422153362885,54.52003614350128,130.7900799974705,145.37325405282485,209.7930805749096,193.4473275047943
