Time,Left Shoulder Angle,Right Shoulder Angle,Left Elbow Angle,Right Elbow Angle,Left Hip Angle,Right Hip Angle,Left Knee Angle,Right Knee Angle
0.0,3.4520292377009936,10.507842232128882,187.57609574459423,150.21211528815724,158.08033371714546,198.9604935351084,180.85768515176343,182.03104053338708
0.0333667000333667,3.324982769275964,9.874043236624784,187.10675894063715,151.13184037882883,157.86425612900612,198.3992010596852,180.9749940792898,182.1861997123713
0.0667334000667334,3.2147086184214424,9.302910676197111,186.7274824940813,151.93940854391926,157.6779398650963,197.89912489349925,181.08859060593383,182.3124720658083
0.1001001001001001,3.1200494590842363,8.791722716769304,186.4313925333625,152.6407081939543,157.51958809841705,197.4576119655624,181.1985608198457,182.4115518899104
0.1334668001334668,3.039847965211148,8.337757524264802,186.21161518691665,153.24162773945994,157.38740400196923,197.0720092048862,181.3049908091756,182.4851334808899
0.1668335001668335,2.972946810748982,7.938293264607046,186.06127658317945,153.74805559096205,157.2795907487539,196.7396635404824,181.40796666207345,182.53491113495951
0.2002002002002002,2.918188669644544,7.5906081037194735,185.9735028505868,154.16588015898648,157.19435151177194,196.4579219013628,181.5075744666896,182.5625791483316
0.2335669002335669,2.874416215844636,7.291980207525526,185.94142011757447,154.5009898540592,157.1298894640244,196.22413121653884,181.60390031117404,182.5698318172184
0.2669336002669336,2.840472123296064,7.039687741948642,185.9581545125785,154.75927308670612,157.08440777851217,196.03563841502245,181.69703028367704,182.55836343783264
0.3003003003003003,2.815199065945631,6.831008872912262,186.0168321640344,154.9466182674531,157.05610962823624,195.88979042582525,181.78705047234865,182.5298683063866
0.333667000333667,2.797439717740142,6.6632217663398245,186.1105792003781,155.06891380682606,157.0431981861976,195.78393417795888,181.87404696533903,182.4860407190928
0.3670337003670337,2.7860367526264014,6.533604588154772,186.2325217500455,155.13204811535087,157.0438766253972,195.7154166004351,181.9581058507984,182.4285749721636
0.4004004004004004,2.779832844551213,6.43943550428054,186.3757859414724,155.1419096035535,157.05634811883596,195.6815846222656,182.0393132168767,182.35916536181145
0.4337671004337671,2.777670667461381,6.3779926806405705,186.5334979030945,155.1043866819598,157.0788158395149,195.67978517246203,182.11775515172425,182.27950618424885
0.4671338004671338,2.7783928953037105,6.346554283158304,186.69878376334776,155.02536776109565,157.10948296043497,195.7073651800361,182.19351774349107,182.19129173568825
0.5005005005005005,2.7808422020250045,6.342398477757179,186.864769650668,154.91074125148702,157.14655265459714,195.7616715739996,182.2666870803274,182.096216312342
0.5338672005338673,2.783861261572068,6.362803430360636,187.0245816934909,154.76639556365976,157.18822809500236,195.8400512833641,182.33734925038328,181.99597421042265
0.5672339005672339,2.786292747891731,6.405047306892181,187.171346020254,154.59821910814105,157.23271245465287,195.93985123714296,182.40559034181035,181.892259726144
0.6006006006006006,2.78948246654719,6.503894445120715,187.2586829043382,154.33720715946995,157.23635678835734,196.09462151085364,182.5278284292836,181.82219673614213
0.6339673006339673,2.778392099299776,6.643514948485457,187.2068630148081,154.00658885454365,157.25431054689838,196.21262819631195,182.6195252977809,181.7548400659314
0.6673340006673341,2.755232181803478,6.793770492961175,187.0183345581216,153.67257450902238,157.27695982748517,196.31532940595383,182.6957838880421,181.69088364907412
0.7007007007007008,2.727167053748331,6.928654912650604,186.7845445629248,153.3506937002307,157.29280369441165,196.4310343163816,182.76700970709112,181.62331754533085
0.7340674007340674,2.675557591462687,7.0578362033880975,186.4984104229064,153.0793335708339,157.30895643262306,196.59130701672848,182.82636058297987,181.5238321124313
0.7674341007674341,2.6132722064551137,7.198738681743372,186.2396557647376,152.8373415446355,157.3031939268956,196.7470644744604,182.9015047981435,181.4307842144493
0.8008008008008008,2.5520269854362474,7.287062802301184,185.99677072669067,152.69144661395822,157.27515515980912,196.912374973354,182.95761449804732,181.3406283492745
0.8341675008341676,2.4837010100917696,7.309770675864691,185.76731397425,152.67521794895111,157.22749024255955,197.09070222553808,183.0199996772473,181.24995432970084
0.8675342008675342,2.4054182416740617,7.258279302124123,185.49142503873728,152.81035655920437,157.16608483206625,197.2774786778536,183.0650573551886,181.16438498957183
0.9009009009009008,2.3184933333964417,7.155065674692982,185.25066267174776,153.1003559082172,157.12033934428902,197.481811658335,183.06455640568709,181.07753541614147
0.9342676009342676,2.2219518941831256,7.00768662747457,184.9971183220623,153.63460875267583,157.11159903494482,197.7382630476289,183.01776905273096,180.96440613088865
0.9676343009676344,2.151359327937786,6.875210718197255,184.80868705431024,154.18892203532113,157.15477093728322,197.98817684255505,182.92407608458583,180.8659628045313
1.001001001001001,2.0831034282931,6.7386380254036045,184.6912148192808,154.78915100350747,157.22465028940607,198.2287391966451,182.8012551626724,180.77011256317527
1.0343677010343677,2.062786514635516,6.560755752971301,184.6806952903798,155.47595274023928,157.3022239135274,198.4140697297933,182.65314093985543,180.70337293239788
1.0677344010677343,2.029973011801895,6.424164802756502,184.7708009672228,156.08839997408066,157.37471278225138,198.5242088437521,182.4857059615428,180.6797572714865
1.1011011011011012,1.9279977426496144,6.215470170094691,184.9643592774744,156.83325816682827,157.44520008385612,198.5928215158852,182.28450694395505,180.6804656260853
1.1344678011344678,1.85604769104148,5.914372064439521,185.1163460211874,157.5860622400321,157.4995183444814,198.625775465578,182.0900315871714,180.69659079287027
1.1678345011678346,1.7541829604608936,5.598245404480474,185.4012344877381,158.46803106311043,157.53855163637343,198.63221610570704,181.92271173633188,180.7166435224632
1.2012012012012012,1.7541829604608936,5.296265588365143,185.7920407048283,159.4488509570813,157.53772020114366,198.5870610423368,181.7737326910875,180.76178710109548
1.234567901234568,1.7541829604608936,5.033354401214752,186.2458067964673,160.46034228688342,157.50828945872473,198.4993102164312,181.64728024964228,180.8203244403192
1.267934601267935,1.7541829604608936,5.020507348568335,186.73551700171512,160.80387388263628,157.4635481038593,198.41487270950284,181.53524332897533,180.86809871239984
1.3013013013013013,1.7541829604608936,5.020507348568335,187.2940730009468,161.0630624633682,157.39305866471895,198.30724837772,181.4503581844916,180.91303493046425
1.334668001334668,1.7541829604608936,5.020507348568335,187.88803342867524,161.47004089436672,157.31210515556245,198.16342265291723,181.38177649718784,180.9596699677772
1.3680347013680347,1.7541829604608936,5.020507348568335,188.46781638281365,161.90067061526833,157.25828987551617,198.01227824801435,181.32499641112668,180.98184381343705
1.4014014014014016,1.7541829604608936,5.020507348568335,189.0409538001575,163.28446267109993,157.18935710046884,197.85605632543172,181.30513492606613,180.98033332823687
1.4347681014347682,1.7541829604608936,5.020507348568335,189.91547798387765,163.34640040095607,157.08887526548497,197.6993382806768,181.332577879284,180.9639223797853
1.4681348014681348,1.7541829604608936,5.020507348568335,190.8295852661233,163.58271029823197,157.0118809730545,197.55663562726585,181.36466156868863,180.9207484057
1.5015015015015016,1.7541829604608936,5.020507348568335,191.90132875107167,163.4794098461752,156.90038351614464,197.3522559095246,181.42849782547304,180.90466779868385
1.5348682015348682,1.7541829604608936,5.020507348568335,193.2161249724537,163.39754658957304,156.7607673483568,197.1161812738638,181.52625939026885,180.9130461301785
1.5682349015682349,1.7541829604608936,5.020507348568335,194.3908251311061,163.4202193222289,156.54692010898523,196.8668234316409,181.67710685747767,180.9457015293322
1.6016016016016017,1.7541829604608936,5.020507348568335,195.73219865116025,163.38727406714978,156.30184234026103,196.6111850385575,181.8730975522986,181.01074456045387
1.6349683016349683,1.7541829604608936,5.020507348568335,197.1121780991832,163.2230611296155,156.05119782942683,196.3335172110383,182.1138109088036,181.0910430441213
1.6683350016683351,1.7541829604608936,5.020507348568335,198.7273890468738,162.73682216060607,155.77022091978117,195.9898760210269,182.3979645336144,181.2160882697437
1.7017017017017018,1.7541829604608936,5.020507348568335,199.7874038884334,162.529383094049,155.41557557113387,195.64987721896256,182.7515270048876,181.36298475734645
1.7350684017350684,1.7541829604608936,5.020507348568335,200.6734914269332,162.61909959772314,155.04440496348445,195.3520590727333,183.14016827689204,181.48021393612163
1.7684351017684352,1.7541829604608936,5.020507348568335,201.72624488235616,162.07532951244636,154.64590256255346,195.09109171151093,183.52926235466947,181.5617873587848
1.8018018018018016,1.7541829604608936,5.020507348568335,202.79835561082265,162.09422049299502,154.28942861092153,194.8250635340605,183.9129365212736,181.6429923165341
1.8351685018351689,1.7541829604608936,5.020507348568335,203.5846035890224,162.13132628684053,153.99376538585983,194.6568040682212,184.29495255846064,181.7057421196156
1.8685352018685355,1.7541829604608936,5.020507348568335,204.1186403067032,164.14602016864967,153.82144293619663,194.52294423127293,184.63679308534452,181.7485905659905
1.901901901901902,1.7541829604608936,5.020507348568335,204.86224585691056,165.86978599695158,153.7924851083698,194.37382685103736,184.9104888245868,181.78507582862
1.9352686019352687,1.7541829604608936,5.020507348568335,205.5273129474533,168.0767911504462,153.83551946428432,194.2327343832023,185.12200301785427,181.7999258950743
1.968635301968636,1.7541829604608936,5.020507348568335,206.31003354464875,166.80628442134025,153.94199469109412,194.05788673813808,185.2903208108917,181.81020973054905
2.002002002002002,1.7541829604608936,5.020507348568335,211.9476176802129,165.84816678555435,154.15132139267135,193.8031487918664,185.38547296235708,181.8399936450709
2.035368702035369,1.7541829604608936,5.020507348568335,216.03507677666627,165.14738486786405,154.44021616241582,193.61970734203425,185.4318345453589,181.8237953917969
2.0687354020687354,1.7541829604608936,5.020507348568335,214.30015742624977,165.15656211513263,154.7533639876916,193.461823188876,185.4739540942776,181.79378259137772
2.1021021021021022,1.7541829604608936,5.020507348568335,219.3062243439516,165.4921170654393,155.09122069643055,193.258884866722,185.49791548921107,181.78618635465168
2.135468802135469,1.7541829604608936,5.020507348568335,221.83819538817136,166.49895534669884,155.4025699248782,193.03229733550708,185.53316695901503,181.77710606996257
2.1688355021688355,1.7541829604608936,5.020507348568335,224.673362325661,169.2916129765632,154.5582668358659,193.99840745913068,185.93083348966312,181.5075475909705
2.2022022022022023,1.7541829604608936,5.020507348568335,224.4652728234608,172.75475584618096,155.65930859333528,193.5781379627268,185.51473748121933,181.7389567672943
2.235568902235569,1.7541829604608936,5.020507348568335,222.13294847564512,175.68802956471333,156.49464289186767,193.0017569418241,185.28385932548667,181.9815510165696
2.2689356022689355,1.7541829604608936,5.020507348568335,219.1889051532684,178.82485368085193,155.95839021978713,193.4122436281332,185.9475088468315,181.55382829434447
2.3023023023023024,1.7541829604608936,5.020507348568335,216.7466079381102,181.539489850104,155.38682285173437,193.54197509552083,186.4131299378424,181.3642327805035
2.335669002335669,1.7541829604608936,5.020507348568335,210.63826040913403,187.15985020087936,156.09320647929238,192.28656217972096,186.3350232013008,181.53865358568203
2.369035702369036,1.7541829604608936,5.020507348568335,203.5971594837698,191.07314589266187,156.9342126861199,191.0494690853941,186.2106683610234,181.7644546451197
2.4024024024024024,1.566043134435992,5.020507348568335,196.17819950877544,193.2472890796706,157.79452923961378,189.84711638821187,186.0614072579997,181.9802657852116
2.4357691024357693,1.4315270224830614,5.020507348568335,188.728111740613,191.70882840617733,157.3413737735191,189.85864307818005,186.4662213725173,181.8354732324657
2.469135802469136,1.356170806901984,5.020507348568335,181.76095328073328,190.82064055731828,157.3047429210636,189.6892983604044,186.72147124310263,181.66259846592416
2.5025025025025025,1.3208873030362691,5.020507348568335,171.1764337624006,196.47481048910737,158.82526404348783,188.2472462772072,186.27492508796632,181.728591605888
2.5358692025358693,1.3296843068758657,5.020507348568335,164.94598460856787,199.11543570861767,159.9512941667569,187.0281486899847,186.15835940446,181.724271428481
2.569235902569236,1.4183722918596169,5.020507348568335,157.63630058113182,199.87009903423868,160.9406409467386,185.8534490559948,186.09687544196365,181.7442058197683
2.6026026026026026,1.5582202843781163,5.020507348568335,149.85271664623758,196.07183909385745,161.88959446063728,184.87134772791256,186.02418929341547,181.72492454646928
2.6359693026359694,1.6235503599981969,5.020507348568335,141.94473355491462,189.69173660742044,162.71714698214316,183.9882221535356,185.9941654795492,181.70187875749585
2.669336002669336,1.7537578014707904,5.020507348568335,134.41687087806716,188.4647505623529,163.4339723661323,183.19566537359137,185.99277370499024,181.6884952875708
2.702702702702702,1.882689411486215,5.020507348568335,127.28174526068592,187.3356551220643,164.05867931192338,182.47180187539595,186.011566435762,181.70772403294896
2.736069402736069,1.923651095920848,5.020507348568335,119.10405429670222,186.79810673157172,164.67843705050032,181.79939509787488,186.0463663217986,181.72755566897652
2.7694361027694363,2.086939511511763,5.020507348568335,112.89930155264152,180.6912847395665,165.22522578529143,181.3077089174998,186.07175633826463,181.7178509332372
2.802802802802803,2.2157340247637185,5.020507348568335,111.45235030171592,179.3270203010147,165.66933899281116,181.00402685996943,186.10601853814768,181.68994863767685
2.836169502836169,2.4179976168177104,5.020507348568335,108.9417422342846,175.11146448188202,166.04394102253696,180.91747965465063,186.14215910258605,181.636074700604
2.8695362028695364,2.515138836232818,5.020507348568335,107.50833570384007,169.54465123059677,166.44320903464768,180.94795177822823,186.13424495743973,181.5793224403482
2.902902902902903,2.968148467314806,5.020507348568335,106.97160808830448,163.4379706111546,166.83937474925648,181.02626702250552,186.08834734568288,181.51914053105853
2.9362696029362696,2.968148467314806,5.020507348568335,105.4162782480286,158.08247004102333,167.2900406149483,181.1787828228965,185.99115923784288,181.45482016855564
2.9696363029696364,2.968148467314806,5.020507348568335,104.86770968746735,149.00025310747606,167.61614379229914,181.42224903765697,185.86907887129505,181.40523901065103
3.003003003003004,2.968148467314806,5.020507348568335,105.06879694320725,141.19624069774665,168.11252220206154,181.7998443179307,185.69213000429465,181.37943387131625
3.0363697030363697,2.968148467314806,5.020507348568335,105.8844352842534,135.24493666406482,168.52530745679354,182.32886422998945,185.5027081262118,181.3646695611183
3.0697364030697365,2.968148467314806,5.020507348568335,107.5322287898394,126.41620521209038,168.78975244817568,182.95275393554004,185.34224177759484,181.3904344840885
3.103103103103104,2.968148467314806,5.020507348568335,109.15696395724908,120.05941720059856,168.94038527502198,183.6918866917632,185.1838997597543,181.438361849107
3.1364698031364697,2.968148467314806,5.020507348568335,112.50535057654729,114.08653719341456,169.0421983435738,184.5938137729128,185.04374565317465,181.4898254216732
3.169836503169837,2.968148467314806,5.020507348568335,111.4394100828078,111.9763977005043,169.03520186901602,185.71152967796377,184.92013400650845,181.49356100202303
3.2032032032032034,2.968148467314806,5.020507348568335,113.58740458119514,108.70488194973753,168.86242968472007,186.92222618125749,184.8155902687028,181.5046316708125
3.2365699032365702,3.481785216282766,5.020507348568335,120.75059052812117,106.78113488664758,168.57367734260492,188.25412326231,184.71964722712696,181.50642448147948
3.2699366032699366,3.481785216282766,5.020507348568335,123.47118659780772,101.8960646564479,168.16242025079458,189.67972175653424,184.64490791505764,181.4951428068612
3.3033033033033035,3.481785216282766,5.020507348568335,125.6648876082618,98.56498473456186,167.65679953623717,191.20078750052343,184.5658347156669,181.479450107002
3.3366700033366703,3.481785216282766,5.020507348568335,124.3797556365616,95.59243492680446,168.55907192577976,191.170285964735,184.00769061967264,181.8507346403101
3.3700367033700367,3.481785216282766,5.020507348568335,124.01841252500544,93.60747078280234,167.62071036342118,192.09026994670688,184.272496080418,181.7749310738996
3.4034034034034035,3.481785216282766,5.020507348568335,124.30293681571482,93.76283549263908,166.54136473229855,193.1250114070856,184.5930415446584,181.5650506007716
3.4367701034367704,3.481785216282766,5.020507348568335,122.9108814181506,94.89688631269348,166.8621405997962,192.83520275545672,184.01980954853377,182.0565096707094
3.4701368034701368,3.481785216282766,5.020507348568335,121.24120936904733,97.3773766923952,167.70729577653978,192.16612549982773,183.38303142986,182.5041552089954
3.503503503503504,3.481785216282766,5.020507348568335,120.82354274765068,104.24475205757592,167.5549196471812,192.5753230347817,183.2090034335276,182.64296108005928
3.5368702035368704,3.481785216282766,5.020507348568335,120.85237690541656,103.10290274322648,167.116703009413,193.04001297355404,183.12521852072504,182.69040392107547
3.5702369035702373,3.481785216282766,5.020507348568335,120.24100971728136,103.2461617629002,166.54745765779444,193.61586791108644,183.13865283677643,182.63053944641217
3.603603603603604,3.481785216282766,5.020507348568335,118.2457885651461,108.5292573689704,167.60496512233243,192.86744282119537,182.47283862961467,182.8585347104642
3.6369703036369705,3.481785216282766,5.020507348568335,115.26371190469077,115.68703483235367,168.97570450996494,191.65030208684905,181.6628973069708,183.26959598173755
3.670337003670337,3.481785216282766,5.020507348568335,116.09190527893122,116.09345959683256,169.0577726323677,191.5714527672585,181.38915015263868,183.3585452128092
3.703703703703704,3.481785216282766,5.020507348568335,113.0112042447399,117.83255451024174,169.206222068665,191.4190329157481,180.99383516076807,183.4278152461176
3.737070403737071,3.481785216282766,5.020507348568335,111.16138514073732,118.90254171395608,169.2525940577124,191.37403656545612,180.6358062729399,183.38558435255692
3.770437103770437,3.481785216282766,5.020507348568335,109.74583404217412,124.56840312578665,169.26018255212526,191.27745303437635,180.30451009772992,183.3260518030132
3.803803803803804,4.087013087250054,5.020507348568335,108.35327249398551,139.71742120765987,169.31817921285915,191.24301882406763,180.01541543756397,183.22027841037465
3.8371705038371706,4.087013087250054,5.020507348568335,105.83492087668706,145.53735670521291,169.3195153545736,191.2411642071535,179.77840756808683,183.06567617609292
3.8705372038705375,4.087013087250054,5.020507348568335,103.2336308797054,150.17156646874196,169.38570672110316,191.408510430836,179.6395105756393,182.76207620395368
3.903903903903904,4.087013087250054,5.020507348568335,104.08323543647316,151.57873346174495,169.51781029113687,191.7144794324008,179.4655927731093,182.43436692999668
3.937270603937271,4.087013087250054,5.020507348568335,106.28939141544906,158.6974188670351,169.7116381681369,192.032495135472,179.43343364316812,182.1118838214963
