Time,Left Shoulder Angle,Right Shoulder Angle,Left Elbow Angle,Right Elbow Angle,Left Hip Angle,Right Hip Angle,Left Knee Angle,Right Knee Angle
0.0,10.676017657213947,34.22538392278713,152.72512442212383,165.3165417881639,133.82634238126445,139.64251890073166,209.60740048066629,206.78386255122027
0.0333667000333667,10.620590982870452,33.631171333805,152.3337505557663,164.5848199767751,133.60348451053548,139.35787484097952,208.6627593126484,207.21309118208865
0.0667334000667334,10.42878372457263,33.128536450981656,151.92949336486922,164.00235872944842,133.39974390961626,139.11854243414453,207.8447094449521,207.6075717060145
0.1001001001001001,10.119519651464936,32.71156806375702,151.519298197998,163.55853048540473,133.21533570801705,138.92132720662596,207.14514259808595,207.96853581178303
0.1334668001334668,9.711722532691835,32.374354961571,151.11011040371815,163.24270768386478,133.05047503524813,138.76303468482303,206.5559504925585,208.2972151881792
0.1668335001668335,9.224316137397787,32.11098593386351,150.7088753305951,163.0442627640494,132.90537702081983,138.64047039513505,206.0690248488784,208.59484152398787
0.2002002002002002,8.676224234727256,31.91554977007447,150.32253832719437,162.95256816517934,132.78025679424243,138.55043986396117,205.676257387554,208.86264650799424
0.2335669002335669,8.0863705938247,31.782135259643795,149.95804474208134,162.95699632647543,132.67532948502625,138.48974861770063,205.3695398290938,209.1018618289833
0.2669336002669336,7.473678983834581,31.70483119201139,149.6223399238215,163.04691968715844,132.59081022268154,138.45520218275277,205.14076389400657,209.3137191757401
0.3003003003003003,6.857073173901364,31.67772635661717,149.32236922098036,163.21171068644918,132.5269141367186,138.44360608551676,204.98182130280068,209.49945023704964
0.333667000333667,6.255476933169509,31.69490954290106,149.06507798212334,163.44074176356847,132.48385635664778,138.45176585239187,204.8846037759848,209.6602867016969
0.3670337003670337,5.687814030783475,31.75046954030296,148.8574115558159,163.72338535773704,132.4618520119793,138.47648700977734,204.84100303406728,209.79746025846703
0.4004004004004004,5.173008235887726,31.8384951382628,148.70631529062354,164.04901390817574,132.46111623222347,138.51457508407242,204.84291079755675,209.91220259614497
0.4337671004337671,4.729983317626722,31.95307512622048,148.61873453511168,164.40699985410532,132.48186414689064,138.56283560167634,204.8822187869618,210.00574540351573
0.4671338004671338,4.377663045144927,32.088298293615914,148.60161463784584,164.7867156347466,132.52431088549105,138.61807408898835,204.95081872279093,210.07932036936435
0.5005005005005005,4.1349711875868005,32.23825342988902,148.66190094739142,165.17753368932037,132.588671577535,138.67709607240766,205.04060232555267,210.1341591824759
0.5338672005338673,4.0208315140968045,32.39702932447972,148.8065388123139,165.56882645704744,132.6751613525328,138.73670707833358,205.1434613157556,210.17149353163532
0.5672339005672339,4.054167793819367,32.558714766828174,149.04247358118002,165.9499663771499,132.7839953399958,138.7937126331665,205.25128741390984,210.1925551056296
0.6006006006006006,5.198539563953875,32.91070401447509,149.88343918061986,166.59065550271578,133.1369464878353,138.72420201432826,205.25286468423,210.25409009426485
0.6339673006339673,6.207661917391339,33.1225681176463,150.92947465555667,167.04303237147454,133.5168958325195,138.66994652166247,205.0627827234449,210.30562684709287
0.6673340006673341,7.40656556229141,33.297234039074574,152.02783700780108,167.3927696403708,133.93774240551886,138.58326146468826,204.77807644973768,210.36001290015955
0.7007007007007008,8.686021542879978,33.39197456597452,152.97053051910055,167.52697588695588,134.28388704400234,138.49534933571832,204.54908426468,210.3779167954604
0.7340674007340674,10.142581057354215,33.57167834199266,153.82614578852568,167.68232242888683,134.5517885435165,138.39869550524898,204.3123640705372,210.3986895932493
0.7674341007674341,11.8011518869163,33.64516369268556,154.74287917614518,167.62494232993365,134.75489108408826,138.28343296185827,204.12238595913905,210.4097892219592
0.8008008008008008,13.626331691390009,33.52339761582616,155.73814736147992,167.31273637647837,134.93324038619565,138.09311477291513,203.96488637232247,210.46458525648623
0.8341675008341676,15.599297739553444,33.24322756078951,156.75158557928134,166.76718850561596,135.0413362273007,137.92509377460038,203.8906921973401,210.48490800054407
0.8675342008675342,17.637735116864363,32.90232797863398,158.05491852800282,166.28686707909034,135.04671556304442,137.80293970478843,203.90028317671465,210.43945562390363
0.9009009009009008,19.72483636251436,32.44531757437028,159.38649616069964,165.62693969481157,134.9836411346442,137.73437513614005,203.98565714208968,210.3272746907748
0.9342676009342676,21.81173649658292,31.89455241249248,160.03985079307486,165.09860722427604,134.85086865920297,137.70387512093518,204.16130146194945,210.2093296073704
0.9676343009676344,23.98241106008342,31.215852596343765,160.56452567734553,164.2352241011333,134.65677878341702,137.7176629336862,204.40799708324727,210.0167405754991
1.001001001001001,26.06376222852662,30.501701083916235,165.70259836568684,163.1577337563018,134.3758769243335,137.73586427224814,204.72658384897784,209.83536290110297
1.0343677010343677,28.08867415603729,29.629705339444847,169.55265291841403,161.76835904098755,134.12678592318187,137.79205583108617,205.017388773749,209.56502384248645
1.0677344010677343,30.00594839231259,28.88965189670975,172.15556460943324,160.4969217265239,133.92692205281037,137.9269894674603,205.2904703878064,209.1644789149734
1.1011011011011012,31.81578414207605,28.032298204307548,173.59312144828093,158.94892951730756,133.7337463418419,138.12649617264552,205.5787440936448,208.660720026658
1.1344678011344678,33.64634225196301,26.9674828358688,173.6170901887411,157.3451443319314,133.50731727965837,138.3108284429969,205.9069836468412,208.11205246335624
1.1678345011678346,35.3545362596704,25.79746326448792,172.50428097194236,155.42602113803116,133.23711454836223,138.51949382423658,206.2736836377924,207.5239125885491
1.2012012012012012,37.04686004229461,23.950735154595225,170.36974121218034,152.73038220068497,132.869445076916,138.7716826663913,206.6615138171664,206.87246821769543
1.234567901234568,38.447664235163096,22.175331456330028,167.35721261973612,149.9406613064062,132.45350453937573,139.05007791544048,207.062445235818,206.1707278861107
1.267934601267935,39.70306343219257,20.768406653398632,163.02230281611224,147.5603155642064,131.97510088746975,139.3055547109716,207.52444686732773,205.47885512801693
1.3013013013013013,40.51790913795399,19.57992883969961,158.11524938892515,145.15392543833252,131.4672837383102,139.58373848404432,208.03880840222087,204.78566565034808
1.334668001334668,40.92417085836522,19.031996505507845,152.5393185597894,143.33886715299593,130.9800580595107,139.90885522050317,208.56323388863103,204.08624807080704
1.3680347013680347,40.79621696058555,18.174022628496687,147.1290943805009,141.30090844188874,130.5287581703415,140.3106777804352,209.0946932820216,203.39673183798425
1.4014014014014016,39.881146417776414,16.565074751513432,142.30945025016223,139.78713300953504,130.08888794986166,140.75215122928603,209.67820047071208,202.7220986160375
1.4347681014347682,38.77725337378456,15.12049399996242,137.27091010447634,137.53315707061537,129.7053876324193,141.20386682076966,210.29076574829665,202.1013243778637
1.4681348014681348,37.41873025785888,13.732427403608126,132.27099706143835,135.73259175154212,129.34638796861287,141.72346130875903,210.9282332349632,201.50155957861764
1.5015015015015016,35.48831445958294,12.626215016529628,126.72652494713206,133.49795545921603,129.087384035223,142.35098321406994,211.5390398254454,200.87260825314613
1.5348682015348682,32.63619158864018,11.16159667853318,120.4655541029521,131.743512949333,128.94555873462372,143.04783857728376,212.1106217644956,200.2568776226415
1.5682349015682349,30.31409163682298,2.3383735600789253,114.43143810793536,128.6491343285166,129.01150861185604,143.7724877082205,212.51337846087208,199.6739205528304
1.6016016016016017,27.42822083136096,2.3383735600789253,107.95350775413044,121.54046818986752,129.22110386713754,144.51572609663074,212.8121300731456,199.12591408502155
1.6349683016349683,24.83705677360532,2.3383735600789253,102.1231919364644,115.18031845695783,129.55564955390972,145.13650925932595,212.96747081103203,198.68022712157284
1.6683350016683351,12.937895080649556,2.3383735600789253,96.03027925668256,113.29865681819912,130.01969652815677,145.71867233338128,213.0254058469744,198.30233913298525
1.7017017017017018,4.49323947090308,2.3383735600789253,90.66893612901326,108.14005054693322,130.5806871802335,146.31321668810023,212.9984731820762,198.0040230568056
1.7350684017350684,0.3057903344573986,-2.3863675462471923,85.12372228252482,103.82676459735532,131.24454709092004,146.93195912280967,212.880266510322,197.7552644445696
1.7684351017684352,-1.1372928388314918,-4.501319595520184,80.59292045369374,99.13860733880382,131.83037586680788,147.47712493087715,212.74042796470667,197.63233669425972
1.8018018018018016,-0.0882849933500535,-4.813529335113266,77.22535922001668,94.38918919008697,132.40533338406448,147.94408300554676,212.65639008646235,197.5875778964186
1.8351685018351689,3.1216491377156084,5.137278073630878,75.32591226488073,89.71317300246906,132.88305110948986,148.35712373710697,212.67771827742305,197.5921091350409
1.8685352018685355,3.1216491377156084,5.137278073630878,74.76346198136254,84.93445719747791,133.3326377880205,148.7240907220681,212.6990377896101,197.6776767154066
1.901901901901902,3.1216491377156084,5.137278073630878,75.68753241225963,80.08917057749224,133.7777167164915,149.06851769363453,212.78380994375465,197.7994020098226
1.9352686019352687,3.1216491377156084,5.137278073630878,77.94542137768107,75.45637956413604,134.20305159177616,149.34937723060497,212.9054477485592,198.00061649436884
1.968635301968636,3.1216491377156084,5.137278073630878,81.47309732983967,71.20779804508014,134.56863053664745,149.66858304156966,213.0675769302936,198.1948005794356
2.002002002002002,3.1216491377156084,5.137278073630878,86.35179277493985,67.15347491726254,134.89875707788738,149.96589225102167,213.2340083200788,198.41179777224315
2.035368702035369,3.1216491377156084,5.137278073630878,92.22338135434758,63.30462876644604,135.24958122851385,150.23344356758486,213.3922652608544,198.6596350199519
2.0687354020687354,3.1216491377156084,5.137278073630878,99.5539867890774,59.7671962356596,135.60081714812372,150.46791342090955,213.5536276184001,198.9295206530984
2.1021021021021022,3.1216491377156084,5.137278073630878,108.83958771315244,56.37044990395108,135.9715442625436,150.6851090137828,213.67250383224297,199.12453874217155
2.135468802135469,3.1216491377156084,5.137278073630878,120.12100078045488,53.50500974482154,136.33346612240544,150.84581938805533,213.7608610792161,199.31388467028705
2.1688355021688355,3.1216491377156084,5.137278073630878,126.50991600856077,51.27713647876205,136.73738877103182,151.00555104006668,213.7705790409338,199.3975325705325
2.2022022022022023,3.1216491377156084,5.137278073630878,132.7110454082579,49.84476862992898,137.0574384402203,151.11067840503358,213.82451397443657,199.44848509204752
2.235568902235569,3.1216491377156084,5.137278073630878,138.42557559336237,48.753679402311725,137.24472013414209,151.11575070663412,213.97409692105307,199.53400189216816
2.2689356022689355,3.1216491377156084,5.137278073630878,143.75069404296846,48.36641705625628,137.32757482582954,151.01996450057007,214.1692758052097,199.65198566608635
2.3023023023023024,3.1216491377156084,5.137278073630878,149.01722769896742,48.39743095463228,137.32652227084702,150.90468489663402,214.36050981862155,199.737795486164
2.335669002335669,3.1216491377156084,5.137278073630878,154.07464424433067,49.05418935098941,137.25101096394155,150.77045726189908,214.53069328630568,199.77984167746104
2.369035702369036,3.1216491377156084,5.137278073630878,158.87824247020382,51.02299929101797,137.17270037178574,150.61194251335093,214.7049235081943,199.79798279865253
2.4024024024024024,3.1216491377156084,5.137278073630878,163.31940177820837,53.84166340471924,137.07776464325022,150.43922611673676,214.8852201578044,199.80759518800969
2.4357691024357693,3.1216491377156084,5.137278073630878,168.1021038440299,56.78666778081484,136.99867808396257,150.30226697969468,215.0196205007224,199.7779604095396
2.469135802469136,3.1216491377156084,5.137278073630878,172.61496836025884,60.19808028559251,136.9490773677997,150.19477632560194,215.09950539417488,199.7068919740932
2.5025025025025025,3.1216491377156084,5.137278073630878,177.14487553735458,63.360319621064384,136.9026015697965,150.10918608003317,215.14327441221369,199.61321642493064
2.5358692025358693,3.1216491377156084,5.137278073630878,181.15627448034212,67.04635569461328,136.84984901772512,150.04783713055446,215.14260957595585,199.4836350190973
2.569235902569236,3.1216491377156084,5.137278073630878,183.76734524607792,69.8661484384487,136.81905683382354,150.0433155909743,215.08721730471825,199.3057091476768
2.6026026026026026,3.1216491377156084,5.137278073630878,185.6558160398877,72.90737206322761,136.7986855782485,150.0883475019775,214.97600451821543,199.07808059879108
2.6359693026359694,3.1216491377156084,5.137278073630878,186.4127129432548,74.86980746233994,136.82752831289062,150.17846444157024,214.8057630022446,198.79462678909184
2.669336002669336,3.1216491377156084,15.346096831048357,186.3009323573361,75.31749782806978,136.88024261993954,150.28058850138942,214.59519582608337,198.48847226876973
2.702702702702702,3.1216491377156084,25.26763628440169,185.8170514325797,74.19439584951542,136.94084675298765,150.3897742051127,214.38129506420424,198.1696092879611
2.736069402736069,3.1216491377156084,35.12759604993472,184.64174472024283,73.28360651260235,137.05108526791673,150.5312379549421,214.0873695036367,197.83911760426903
2.7694361027694363,3.1216491377156084,44.54238291914401,183.41620022801013,77.12898413232213,137.18741045897076,150.70400257592974,213.77903878395085,197.496873760294
2.802802802802803,8.423821714558503,53.31985337196424,181.8482448224781,81.8418280017966,137.31933999904606,150.87835258861804,213.4848651978388,197.16073729386773
2.836169502836169,15.372498267149693,61.3486976415544,180.8260031701288,82.16792688060049,137.41975000139996,151.03973382968508,213.2304468531758,196.83291676621727
2.8695362028695364,24.01978304852236,68.79278883147983,179.58321761134178,85.6514047914757,137.49919160066528,151.19057046415372,213.00224300608147,196.50237740660785
2.902902902902903,33.960436103470485,75.73679953923535,179.504022222088,88.28998422391084,137.53422980056914,151.26883186556503,212.8476495369805,196.2426780422253
2.9362696029362696,45.15193435582352,81.93890613001919,179.54537909067548,90.30405928082656,137.53640120200447,151.3141626471243,212.7200334388412,196.04059360649063
2.9696363029696364,57.47486898590908,87.49606071536508,179.66065349208068,91.85092886068962,137.48273449414506,151.33315785361322,212.67735287656643,195.89394671422536
3.003003003003004,70.67310175494357,84.38672463703418,179.87329603193808,93.4128559433366,137.43282032727325,151.3666818374116,212.685070426406,195.7228757428638
3.0363697030363697,84.69337474779957,83.34729454644604,180.33468099698823,94.84869819899606,137.34938242097533,151.35454411020274,212.7854002298472,195.61836081039567
3.0697364030697365,99.451724987468,84.10009451104739,180.91441290516863,95.87498618411948,137.25807726009734,151.33957349052358,212.97182169928988,195.4958883028042
3.103103103103104,114.65528819216271,86.34265164376062,181.6561113726981,96.4142737278458,137.10007936572288,151.27013240470134,213.2864947351304,195.4605103005659
3.1364698031364697,130.22932974484982,90.01128791908941,182.42166560912543,96.50786972967865,136.835032115928,151.16118825397717,213.75585609019475,195.5023877402764
3.169836503169837,146.02284273244203,94.55758273466417,183.144579247644,96.42446728726628,136.46009755518574,150.98276493225006,214.37277632685385,195.66752687631333
3.2032032032032034,161.90812707981848,99.91231208920104,183.69593723610868,96.0342324102358,135.99370929241886,150.75751017652038,215.13180153459527,195.8962728028913
3.2365699032365702,177.48656557008368,106.02759923851416,183.99996206602452,95.4901938974297,135.40216398841972,150.46362874563425,216.01583793068363,196.22696319604904
3.2699366032699366,192.65480583620223,112.69516108428633,184.3439551832004,94.99051709473686,134.73853183543838,150.0946594042551,217.0032309366941,196.6664931514701
3.3033033033033035,207.018492948518,120.52697329538344,184.47620376055352,94.29896299137955,134.01484429905156,149.65496130526,218.0954332729489,197.2255093622032
3.3366700033366703,220.4946608901037,128.83058925548804,184.7004250734513,93.5578644451144,133.19238987795458,149.11886859808544,219.2592046640476,197.8689647679603
3.3700367033700367,232.6849982674452,137.20555522390364,184.5397030998171,92.42447940373034,132.3054389470817,148.51852799153735,220.46611332286807,198.62949746678288
3.4034034034034035,243.6163290733961,145.51594844569323,184.8727123093259,91.51004721439456,131.3182691317629,147.86464684085803,221.7219082697733,199.532806043845
3.4367701034367704,252.99410481209352,152.81561783363998,185.1301324499612,90.19499467593536,130.27806835306643,147.1736894643814,222.98860489787307,200.47759225489
3.4701368034701368,260.77506933942624,159.6277279463641,185.20163704190225,88.24987059632988,129.11811535176597,146.50493723704568,224.34467138803572,201.3015669002352
3.503503503503504,267.087816164031,166.73997554746992,184.8402657620918,85.83992645793606,127.95395215917895,145.78045772365817,225.6557659991947,202.2406152486949
3.5368702035368704,271.33208207922274,173.44288127125867,186.18923456851803,83.83118651201704,126.82690571383684,144.94962339519543,226.9306181518478,203.3735130950245
3.5702369035702373,273.15348323800254,179.70984497886278,186.8848789182634,81.43396256574276,125.7528868969738,144.0692185818631,228.08153020083907,204.6518537850304
3.603603603603604,272.761539939547,185.9694298024572,187.377036513368,76.67678482046333,124.57560227469158,143.06035318414334,229.13105118493152,206.11083699068584
3.6369703036369705,270.4383119768026,192.11640657235483,186.92440667677727,71.99265077887746,123.45873411820254,142.0153305771762,230.03614922809805,207.6566543613999
3.670337003670337,265.7559572307827,207.8643607413981,184.16566607120143,67.85616924894553,122.50239844881976,141.00793424736543,230.7424370600692,209.10262016789892
3.703703703703704,259.1673707075719,223.6384079867861,180.6256735168957,63.88499124564824,121.68825985045008,140.0539708030504,231.23773086057096,210.51969732362667
3.737070403737071,250.07188827445927,240.59271120512213,171.91819580563077,59.16770008358976,120.74904192601504,139.07949075325266,231.5784465854828,211.99640397980696
3.770437103770437,250.9912457864591,259.8778790399827,164.45857109780974,55.21585155227238,119.91994407477095,138.16314753328564,231.7193811173101,213.4513243034773
3.803803803803804,252.16154028422915,269.9518794920186,157.94424685492336,51.40211111046659,119.19763680257336,137.3690104200446,231.70216183939823,214.81686105402056
3.8371705038371706,252.2321427261747,278.4562500615634,152.24796594090498,49.64906671320303,118.74720886322174,136.68513996199218,231.4797993249516,216.19375515451057
3.8705372038705375,252.2468093879256,285.7019377547292,147.10189001788683,48.05191372920997,118.56257966025854,136.18085174386587,230.99213158050824,217.465775927324
3.903903903903904,252.09506766820093,291.29445768951854,142.9084483771027,47.98060164405823,118.59701303426787,135.77225915739552,230.40826391569323,218.6464488551662
3.937270603937271,251.85876209202164,303.0384118901292,140.1404498863592,48.97869548620329,118.55815355058635,135.27466367345528,229.77567332809963,219.78804397149304
