Time,Left Shoulder Angle,Right Shoulder Angle,Left Elbow Angle,Right Elbow Angle,Left Hip Angle,Right Hip Angle,Left Knee Angle,Right Knee Angle
0.0,27.061275221352137,31.97416758991249,160.22316268133582,162.420649004104,131.71121193203223,128.62879315208016,205.45779302242232,210.45953319292605
0.0333778371161548,26.48440132973856,31.52581916874516,158.7952613527877,162.33432881143077,131.9780535555365,129.4149003790293,205.25535433073875,210.00698912175145
0.0667556742323097,25.995695014431256,31.13948471354153,157.6188965347629,162.26476445276674,132.2337067438305,130.09707726989063,205.0394152303961,209.60509139775309
0.1001335113484646,25.590868489382444,30.81049769495069,156.68160677886692,162.20939722434738,132.477823723562,130.68205935029604,204.8121826592416,209.2502575720665
0.1335113484646194,25.26563396854433,30.534191583621723,155.97093063670528,162.16566842240815,132.71005672137855,131.1765821458773,204.57586355512225,208.9389051958272
0.1668891855807743,25.015703665869143,30.30589985020371,155.47440665988344,162.1310193431846,132.93005796392782,131.5873811822662,204.332664855885,208.66745182017075
0.2002670226969292,24.836789795309087,30.120955965345733,155.17957340000692,162.10289128291203,133.13747967785744,131.92119198509462,204.08479349937707,208.43231499623263
0.2336448598130841,24.724604570816386,29.974693399696875,155.07396940868122,162.07872553782607,133.33197408981508,132.18475007999433,203.83445642344543,208.22991227514848
0.2670226969292389,24.674860206343247,29.862445623906225,155.14513323751183,162.05596340416213,133.5131934264483,132.38479099259715,203.5838605659372,208.05666120805373
0.3004005340453938,24.683268915841893,29.779546108622856,155.38060343810426,162.03204617815564,133.6807899144048,132.5280502485349,203.3352128646993,207.90897934608395
0.3337783711615487,24.745542913264533,29.721328324495857,155.76791856206398,162.0044151560421,133.83441578033225,132.62126337343935,203.09072025757905,207.78328424037468
0.3671562082777036,24.85739441256339,29.683125742174315,156.2946171609965,161.970511634057,133.9737232508782,132.67116589294238,202.8525896824233,207.67599344206147
0.4005340453938584,25.01453562769068,29.660271832307306,156.94823778650732,161.9277769084358,134.09836455269036,132.6844933326758,202.6230280770792,207.58352450227983
0.4339118825100133,25.212678772598604,29.648100065543915,157.71631899020196,161.87365227541392,134.20799191241633,132.66798121827136,202.4042423793938,207.5022949721653
0.4672897196261682,25.4475360612394,29.641943912533225,158.58639932368587,161.8055790312269,134.30225755670378,132.62836507536093,202.19843952721413,207.42872240285345
0.5006675567423231,25.71481970756526,29.63713684392432,159.54601733856458,161.72099847211015,134.3808137122003,132.5723804295763,202.0078264583873,207.3592243454798
0.5340453938584779,26.01024192552841,29.629012330366283,160.5827115864436,161.61735189429916,134.4433126055536,132.50676280654926,201.8346101107604,207.29021835117985
0.5674232309746329,26.32951492908129,29.61290384250845,161.68402061892965,161.49208059403065,134.4894064634123,132.43824773191278,201.68099742218203,207.2181219710908
0.6008010680907877,26.57399710730642,29.484985538148383,162.6672836246311,161.31013405259216,134.50943836001238,132.43760415063758,201.5785823213921,207.1063251372204
0.6341789052069425,26.859760960619813,29.351687728946008,163.71789828012197,161.08970136723087,134.5182667921379,132.47211849665155,201.5255515985405,206.96425116400025
0.6675567423230975,27.20479768730296,29.20753136349613,164.85197589051913,160.83761012999912,134.50146365584737,132.5309947648378,201.4872678925904,206.80225994076
0.7009345794392523,27.613196407351133,29.056190144945568,166.06781252070988,160.56466506296005,134.44006467343323,132.59448826821958,201.4999359608891,206.64334069439457
0.7343124165554072,28.06384423915449,28.872547996907784,167.35389216181557,160.21986038298766,134.34120085510463,132.67150091074407,201.5503604186628,206.48035856978527
0.7676902536715621,28.50266321441164,28.66331465702701,168.60869557274023,159.83830784079754,134.21281542943248,132.77954011618326,201.65157123775987,206.3065136262676
0.8010680907877169,28.87359972497283,28.444596901708906,169.74174844160706,159.4411944673083,134.08783187167626,132.92726550434034,201.7683739901684,206.0880649944545
0.8344459279038718,29.21976900109241,28.20182335341128,170.80355349444008,159.0071492166915,133.943428525576,133.11229885774142,201.9310370282743,205.81773276490324
0.8678237650200267,29.57009583393479,27.95474597542188,171.85392401092736,158.56028630060135,133.78027816338735,133.32313356468148,202.12177182328696,205.5257426981707
0.9012016021361816,29.911305684462366,27.68136881126501,172.90509054614333,158.0634767730399,133.63369076950667,133.56261245756687,202.2955375319707,205.20188671998727
0.9345794392523364,30.262812859232145,27.39896106041338,173.9585151394914,157.570665983598,133.4624553861169,133.8275230254911,202.47504561651283,204.86797744363167
0.9679572763684912,30.61188647344793,27.09549004159413,175.02149377923482,157.12272379148695,133.32334459165946,134.1144234025722,202.6263705048111,204.53318940342663
1.0013351134846462,30.93255804158833,26.76100074716808,176.05143662093636,156.67967193677052,133.21164365163563,134.42025594819833,202.7914231869252,204.1948552448359
1.034712950600801,31.214662325935848,26.42842710599319,177.01844477994453,156.27617214641975,133.1455737409393,134.738853268003,202.9418619119448,203.88722677586944
1.068090787716956,31.43343857009541,26.09569762103713,177.89716789432862,155.94804497300004,133.1349367678226,135.1015307706828,203.0554737465411,203.58607962277355
1.1014686248331107,31.613559610986105,25.78490354496697,178.7583622943559,155.73335022645256,133.1498663611422,135.54193655984253,203.15754539072168,203.26279565514744
1.1348464619492658,31.732907931975465,25.5214717519361,179.57346566616812,155.581663366493,133.19968887240324,136.03137530565556,203.2607121898488,202.94408547618065
1.1682242990654206,31.78376514078157,25.275641252302364,180.2901780278769,155.4885449597279,133.23719451200512,136.579041886967,203.4044679368494,202.60807697570607
1.2016021361815754,31.786048546285627,24.964021845006524,180.8974581038674,155.30085991739233,133.24937151024588,137.16330366033532,203.58675391410432,202.26955227920155
1.2349799732977302,31.78108103351296,24.61839835782944,181.47412513938312,155.13412839720635,133.2197714431442,137.74191620708484,203.7759038089712,201.94912513696644
1.268357810413885,31.71741468555654,24.232515059402253,181.9579512339897,154.93236544136315,133.13511633361117,138.3057425814006,204.011511404989,201.66056863825617
1.30173564753004,31.64685980204178,23.796384853407748,182.3020587282075,154.63717254676774,132.99503002490857,138.8328920917719,204.27764506523428,201.396158436686
1.335113484646195,31.48774519077938,23.38890868487029,182.61616915492496,154.36401685504572,132.93576313635555,139.337976142696,204.5033557160718,201.1147089686173
1.3684913217623498,31.26842128313871,22.97073118051781,182.87562112589475,154.03783138571805,132.91442029271303,139.8482513225292,204.6867403483785,200.8289454627028
1.4018691588785046,31.046570009581565,22.60801506501245,183.20295887444132,153.6174190721742,132.94733142856214,140.3592365948402,204.83837371788707,200.5367834119921
1.4352469959946594,30.767723103253186,22.311225568147048,183.4646127613144,153.18341685232403,132.985067230063,140.88025734747703,204.9707067707128,200.22355936753115
1.4686248331108145,30.40625390013016,22.027948962426752,183.580313045348,152.904587464992,132.97221512052243,141.3822292865242,205.06511524999067,199.9195307993968
1.502002670226969,29.98004897480673,21.697328861465543,183.57128747677964,152.68391591459527,132.93991521127865,141.881418513767,205.115876871536,199.63365224972483
1.535380507343124,29.524033564889272,21.39182915920325,183.35732463162083,152.43711346349787,132.92702416755947,142.39885279285463,205.12986994445453,199.3622685229015
1.568758344459279,29.122372661170346,20.9205010086458,183.39642810867184,151.9779554369698,132.95388068309546,142.91041936837436,205.09669808688128,199.104002470298
1.6021361815754338,28.84841978402066,20.26179943593917,184.1219943188347,151.59239953237827,132.97943222193757,143.41356041982613,205.06293569994293,198.8530847510081
1.6355140186915886,28.23212009877708,19.508593348970365,184.26523421142105,151.0266447837428,132.98505789207852,143.92578735721676,205.0639214960469,198.59425162758023
1.6688918558077437,27.354204578955606,18.65859170879189,186.15252354580988,150.59393070165964,132.96828097997596,144.4510616560604,205.1274878345148,198.3132793198619
1.7022696929238983,26.38345225356156,17.64254869345685,184.15973928481225,150.26594841779854,132.924592586546,144.99904203739732,205.2368429751661,198.0279828951253
1.7356475300400531,25.136196878128303,16.492709442370227,184.97314420714787,149.9968510250547,132.88662717366026,145.60207839494274,205.3125720886491,197.66991825207973
1.7690253671562082,23.61633580037872,15.065834819321076,186.68097598410665,149.65984163797543,132.83650988661788,146.24874332362108,205.4254065460534,197.28359561146328
1.802403204272363,21.768821615888843,13.69318157160157,187.68567529262643,149.12507860248314,132.78508184444843,146.90550686636325,205.549035666546,196.888604093439
1.835781041388518,19.713565976424448,12.875059702981249,187.15429350853265,149.1111299765993,132.5986994628799,147.57092676499457,205.6991576581664,196.5074262630849
1.8691588785046729,17.882505889649316,12.084965551472738,186.6803081948766,151.480205457339,132.49266604976927,148.26497833155364,205.86854184182104,196.1067747080733
1.902536715620828,16.52202259831844,10.98684074989363,185.0989865949772,149.50594820669153,132.50377425296006,148.97669876782004,206.0485980979226,195.68585260564
1.9359145527369823,15.43022860969988,10.03067744153517,182.8376456836076,150.6939187200793,132.54315974502356,149.64137411637384,206.2404839728908,195.2641637714888
1.9692923898531367,14.652640619784666,9.137338492505524,180.28279360362365,153.6284069280023,132.6050028945167,150.25073316658907,206.4577521584689,194.8739897456528
2.0026702269692924,14.34612745695015,8.379645308946712,177.7454987732797,154.32858660992596,132.6999232432191,150.80892810922845,206.6583233667173,194.52640868604843
2.036048064085448,14.377678160478853,7.678971802910906,174.90585304242333,154.33373215435975,132.81100227789432,151.3112563455075,206.84444750329905,194.214585973418
2.069425901201602,14.880890490598585,6.8201427144226505,171.92404260404712,154.2159478213182,132.90582151050356,151.74320285105802,207.04926883277784,193.9662855547268
2.102803738317757,15.501425818027183,6.281840763046552,168.894304514252,152.46566421983644,133.0372955964189,152.11900726787198,207.2489982089685,193.77250297199663
2.136181575433912,16.13922052427953,5.975146948734422,165.71298422878124,149.7641622579815,133.17830469721002,152.42749336667345,207.4711195742962,193.63578321664264
2.1695594125500666,16.609513795434086,5.907854008713404,162.24784956736352,146.2620865613297,133.3319539172734,152.67675067155344,207.6417825235351,193.5604373545855
2.2029372496662214,17.23671986602252,5.907854008713404,158.79450517480947,142.11207442966494,133.48745455217275,152.88503375441752,207.80834955160915,193.5071722719722
2.236315086782376,18.072437416696378,5.907854008713404,155.13298162664734,138.3381842738482,133.58277428970086,153.0389045266185,207.98411173485783,193.4786177250253
2.2696929238985315,19.322221674171228,5.907854008713404,151.57203046683048,133.58922181159764,133.66983649042166,153.09237134455103,208.1708258506958,193.50575731566275
2.3030707610146863,20.67781436486005,5.907854008713404,147.93942327161295,128.20419403186727,133.7081418953024,153.07046536505703,208.40894409774936,193.57028639487856
2.336448598130841,13.541517149184587,5.907854008713404,144.1968535039384,121.65900524145772,133.7140684132063,152.9427761945998,208.67784902271345,193.70166046656948
2.369826435246996,9.454610009053049,5.907854008713404,140.71458747464402,114.20423369252212,133.67553737162527,152.72494495578272,208.98022331867165,193.89917577877884
2.403204272363151,8.145194638404416,5.907854008713404,137.54978107498496,106.33724180029728,133.61639978929634,152.44773560912844,209.3383058487975,194.15807695485785
2.4365821094793056,9.824075961125072,5.907854008713404,134.2191124147069,98.00424518608988,133.58234138635171,152.12914490361456,209.6933419110128,194.454519726672
2.4699599465954605,13.962728428583908,5.907854008713404,131.1727728970387,89.72926247124389,133.60928480582075,151.79416963594397,210.0099892838836,194.77155375966288
2.503337783711616,20.10154414530713,5.907854008713404,128.747740707989,81.2487772670192,133.6293828888403,151.45532822773873,210.3183193112363,195.1246006785545
2.53671562082777,28.07585361842468,5.907854008713404,126.73859439432722,72.82348611195223,133.60845123069288,151.0818035578653,210.64864015142663,195.50726311073203
2.570093457943925,37.69800884621377,5.907854008713404,125.19732153967487,64.86045947487818,133.59187133815573,150.698185549989,210.96594643146207,195.90452561542904
2.60347129506008,48.78971566045335,5.907854008713404,124.14758049451036,57.42383526415884,133.60282181526003,150.309242297903,211.2414009663256,196.31547000603143
2.636849132176235,61.37697493945283,5.907854008713404,123.33193391739866,50.1694540921775,133.63696074043938,149.97673960335422,211.4407775458841,196.70788537728924
2.67022696929239,75.06967472275358,5.907854008713404,123.15905910139598,43.404095251370734,133.7011112484036,149.68672601521868,211.60955499247365,197.0813564033641
2.7036048064085447,89.37280403888795,5.907854008713404,124.1317096743959,37.48530119038985,133.76046833466287,149.40672639883928,211.7630380616098,197.4335248248909
2.7369826435247,103.8234727105578,5.907854008713404,125.95382097874666,32.641773918720894,133.77819153955838,149.14113457378045,211.94386045080967,197.7551263827897
2.7703604806408544,118.13735369268588,5.907854008713404,127.7334961429531,28.683021556803048,133.7653522231696,148.91527776944986,212.1297324640703,198.035795646644
2.803738317757009,132.41655754514915,5.907854008713404,130.70785044819493,25.96517002344339,133.76077817629178,148.75562420309888,212.3257949389257,198.2644517474937
2.837116154873164,146.610834962031,5.907854008713404,131.92350456146016,24.283442807920537,133.7738412511823,148.6921292924024,212.5205199767853,198.4201360538714
2.870493991989319,160.43569045363574,5.907854008713404,137.43758249926054,23.60415663275979,133.8267103126356,148.70651258650176,212.70114829338613,198.5078385609582
2.9038718291054737,173.9710038781251,5.907854008713404,140.85391578324288,24.058939070954324,133.90479035817444,148.78262714371272,212.8837547916684,198.5508542522573
2.937249666221629,187.2897173952852,5.907854008713404,142.72039310306383,25.785901072666444,133.97290337464798,148.89945752837824,213.05939924582023,198.5639186489633
2.970627503337784,200.51962247969257,5.907854008713404,144.28543598689998,29.05576195972116,134.02800650668905,149.05026700117818,213.234022083574,198.5571990813975
3.004005340453938,213.59643991914888,5.907854008713404,146.62984155710606,33.200745670500105,134.21369268166413,149.2109626829894,213.44361243765863,198.51338115278165
3.037383177570093,226.08471652129583,5.907854008713404,148.22943049165573,35.35270855981863,134.36973675431545,149.35681914860436,213.65358136307484,198.44449611126623
3.0707610146862483,237.6189364494864,5.907854008713404,150.1965388667453,42.748509080093534,134.41955267830298,149.4612741985624,213.8900030507017,198.37480881672656
3.104138851802403,248.20292273182653,5.907854008713404,152.51726685921432,48.15930436749208,134.4304579972101,149.54209788072086,214.13091045061432,198.3081415914532
3.137516688918558,257.69198569510746,5.907854008713404,154.9223269729373,51.27408596516474,134.3823797207159,149.60561026543925,214.3861472771692,198.24812953970127
3.170894526034713,265.6929058455146,5.907854008713404,157.03199748085538,55.650344838201015,134.2897977795884,149.63426096282987,214.6493360945076,198.21548219373173
3.204272363150868,272.1258966228393,5.907854008713404,159.11247836138145,60.00429289804197,134.17248610883354,149.62763738753387,214.9048862180728,198.2108343990442
3.2376502002670224,276.6083983660396,5.907854008713404,160.98731219527667,63.54537201373625,134.03968927895733,149.58097309161363,215.1537595783107,198.24677273276623
3.2710280373831773,279.23923961674706,5.907854008713404,162.5618287215394,67.71865721154401,133.88886636964554,149.48333769156187,215.3900532394101,198.3266711352027
3.3044058744993325,279.9709111202307,5.907854008713404,163.80731627901915,71.99706144773018,133.73416559040746,149.3446900546245,215.617763588808,198.44365335470567
3.337783711615488,279.06254312756744,5.907854008713404,164.96741535281177,76.32602527517645,133.57004008804807,149.17460975619565,215.86375601917865,198.5906128712549
3.371161548731642,276.1855593502052,5.907854008713404,165.7865654980749,80.61339886832573,133.35861769883425,148.99598253925646,216.13156022831208,198.74476008394643
3.404539385847797,271.17743097277724,5.907854008713404,166.53210726099132,83.59323239187918,133.17221060846174,148.7980849797635,216.44124829920372,198.91643469704016
3.437917222963952,263.682862801632,5.907854008713404,166.93026994358422,86.21611460094995,132.96108463127777,148.5767139781177,216.78599250338723,199.11762890623143
3.4712950600801067,253.8655592023139,5.907854008713404,167.2135591503029,88.21287544559945,132.72877902931367,148.35248809967823,217.13477979754444,199.33299097797504
3.504672897196261,253.16654954754696,5.907854008713404,167.56136159303745,90.16843537171586,132.45548891460191,148.14345281281706,217.5056478877956,199.55866057115304
3.5380507343124163,252.7178252262256,5.907854008713404,167.65764289305548,92.27160348393252,132.16162509663292,147.9584270722564,217.91503560202207,199.789670646558
3.571428571428571,252.6241335746141,5.907854008713404,167.3630456981116,94.03291116165744,131.80776808843294,147.788330789636,218.359526888898,199.9922359414384
3.604806408544726,252.4340743595543,5.907854008713404,167.24580027032513,95.71398032875236,131.38938095718314,147.58790265864334,218.8162213387641,200.23749964126372
3.638184245660881,252.20230620138693,5.907854008713404,167.25721271795285,96.73494844082886,130.9351996131417,147.38806622908743,219.2717446522504,200.4655008911474
3.671562082777036,252.2693441425982,5.907854008713404,166.8989623411479,97.54394173778384,130.441273946394,147.17080550179034,219.7257774496165,200.7147917037605
3.704939919893191,252.3600306248118,5.907854008713404,166.62151627962868,98.23672644301875,129.9141164241543,146.89370988062254,220.2053773672228,201.0297210994396
3.7383177570093458,252.854080971254,5.907854008713404,165.91145082840103,98.50076781709632,129.35020864765264,146.57886835256247,220.69152740532007,201.3645341076742
3.7716955941255006,253.08798858992225,5.907854008713404,165.62723760384284,99.01365302850296,128.75798598005775,146.22196686040184,221.2251798400316,201.7107967937605
3.805073431241656,253.1594992228553,5.907854008713404,165.78092561129887,100.74824952731976,128.1098827714373,145.83085405892578,221.8457389110332,202.08842459634323
3.83845126835781,253.01543159858187,5.907854008713404,166.29915266795473,101.32699514101364,127.44909150341286,145.3875385443957,222.51993995491583,202.5352389965931
3.871829105473965,262.2884193922085,5.907854008713404,168.5102918917212,101.63254694671645,126.73190489505043,144.81727576952358,223.293939492527,203.1756184655184
3.90520694259012,269.592027178635,5.907854008713404,171.92301996181106,101.57732055863144,125.94427361588542,144.04078457496774,224.1430993805604,204.02125135739377
3.9385847797062734,273.26081989177624,5.907854008713404,173.75765030022478,98.7318872145428,124.97336502512228,143.13629121464862,225.0518851822625,204.9693184206932
