Time,Left Shoulder Angle,Right Shoulder Angle,Left Elbow Angle,Right Elbow Angle,Left Hip Angle,Right Hip Angle,Left Knee Angle,Right Knee Angle
0.0,18.56233694833547,29.3768374789626,152.765187811638,161.81666152871878,143.84067257435024,140.08302201405806,200.11257972436405,201.4443998752727
0.0333667000333667,18.174917018742985,28.6921726226308,152.00858956631205,160.47731860582323,143.6106900045757,139.4617008764396,200.81770454790413,201.86682238848692
0.0667334000667334,17.800063296310444,28.174702396943545,151.30829275533478,159.43012223570267,143.4120694229117,138.90264732385577,201.4301584365172,202.2512681897568
0.1001001001001001,17.439505812361883,27.810196956720013,150.6653078523781,158.6521991245686,143.24175234158955,138.40379287184135,201.9565889938769,202.59922998770384
0.1334668001334668,17.09497459822134,27.584426456779365,150.08064533111406,158.1206759786325,143.09668027284053,137.96306903593126,202.40364382365712,202.9122004909497
0.1668335001668335,16.76819968521285,27.483161051940765,149.5553156652144,157.81267950410586,142.97379472889588,137.57840733166034,202.7779705295317,203.191672408116
0.2002002002002002,16.460911104660443,27.492170897023385,149.09032932835115,157.7053364072002,142.87003722198693,137.24773927456343,203.0862167151744,203.4391384478244
0.2335669002335669,16.174838887888168,27.597226146846392,148.68669679419622,157.77577339412696,142.7823492643449,136.9689963801754,203.33502998425905,203.65609131869653
0.2669336002669336,15.91171306622005,27.78409695622895,148.34542853642148,158.00111717109766,142.70767236820112,136.74011016403114,203.53105794045945,203.8440237293541
0.3003003003003003,15.67326367098013,28.03855347999022,148.06753502869887,158.35849444432375,142.64294804578685,136.55901214166542,203.6809481874494,204.00442838841863
0.333667000333667,15.461220733492446,28.346365872949384,147.85402674470032,158.82503192001676,142.58511780933335,136.42363382861316,203.79134832890267,204.1387980045118
0.3670337003670337,15.277314285081031,28.693304289925592,147.70591415809778,159.37785630438816,142.53112317107195,136.3319067404092,203.8689059684931,204.2486252862553
0.4004004004004004,15.123274357069924,29.065138885738023,147.6242077425631,159.99409430364943,142.47790564323387,136.28176239258843,203.9202687098945,204.33540294227072
0.4337671004337671,15.000830980783158,29.44763981520584,147.60991797176823,160.65087262401204,142.42240673805043,136.27113230068565,203.9520841567806,204.4006236811797
0.4671338004671338,14.91171418754477,29.826577233148207,147.66405531938517,161.32531797168753,142.36156796775288,136.29794798023576,203.9709999128253,204.4457802116039
0.5005005005005005,14.8576540086788,30.187721294384293,147.78763025908572,161.99455705288733,142.29233084457252,136.36014094677358,203.9836635817024,204.47236524216493
0.5338672005338673,14.84038047550928,30.516842153733265,147.98165326454185,162.63571657382298,142.2116368807406,136.45564271583396,203.99672276708569,204.48187148148443
0.5672339005672339,14.861623619360367,30.79970996601457,148.2471348094267,163.2259232407073,142.11642758848967,136.58238480295296,204.01682507265053,204.4757916381857
0.6006006006006006,14.870979161440104,30.79359397959248,148.57221286068255,163.4642859916021,141.92710512122994,136.8122558243805,204.1042673396047,204.44125528006109
0.6339673006339673,15.04465870900964,30.66381851388761,149.01089586403697,163.5037076480433,141.78909920803085,137.03954049511242,204.2549712794765,204.4030627811706
0.6673340006673341,15.309545002095756,30.592526470213443,149.60238128857833,163.69841013398985,141.63357515585113,137.276417114772,204.43024454468087,204.3666070696047
0.7007007007007008,15.604977983299344,30.39425375191521,150.30116253951115,163.6932135062047,141.44965911146474,137.53057142368584,204.6392581877982,204.34071907719684
0.7340674007340674,15.774255918346556,30.13201513690772,150.79311598476855,163.55686071861183,141.26050284445694,137.78161632851587,204.92056779933168,204.30326389369705
0.7674341007674341,15.98683686081704,29.70938951484435,151.39931120836948,163.12596712757824,141.02027232442,138.00894476754988,205.24132222497488,204.26426223189023
0.8008008008008008,16.36956115724651,29.12395496379964,152.31025020427523,162.3952299026343,140.71668968410498,138.17020862205294,205.5956518774612,204.28723859136727
0.8341675008341676,16.8530501339814,28.36674579427247,153.3981783654841,161.39291809725503,140.34407842779044,138.33623116622127,205.9806366759697,204.320242456148
0.8675342008675342,17.359370652652846,27.419871515444346,153.87686328270885,160.16837209645223,139.92406381737328,138.48381715148972,206.38941942197445,204.31907744992128
0.9009009009009008,17.90136726491737,26.32132725772088,154.60901880484312,158.71227859179132,139.4427943523311,138.67147699901278,206.81642277104103,204.2721155377677
0.9342676009342676,18.50950115952566,25.176565340310827,160.3805793263314,157.15479979644255,138.91196142531638,138.8958634765042,207.2596212917317,204.2022775535711
0.9676343009676344,19.14162291589384,23.945580971771733,164.93937897286528,155.47948680350282,138.31883771272948,139.180584538543,207.75709160980696,204.0882957322366
1.001001001001001,19.824980486318857,22.76521083619432,167.87163551443473,153.9165648085175,137.6923182908103,139.51863023332646,208.29040400988805,203.93481360389623
1.0343677010343677,20.51591120814518,21.559662049773323,169.631750100649,152.3094363341862,137.01730874642396,139.89821709557725,208.8161595408168,203.7506494662269
1.0677344010677343,21.16430959770377,20.374307824109952,170.70783605441764,151.03732497108845,136.33470246972803,140.31589198591493,209.31785286950333,203.54668667733264
1.1011011011011012,21.78491556406996,19.12521722161146,170.74273696392777,149.64003401103147,135.64076270223802,140.77048308173516,209.8078808013321,203.31557172514405
1.1344678011344678,22.61700436271944,17.616309642956306,169.39250870049102,148.23291841284097,134.94913234118658,141.2345797507596,210.2739522420412,203.0663734198692
1.1678345011678346,23.426159104134296,15.987828910987783,167.2519316499649,146.76085954463525,134.25102393310868,141.7249981767754,210.6970708726048,202.8021493393383
1.2012012012012012,24.41989067446063,14.708122415321805,163.69138952806287,145.48241709579796,133.59159655554515,142.22617937678513,211.0564633634272,202.54165609982743
1.234567901234568,25.24466022367585,13.57626018554406,159.66054026327836,143.85912992979874,132.9532156642808,142.73119451978866,211.35181511837337,202.27258145577252
1.267934601267935,25.643664494902577,12.269593697422756,155.43487674015452,142.43955760153625,132.33461949704406,143.2392123554547,211.59317217460733,201.9924342836252
1.3013013013013013,25.78821719109183,10.96134364137705,150.92246065224668,140.79637077337827,131.69029448239223,143.751461222153,211.7941617525113,201.70883949700905
1.334668001334668,25.64424411701133,9.730206670372414,145.75676383675145,138.7571108149059,131.02767900588233,144.23752319164615,212.0026695131564,201.43516750578704
1.3680347013680347,25.36278767645346,8.66880002592292,140.4917490568066,136.38509561956778,130.36086507535043,144.704057631924,212.17658770156024,201.1457913828608
1.4014014014014016,24.92012596525305,7.699088773214703,135.5381305730871,134.3080628446799,129.71318579115936,145.14608124509633,212.3077394173881,200.8430570960424
1.4347681014347682,24.39392124357473,6.988592666589291,130.64243060757445,131.90344753866248,129.08016691286946,145.57243596879974,212.4132942680676,200.52318301555584
1.4681348014681348,23.67415467738734,6.27766606246157,125.43508819101824,130.59586990505736,128.46521188776617,145.996513578122,212.4842311184079,200.17559215265945
1.5015015015015016,22.81675237589233,5.740018874207586,120.20924790767111,128.03870235003205,127.86392376765052,146.41335490264973,212.56047630131312,199.8144227029516
1.5348682015348682,21.523876171518754,5.40775590950601,114.8141090837669,124.96834153368437,127.29903100407896,146.79952606542832,212.6135376521536,199.4544224756707
1.5682349015682349,20.16104066494349,5.203225356271969,109.6737605771378,121.2943605174605,126.77710416724696,147.18139127507425,212.6715638346044,199.0890986283904
1.6016016016016017,18.573576604111945,5.061870089855705,104.8622932805832,117.27072786448026,126.35227567874,147.53955920092278,212.65971344907177,198.75702056370952
1.6349683016349683,17.075773635887284,5.061870089855705,100.44553170289602,112.91853357384603,125.96521813209036,147.89512641217834,212.6229434455496,198.44153588687232
1.6683350016683351,15.651192375347032,5.061870089855705,96.54884881890024,108.42986587742692,125.58565577709902,148.23049149176535,212.6019916169773,198.16497537251925
1.7017017017017018,14.432159636876822,5.061870089855705,93.25188997966043,103.75211887677752,125.20965625156448,148.51298990626418,212.64322158375973,197.93026831218256
1.7350684017350684,12.55841277878668,5.061870089855705,89.75249177466573,98.92523727062022,124.9218445672823,148.75527596232567,212.738084475054,197.7098070139601
1.7684351017684352,1.4485730441040838,5.061870089855705,86.86697121245214,94.07507376916524,124.66972390261526,148.9510685260543,212.85307897205595,197.49563900819533
1.8018018018018016,1.4485730441040838,5.061870089855705,84.73164593532873,89.3160165837563,124.4476345936678,149.10101989397978,212.994927426307,197.2828049680484
1.8351685018351689,1.4485730441040838,5.061870089855705,83.42629269081324,84.26675723708435,124.22849343218807,149.20148935435907,213.178105984194,197.0660991292345
1.8685352018685355,1.4485730441040838,5.061870089855705,82.76931856301118,78.97577610901541,124.04350259187711,149.2386188957061,213.40128052170667,196.84878802983908
1.901901901901902,1.4485730441040838,5.061870089855705,83.46696645788816,73.64661066002375,123.82917638347938,149.2319200802669,213.649404149769,196.65443110768408
1.9352686019352687,-6.184010042172093,5.061870089855705,85.29745274949542,68.4005908108299,123.60420780811783,149.17330732340235,213.91689358028304,196.4967505686465
1.968635301968636,-10.59129223855668,5.061870089855705,88.26481246164256,63.4753783782968,123.38949135725125,149.1420815252377,214.1903694927932,196.29137745354365
2.002002002002002,-11.777293237765658,5.061870089855705,92.1673884632772,58.91540182531413,123.18573390693818,149.12093682110623,214.5194800443906,196.0580741500519
2.035368702035369,-9.949736487341774,5.061870089855705,98.1776522758565,54.84248153387585,122.98912987802488,149.14974184710164,214.84130972729469,195.83111275219008
2.0687354020687354,-5.405478424791022,5.061870089855705,105.8502796634466,51.3059299972208,122.82282131366962,149.17986989941917,215.1600124396828,195.61828974667063
2.1021021021021022,1.2686871005883331,5.061870089855705,108.6061974875968,48.335434151796925,122.6586376623085,149.21473483301185,215.4557595220253,195.39926131200943
2.135468802135469,1.2686871005883331,5.061870089855705,111.3181390259236,46.06446603217877,122.530732903634,149.2320156116863,215.72061791567432,195.19186913532704
2.1688355021688355,1.2686871005883331,5.061870089855705,114.41063516492184,44.30537889144855,122.44340513330228,149.23730329761756,215.92645438116463,194.99760512143595
2.2022022022022023,1.2686871005883331,5.061870089855705,117.4624423742168,43.12622935525332,122.40273577972177,149.22447357072477,216.0771424593878,194.815051583336
2.235568902235569,1.2686871005883331,5.061870089855705,120.00008400370326,42.12087710178158,122.38426618194174,149.19715263586554,216.1910978376297,194.6388827563345
2.2689356022689355,1.2686871005883331,5.061870089855705,122.32381625045583,41.696615393111706,122.38344985087804,149.15445015072254,216.25583729325183,194.48034970825788
2.3023023023023024,1.2686871005883331,5.061870089855705,124.90568820179055,41.73485576114426,122.41580731111812,149.1128904271032,216.2507490053636,194.3427806730252
2.335669002335669,10.222286807288096,5.061870089855705,127.36325653723208,42.24763751004538,122.48253668777872,149.06943514138518,216.20084650703103,194.22623735239327
2.369035702369036,21.18972004893923,5.061870089855705,130.57188875331337,42.82566801885063,122.53212930222192,149.02430823320407,216.1356069454017,194.1172189348168
2.4024024024024024,33.80479027522735,5.061870089855705,133.84290777714548,43.95024996085629,122.57714415287118,148.98670480650463,216.0722336278009,194.0293158443201
2.4357691024357693,47.981448776565735,5.061870089855705,136.84579965478753,44.97625434968801,122.61734688058084,148.94305151159867,215.98999207904248,193.9663697532553
2.469135802469136,63.30471606254137,5.061870089855705,139.739179724781,46.218188143050206,122.65401242913131,148.89328175127312,215.8894956061222,193.9156827414596
2.5025025025025025,79.56606427011086,5.061870089855705,142.99555163875442,47.86687291488022,122.69098302931016,148.85929046317946,215.7440510454664,193.86096754554023
2.5358692025358693,96.74451001370524,5.061870089855705,146.18550073302296,49.924365170754015,122.72974906607304,148.82440646038523,215.5728697123602,193.81703494647456
2.569235902569236,114.58673579740284,5.07429957212255,148.7578584090388,51.66034540754416,122.76645723242709,148.80230216403282,215.37418624498545,193.7792915659668
2.6026026026026026,132.8623472735172,5.280573179159298,150.9203910707813,53.62697246598645,122.7988076919758,148.77810527037926,215.1563769904529,193.7643816794533
2.6359693026359694,151.04916151006572,5.672517751933104,153.06266367681604,54.05102807516358,122.84286892785808,148.73742162373833,214.91405202016827,193.77660509544256
2.669336002669336,169.11647607647123,6.23719336281817,155.01863637525167,54.95022873340189,122.887520875906,148.69953523578255,214.68264734928871,193.80912898756807
2.702702702702702,186.52795509509448,7.090910727988041,156.8822549463174,55.92469626166638,122.96439769822976,148.67546765679907,214.4322264813604,193.84598364600936
2.736069402736069,203.29333064494912,8.200228883180555,158.72699790702492,57.00523914215304,123.01997523987669,148.65767555503132,214.247151796722,193.90139151415943
2.7694361027694363,219.46571848198764,9.356466844831589,160.23828654931447,58.06869727136143,123.06819740772144,148.66145032297112,214.1067128603184,193.93749084202787
2.802802802802803,234.796765870904,10.50885444897284,161.38101318463708,59.01313497869308,123.13669780106748,148.709867654714,213.98191599904573,193.8892374382162
2.836169502836169,249.15214857458457,11.699906309731002,161.90120962621327,59.72345843395685,123.29174829392166,148.77285469633438,213.82840758992987,193.79167465265155
2.8695362028695364,262.191907196375,12.888653127443105,162.03871214240738,60.118869146761256,123.48522271140337,148.87858676105748,213.61642209238167,193.63322873918804
2.902902902902903,273.7531372535456,14.220841493556856,162.5665678027149,60.42656811905208,123.65494194502102,148.9765811260457,213.37379739195123,193.47587278843343
2.9362696029362696,283.6590052531244,15.676169227274308,163.37641177398572,60.34905964359524,123.80383859243084,149.11778519616686,213.1195717949244,193.2490553286896
2.9696363029696364,291.7881955206075,17.375915190154924,163.8794041557249,59.34558651367406,123.98213645468256,149.21995942148766,212.8390259958113,193.07279379787303
3.003003003003004,297.8041666308705,19.211247162456647,164.27798774756548,58.81459709828904,124.19310742043142,149.1991712792987,212.53952392860924,192.99860631766572
3.0363697030363697,301.9826542277635,21.11495939021581,164.3075672229327,58.32262616039724,124.423124514792,149.11213141650924,212.20811315349152,193.02188017936496
3.0697364030697365,303.8349308323606,23.14701403234819,164.0887955847655,56.5838239838378,124.6737989870172,149.01681729144417,211.89581051399017,193.0087380374007
3.103103103103104,303.5462851291652,25.14733986515073,163.55959208133663,55.5193735290611,124.96658796169456,148.89823166214086,211.5601744294145,193.05291508059213
3.1364698031364697,300.70699485998784,27.035941854323102,162.8669038722894,55.09946453786064,125.2195577041191,148.79051242025213,211.2844790042872,193.05850615264663
3.169836503169837,295.2798641700995,28.79902899077365,161.724567001998,55.32559835261947,125.5176921793646,148.6277815707263,210.92981285696223,193.173906574712
3.2032032032032034,286.84298028950207,30.45558214874708,155.0786098394729,56.97770866109592,125.76901699920676,148.436601563519,210.5300979678125,193.41219099454457
3.2365699032365702,276.4706802775164,32.342771422515945,148.77866005910153,58.95646087613813,126.05533755566438,148.18861414126042,210.06701715744788,193.77357584969863
3.2699366032699366,285.50679896395127,34.45961810440749,144.7565531463479,59.66735129412872,126.40679979688096,147.90254244513878,209.5601348616929,194.2613231628148
3.3033033033033035,292.13601909393793,36.2683084630026,141.13510787020903,60.727691206875136,126.80821260858792,147.58562588490102,209.01628079117424,194.8361597778584
3.3366700033366703,296.82325258047325,37.842431991794186,137.87501392312913,61.740506508817646,127.2271396414891,147.2341213074831,208.4529036024119,195.4068169422389
3.3700367033700367,298.8660787319205,39.50431330534908,135.14231051561595,63.20639540485013,127.71028897178576,146.82582473709212,207.8420647558017,196.11158316747645
3.4034034034034035,299.06659981651507,41.1737431368292,133.01338017916436,64.73148987981745,128.34843883119402,146.38101736364425,206.92907921026128,197.0256709810664
3.4367701034367704,296.84297130566114,42.8034290226217,131.39949755838782,66.91153951262865,129.1301944763618,145.88877803915204,205.99798340610192,198.0676768762044
3.4701368034701368,291.98731738555733,44.27945955259933,130.73504644918478,68.84451112268779,129.62378445892298,145.2923467130624,205.36693418441263,199.2465025747975
3.503503503503504,284.8683379126737,45.682023675961446,130.43061748071008,71.37239063704773,130.16940163915334,144.69614335111115,204.7741318295504,200.44410844263456
3.5368702035368704,275.25149642302466,46.84476752730625,130.03321122067916,74.46588160700124,130.87070523503905,144.11250165664555,204.0208075443396,201.6563148290113
3.5702369035702373,264.12357525979155,48.08641154850553,130.22602426135742,78.11834922923185,131.64657086390216,143.58301913834637,203.3149424665262,202.7928044752865
3.603603603603604,251.47369066255828,49.25106671088379,130.49562043042826,81.85625803917728,132.28591426546285,143.13382704311348,202.88779654173632,203.9300468661131
3.6369703036369705,237.8817057021353,50.341614152503226,131.20510156501368,85.98978473684856,133.1032497485079,142.87746490177545,202.2855176016565,204.9015166246897
3.670337003670337,223.50064142770032,51.41423335654689,132.13384668515917,90.71302238194995,133.95660568023848,142.79254555811477,201.73139366440745,205.75651556260945
3.703703703703704,208.3980974395486,52.50388500709597,133.0699347170308,95.7661358760674,134.869248163332,142.8720029441873,201.17150616058,206.478621824744
3.737070403737071,192.77855710510096,53.49233615451069,137.47655824514322,106.39397310432489,135.83791371456584,143.04308916936975,200.58097941686609,207.1251109632801
3.770437103770437,176.9215398836457,54.34967618074628,141.4154101841142,115.72195235188222,136.94073561153988,143.3433447873396,199.909653270936,207.55073486992617
3.803803803803804,161.94862731736893,55.30954434177428,143.8729387877323,123.28838546833585,138.1435279019763,143.70086330214568,199.061241582644,207.78760591746624
3.8371705038371706,146.79486395965793,56.12459277463558,145.7923314482308,129.54785338455736,139.41358029501487,144.33065647296746,198.18351752151344,207.79658406579705
3.8705372038705375,131.77902767923084,57.66577124622034,146.8724205652597,134.0565779787876,140.69880794051392,144.982523500987,197.34569371806813,207.61962638902992
3.903903903903904,116.51337379634032,58.141021609592826,147.510254197435,136.76589157517236,142.0859890368288,145.8018370668376,196.4069033156328,207.15073772725452
3.937270603937271,101.43157753691388,57.42027591993662,147.11949963953913,137.92364502877234,143.5898248178547,146.72797083051557,195.2327598676723,206.3593819521076
