Time,Left Shoulder Angle,Right Shoulder Angle,Left Elbow Angle,Right Elbow Angle,Left Hip Angle,Right Hip Angle,Left Knee Angle,Right Knee Angle
0.0,23.35251812864962,40.80532325792208,169.46533782557444,177.80539913333985,121.86600116021066,115.49653724821316,211.90116638610127,215.62753200762475
0.0333667000333667,18.916743857171568,36.077873945746376,163.54711274464498,174.68331960134356,121.1790838563548,116.27989579608764,210.91144079900025,213.9325778839186
0.0667334000667334,16.779925007458527,32.7553712294672,158.895245717334,171.36043704074464,120.4570349796682,116.92341779418616,210.3743995912484,212.64684174364976
0.1001001001001001,16.735905792153172,30.72781150780231,155.40779864255464,167.85527784059195,119.71265637091534,117.44026109863412,210.24435808661207,211.7353986182519
0.1334668001334668,18.578530423898176,29.88519117946949,152.9828334192201,164.1863683899343,118.95874987086064,117.84358356555693,210.47563160885767,211.1633235391587
0.1668335001668335,22.10164311533621,30.117506643186505,151.51841194624356,160.3722350778205,118.20811732026858,118.14654305107996,211.0225354817516,210.89569153780388
0.2002002002002002,27.099088079109947,31.31475429767113,150.91259612253816,156.43140429329938,117.47356055990362,118.36229741132854,211.83938502906005,210.8975776456211
0.2335669002335669,33.364709527862054,33.36693054164113,151.06344784701713,152.38240242541974,116.7678814305302,118.50400450242812,212.88049557454943,211.1340568940441
0.2669336002669336,40.69235167423521,36.16403177381427,151.8690290185936,148.2437558632304,116.1038817729128,118.58482218050406,214.10018244198616,211.57020431450653
0.3003003003003003,48.87585873087209,39.596054392908336,153.2274015361808,144.0339909957802,115.49436342781584,118.61790830168174,215.4527609551365,212.17109493844205
0.333667000333667,57.70907491041535,43.55299479764109,155.03662729869183,139.77163421211793,114.95212823600382,118.61642072208652,216.8925464377669,212.90180379728443
0.3670337003670337,66.98584442550768,47.92484938673029,157.19476820503994,135.47521190129245,114.48997803824116,118.59351729784382,218.3738542136436,213.72740592246728
0.4004004004004004,76.50001148879177,52.60161455889373,159.59988615413826,131.1632504523525,114.12071467529236,118.562355885079,219.85099960653292,214.6129763454244
0.4337671004337671,86.04542031291024,57.47328671284917,162.1500430449,126.85427625434691,113.8571399879218,118.5360943399174,221.27829794020144,215.5235900975893
0.4671338004671338,95.4159151105058,62.42986224731437,164.7433007762383,122.5668156963246,113.71205581689404,118.5278905184845,222.6100645384153,216.42432221039584
0.5005005005005005,104.40534009422112,67.3613375610071,167.27772124706635,118.31939516733428,113.69826400297346,118.5509022769056,223.80061472494083,217.28024771527765
0.5338672005338673,112.80753947669884,72.15770905264516,169.65136635629736,114.13054105642482,113.82856638692456,118.6182874713061,224.8042638235445,218.0564416436684
0.5672339005672339,120.4163574705827,76.70897312094687,171.762298002846,110.01877975264624,114.11576480951253,118.74320395781228,225.57532715799445,218.71797902700365
0.6006006006006006,121.63683935754884,80.30091413274675,173.91457129994478,106.4386714407638,115.00930500342464,119.1841902244118,224.9812091180726,218.69436603822308
0.6339673006339673,113.10842405689462,73.56145503385683,170.78411843218854,97.96020165321735,116.20613516518551,119.58184844861444,223.9843112139263,218.3995299736223
0.6673340006673341,106.528168111841,69.10278928268397,167.12528003728903,90.77075877946996,117.67165827715544,120.0189174762918,222.650894225282,217.8306580254381
0.7007007007007008,101.41325461766984,66.53190780642342,163.70326487994203,85.02622609517385,119.26027326570156,120.66327191454532,220.97082595841127,216.98469695061988
0.7340674007340674,97.7662306778219,65.52265494906585,160.2590502056796,80.85710852751951,120.98946567963748,121.48436486123036,218.9376005967407,215.8734613289489
0.7674341007674341,95.45486872953175,66.08229683274206,156.81058091937626,77.94530828748327,122.84796664285533,122.45474181017111,216.5468440203449,214.5133136741014
0.8008008008008008,94.3020146906266,67.59843485194301,154.02542695365858,78.466382499296,124.60261210188172,123.60762996973808,213.82551026500343,213.1004508105498
0.8341675008341676,94.10305859670918,70.58236544828331,151.56539670356457,79.28623493593423,126.705891929064,125.01059708554826,210.77178023177785,211.29290486942497
0.8675342008675342,104.35485373285876,81.4164987093213,145.85518009111124,82.64335900878234,128.4868213093406,126.3378772810958,207.7127131359657,209.17565904870708
0.9009009009009008,112.59919354118716,85.02938474719548,140.58133632254956,85.75255578988232,130.2043264533693,127.74878496179164,204.6326513546608,206.84710718953227
0.9342676009342676,118.72797420152445,97.7016690185404,136.98643559641016,82.57396904876806,132.12563060135577,129.26523728371555,201.4679375773456,204.3839712622276
0.9676343009676344,123.42337887024952,108.76358370032338,132.92497097763976,89.00268147503299,134.18713816716408,130.92947174511912,198.15946641668847,201.8449530301621
1.001001001001001,125.86975897790882,116.95887720036394,129.31972532661663,94.62179143918245,136.29334498632744,132.65294870843138,194.8490982386536,199.32398316141044
1.0343677010343677,126.3582792958257,123.44448681464188,126.55491588349824,99.68805260382028,138.36890580773755,134.5278897569897,191.4876728993333,196.825433718306
1.0677344010677343,129.69735936919446,131.81429217895294,119.17177015410029,104.18875937312984,140.39680569610618,136.83021635299406,187.8330482160005,193.6713097545034
1.1011011011011012,132.62851960553908,139.57218871615734,112.0396739481126,108.3041116042988,142.3558711005976,139.1537534615283,184.3387284079577,190.56411355160293
1.1344678011344678,135.01027540670358,146.49474022375318,105.34162169870328,111.86951043566457,144.22665311143712,141.47104520596864,181.0608851983933,187.55277839272009
1.1678345011678346,136.70114217453306,152.35851049923997,99.2606078390412,114.720357005565,145.989702818851,143.75463570969222,178.05569031049723,184.6862375609722
1.2012012012012012,137.55963531087252,156.94006334011684,93.97962680229524,116.6920524523382,147.62557131306565,145.97706909607624,175.37931546745924,182.01342433947647
1.234567901234568,137.4442702175673,160.01596254388335,89.68167302163435,117.6199979143222,149.11480968430732,148.11088948849783,173.08793239246916,179.58327201135023
1.267934601267935,136.21356229646233,161.36277190803887,86.54974093022732,117.33959452985503,150.4379690228024,150.12864101033415,171.23771280871688,177.4447138597107
1.3013013013013013,133.7260269494028,160.75705523008253,84.766824961243,115.68624343727475,151.5756004187772,152.00286778496235,169.8848284393923,175.6466831676752
1.334668001334668,129.84017957823386,157.97537630751393,84.51591954785039,112.49534577491934,152.50825496245798,153.70611393575965,169.0854510076851,174.23811321836098
1.3680347013680347,124.41453558480065,152.79429893783225,85.98001912321827,107.60230268112676,153.21648374407118,155.21092358610315,168.89575223678534,173.26793729488531
1.4014014014014016,117.30761037094815,144.99038691853718,89.34211812051541,100.8425152942352,153.68083785384303,156.48984085937002,169.3719038498827,172.78508868036548
1.4347681014347682,108.3779193385217,134.34020404712768,94.785210972911,92.0513847525826,153.8818683819999,157.51540987893748,170.57007757016717,172.83850065791876
1.4681348014681348,97.48397788936629,120.62031412110352,102.49229211357368,81.0643121945069,153.80012641876814,158.26017476818262,172.54644512082854,173.47710651066237
1.5015015015015016,84.48430142532689,103.60728093796374,112.64635597567238,67.7166987583463,153.41616305437404,158.69667965048262,175.35717822505663,174.74983952171362
1.5348682015348682,69.23740534824896,83.07766829520796,125.43039699237606,51.84394558243875,152.71052937904392,158.79746864921464,179.05844860604137,176.70563297418985
1.5682349015682349,51.60180505997742,58.80803999033547,141.0274095968535,33.28145380512231,151.66377648300414,158.53508588775588,183.70642798697256,179.39342015120823
1.6016016016016017,31.436015962357345,30.57495982084535,159.62038822227368,11.86462456473494,150.256455456481,157.88207548948344,189.35728809104,182.862134335886
