Time,Left Shoulder Angle,Right Shoulder Angle,Left Elbow Angle,Right Elbow Angle,Left Hip Angle,Right Hip Angle,Left Knee Angle,Right Knee Angle
0.0,11.527009090175095,51.04740263250736,198.48938943001048,166.39672564894377,159.93340298459458,202.7760457712776,183.9964200482895,181.78895690632984
0.0333778371161548,9.008199233832984,29.28876504407529,196.1427967874673,165.95779889846108,160.54940719293273,202.07802623354752,183.77283832640555,182.3328328600875
0.0667556742323097,6.844183894295995,11.317272722433444,194.4551016477003,165.89426258914077,161.09531462825225,201.40347496110311,183.50013414767105,182.72342674677617
0.1001335113484646,5.037057956587545,-3.073701250771393,193.3686513029957,166.16827551706217,161.5750400666479,200.7526487254124,183.18380023766167,182.9719025940123
0.1335113484646194,3.588916305731046,-3.073701250771393,192.82579304563964,166.74199647830466,161.99249828421438,200.1258042979433,182.82932932195328,183.0894244294124
0.1668891855807743,2.501853826749908,-3.073701250771393,192.76887416791848,167.5775842689476,162.35160405704647,199.52319845016407,182.4422141261216,183.0871562805927
0.2002670226969292,1.777965404667544,-3.073701250771393,193.1402419621184,168.63719768507033,162.65627216123897,198.94508795354253,182.0279473757424,182.97626217516984
0.2336448598130841,1.4193459245073647,-3.073701250771393,193.8822437205256,169.88299552275222,162.91041737288657,198.39172957954685,181.5920217963913,182.7679061407602
0.2670226969292389,1.4193459245073647,-14.090783793892378,194.9372267354264,171.27713657807263,163.11795446808406,197.86338009964496,181.13993011364423,182.47325220498024
0.3004005340453938,1.4193459245073647,-21.940601825282705,196.2475382991069,172.7817796471109,163.28279822292615,197.360296285305,180.67716505307683,182.1034643954464
0.3337783711615487,1.4193459245073647,-26.829782263295577,197.75552570385352,174.35908352594643,163.4088634135077,196.8827349079949,180.20921934026487,181.66970673977505
0.3671562082777036,1.4193459245073647,-28.96495202628416,199.4035362419524,175.97120701065853,163.5000648159234,196.4309527391828,179.7415857007842,181.1831432655828
0.4005340453938584,1.4193459245073647,-28.55273803260168,201.13391720568973,177.5803088973266,163.56031720626797,196.00520655033665,179.27975686021048,180.65493800048583
0.4339118825100133,1.4193459245073647,-25.79976720060126,202.8890158873518,179.14854798202995,163.5935353606362,195.60575311292445,178.82922554411948,180.09625497210078
0.4672897196261682,1.4193459245073647,-20.912666448636124,204.6111795792248,180.638083060848,163.60363405512285,195.2328491984144,178.39548447808693,179.51825820804407
0.5006675567423231,1.4193459245073647,-14.09806269505949,206.24275557359508,182.01107292986,163.5945280658227,194.88675157827427,177.98402638768863,178.9321117359321
0.5340453938584779,1.4193459245073647,-5.562582858224495,207.7260911627488,183.22967638514544,163.57013216883044,194.5677170239724,177.60034399850028,178.34897958338132
0.5674232309746329,1.4193459245073647,4.487146143515709,209.0035336389739,184.2560522227851,163.53436114024225,194.2760023069781,177.2499300360992,177.78002577800962
0.6008010680907877,1.4193459245073647,15.844497391807865,205.2355354707153,184.57608861137723,163.54375525899647,193.9621324047843,176.63052598605643,176.84504316178914
0.6341789052069425,1.4193459245073647,28.302843968298763,203.87225963707348,184.47270911629803,163.5096494571326,193.49981166083205,176.26341338446093,175.89600515142544
0.6675567423230975,1.4280902712927812,41.65555895463533,202.91234003747348,182.65689028756552,163.3158966155294,192.8785985042001,176.2661706635627,175.1801787446458
0.7009345794392523,1.8062933300472053,55.696015432464606,202.00380094683868,180.952628838402,163.13302687645003,192.51194324248053,176.41132241651988,174.70626095599528
0.7343124165554072,2.55604998579405,71.92490707366066,201.33599127293692,180.00036645976618,162.7963834883707,192.1945118495579,176.6551396345241,174.47989057962928
0.7676902536715621,3.6794551235567248,89.1738116390927,200.69399536811184,179.39226392261463,162.4182543896613,192.3715173992383,176.96151852353907,174.45154880384175
0.8010680907877169,5.1786036283586405,105.3053013274865,195.79192305242523,178.58704347433468,162.27226192311707,192.7321832915513,177.2865003066942,174.7617719459253
0.8344459279038718,7.055590385223207,119.95389768559276,191.36027164902148,177.83587421325316,162.18443933712473,193.28657170670337,177.67299180411322,175.4321093539234
0.8678237650200267,9.31251027917385,132.53026452380118,192.61772786085947,176.30774262600042,162.27866846201874,193.89190583180493,178.10681621273343,176.431085095642
0.9012016021361816,11.95145819523396,142.53335496179574,195.5874915078841,172.66625168741987,162.6690056926432,194.4844470262969,178.60031535873702,177.70340926480517
0.9345794392523364,14.974529018426962,150.15081297767637,194.6916074036571,167.35230792254796,163.2744711826926,194.95522028068,179.1489551910986,179.10553754343258
0.9679572763684912,18.383817633776143,155.46287156179994,194.02547091059063,163.05782077735313,163.9977157879156,195.3539123989782,179.74841890276056,180.71840777051847
1.0013351134846462,26.696701601533626,158.4737031078837,194.451473352035,160.1640385180201,164.71266154319153,195.69280325834447,180.401788634968,182.33747274948468
1.034712950600801,34.80276584309474,160.05626281085878,195.93448946215912,156.07195470107587,165.2908027997309,195.94557599595493,181.0609274412027,184.05642399280896
1.068090787716956,42.427656166869816,160.52019781309016,197.10352974559817,153.33596361409445,166.06324898155736,196.04205739339287,181.5624140231794,185.78419055412817
1.1014686248331107,49.07220673547871,159.0289894798226,192.5307826453584,151.04250487386753,167.02274928072538,196.0495217555096,181.9569424286505,187.59131357160248
1.1348464619492658,54.80989596880641,156.1544136927849,192.8473955740008,150.95725461655493,168.04016214449777,195.84199682469807,182.28707596729973,189.42927848955145
1.1682242990654206,59.273551782211406,152.4292326712003,195.36805681738164,156.80729269333793,169.16172540600962,195.7013132089661,182.5528563400361,191.09564117036643
1.2016021361815754,62.94501376320563,147.61822000603644,197.3438357558933,160.7963525092272,170.31164369149263,195.6202497326393,182.82492107950245,192.6103442801472
1.2349799732977302,65.70838073851411,141.84535862165663,195.6116724965255,165.0968991966727,171.31135597469475,195.48656513710043,183.19287745608185,194.16141038201783
1.268357810413885,66.56549830838676,139.16680406624488,198.0393509377478,167.42304204787106,172.28397035581168,195.3661895170643,183.42318570984293,195.70886591409808
1.30173564753004,66.79831490604782,134.5109840665406,205.2199882990704,170.79744492488888,173.20096449071048,195.4584337644941,183.3982137535424,197.25326439314543
1.335113484646195,66.25186446308469,128.33455780385938,211.4144110107308,174.58334516369334,174.3373928690088,195.535619318049,183.33501793025616,198.60843302831293
1.3684913217623498,64.86268526749703,120.57270123389704,206.73072725265564,177.67380934375183,175.48238403353042,195.51168970863355,183.23332163796007,199.828324034462
1.4018691588785046,63.025732321921325,110.7345632974008,201.4320651497121,174.81166985104315,176.66007190462238,195.4462752413872,182.9731471068756,201.05127870803204
1.4352469959946594,66.28136903684143,99.53945491428352,195.75105384970408,172.86102980235785,177.79929288264825,195.4306540794008,182.5158823537718,202.22135735039268
1.4686248331108145,68.08615670066172,86.51218342998843,199.00908373358885,171.5202123943123,178.8468324688765,195.25244469516403,181.81108004602552,203.37394158192524
1.502002670226969,64.21367712748088,72.04911299156825,198.4167941716926,171.57515481718607,179.884812440883,194.8083758830099,180.797192644072,203.70401683361703
1.535380507343124,66.24883890456819,60.52089814274306,197.40852690852643,171.3615425544105,180.88743272555132,194.32479948652485,179.73373641290786,203.97162081275545
1.568758344459279,66.78627964659492,50.17077624083294,195.9375499893196,170.8548724428686,181.8491208016535,193.80769561215268,178.64184526696528,204.1996148100758
1.6021361815754338,67.40814996188637,42.67888961932301,193.95713145930264,170.03064131944487,182.7643041479627,193.26304436633865,177.54265312067767,204.410860116315
1.6355140186915886,66.60845777354267,40.67369411736095,191.4205393637066,168.86434602102378,183.62741024325223,192.696825855528,176.45729388847852,204.62821802220972
1.6688918558077437,65.90898077130645,39.84039155136398,188.2810417477624,167.3314833844898,184.43286656629544,192.1150201861661,175.40690148480132,204.8745498184969
1.7022696929238983,61.83914874962515,40.17857881482945,184.49190665670065,165.40755024672745,185.1751005958656,191.52360746469824,174.4126098240795,205.1727167959132
1.7356475300400531,56.18966942626648,41.68785280125559,180.00640213575235,163.06804344462117,185.8485398107359,190.92856779756963,173.49555282074664,205.54558024519545
1.7690253671562082,47.4357937936425,44.36781040414076,174.77779623014834,160.28845981505546,186.44761168967972,190.3358812912256,172.6768643892361,206.0160014570804
1.802403204272363,41.407030832568296,48.21804851698306,168.7593569851194,157.0442961949148,186.96674371147049,189.75152805211147,171.97767844398143,206.6068417223049
1.835781041388518,36.86145130923131,53.23816403328078,161.90435244589642,153.31104942108368,187.4003633548813,189.1814881866725,171.41912889941608,207.3409623316056
1.8691588785046729,35.33160566601421,59.4277538465322,154.16605065771023,149.06421633044658,187.7428980986856,188.631741801354,171.02234966997355,208.24122457571943
1.902536715620828,33.652221278518,66.7864148502355,145.49771966579166,144.27929375988802,187.98877542165647,188.10826900260125,170.8084746700873,209.3304897453832
1.9359145527369823,32.90238404979954,75.31374393788897,135.85262751537158,138.93177854629238,188.1324228025674,187.6170498968596,170.7986378141908,210.6316191313336
1.9692923898531367,33.21232765276792,85.00933800299083,125.1840422516808,132.99716752654425,188.1682677201916,187.16406459057413,171.01397301671756,212.16747402430727
2.0026702269692924,34.712285760332406,95.87279393903924,113.4452319199502,126.45095753752808,188.09073765330243,186.7552931901904,171.47561419210103,213.96091571504144
2.036048064085448,37.53249204540231,107.90370863953264,100.58946456541058,119.2686454161283,187.89426008067312,186.3967158021535,172.2046952547747,216.0348054942725
