Time,Left Shoulder Angle,Right Shoulder Angle,Left Elbow Angle,Right Elbow Angle,Left Hip Angle,Right Hip Angle,Left Knee Angle,Right Knee Angle
0.0,33.189938529278294,38.30589546100904,168.63471610986335,159.32840121903,137.44709957228963,129.63349380346386,200.8285589035961,213.5323532735713
0.0333667000333667,32.56087747783634,38.10320362534269,168.16981439532802,159.2090454246406,137.07064741896954,129.1194578573033,200.1588335414989,213.444259307319
0.0667334000667334,32.07018091139136,37.8765840855766,167.86517132116435,159.11258554861604,136.72484028131237,128.7030388101935,199.6372442064354,213.3655740746921
0.1001001001001001,31.70726174137292,37.62477045195222,167.71245346873118,159.03521053278416,136.40667884234952,128.37995835438255,199.2556509856041,213.29499088802547
0.1334668001334668,31.46153287921056,37.34649633471105,167.70332741938728,158.97310931897294,136.1131637851125,128.1459381821186,199.00591396620365,213.23120305965384
0.1668335001668335,31.32240723633385,37.04049534409453,167.82945975449152,158.9224708490102,135.84129579263276,127.99669998564976,198.87989323543252,213.1729039019121
0.2002002002002002,31.279297724172345,36.70550109034415,168.08251705540266,158.87948406472393,135.58807554794177,127.92796545722412,198.86944888048944,213.11878672713505
0.2335669002335669,31.3216172541556,36.340247183701365,168.45416590347952,158.84033790794197,135.35050373407097,127.93545628908984,198.96644098857288,213.06754484765744
0.2669336002669336,31.438778737713164,35.943467234407656,168.9360728800809,158.8012213204922,135.12558103405183,128.01489417349498,199.16272964688136,213.01787157581407
0.3003003003003003,31.6201950862746,35.51389485270448,169.5199045665656,158.7583232442026,134.91030813091584,128.16200080268771,199.4501749426136,212.96846022393976
0.333667000333667,31.85527921126947,35.05026364883332,170.19732754429248,158.707832620901,134.70168570769445,128.37249786891613,199.820636962968,212.9180041043693
0.3670337003670337,32.13344402412732,34.55130723303563,170.96000839462027,158.64593839241533,134.4967144474191,128.64210706442836,200.26597579514333,212.8651965294376
0.4004004004004004,32.44410243627771,34.01575921555289,171.79961369890785,158.5688295005735,134.2923950331213,128.9665500814725,200.778051526338,212.8087308114793
0.4337671004337671,32.7766673591502,33.44235320662657,172.70781003851397,158.47269488720335,134.08572814783247,129.34154861229666,201.3487242437507,212.7473002628293
0.4671338004671338,33.120551704174346,32.82982281649813,173.6762639947975,158.35372349413288,133.8737144745841,129.762824349149,201.96985403457992,212.6795981958224
0.5005005005005005,33.46516838277971,32.17690165540905,174.6966421491172,158.2081042631899,133.65335469640763,130.22609898427757,202.63330098602427,212.60431792279337
0.5338672005338673,33.79993030639583,31.48232333360078,175.76061108283187,158.03202613620238,133.42164949633457,130.72709420993056,203.33092518528235,212.52015275607704
0.5672339005672339,34.114250386452575,30.744821461315134,176.8598373773017,157.8216780549994,133.17559955739742,131.26153171835705,204.0545867195544,212.42579600800985
0.6006006006006006,34.497845959266655,30.03817372731113,178.22997353416756,157.68919210853093,133.01013057507757,131.6193662095828,204.6690693943691,212.4791549440308
0.6339673006339673,34.738899518742734,29.21189791865208,179.41511349344916,157.4347198880118,132.7208456769991,132.04446073836297,205.31053575838143,212.47834995758384
0.6673340006673341,34.892836768642866,28.3697376822893,180.13156559527891,157.02928596752403,132.34385236226768,132.54658876321926,205.9664658610048,212.40873172504288
0.7007007007007008,34.85831253654197,27.32866391782689,180.84395221941105,156.52097730969595,131.91937270397906,133.1409903059724,206.62575378570733,212.26120961580563
0.7340674007340674,34.984903478115655,25.930632387766085,181.457628422244,155.96021610432936,131.4861367007474,133.8179592739925,207.2360596745634,212.02516489065275
0.7674341007674341,34.95377865315127,24.46973677443801,182.18897389426667,155.29493246540233,131.0178725434216,134.56264516009554,207.84001959653764,211.71157664850813
0.8008008008008008,34.65646753044227,23.01208333232797,184.7872695227528,155.930152629572,130.56351383810642,135.32214491965408,208.3448367170003,211.35255468898168
0.8341675008341676,34.08369235774499,21.671567375854703,189.86342884204103,156.3617426275541,130.029029723625,136.09636266960604,208.86564613648736,210.94371871846084
0.8675342008675342,33.0167415865047,20.12705941352177,189.40672734493748,156.59409384607483,129.41592166182355,136.88696858350548,209.4446146618741,210.5030376684529
0.9009009009009008,31.88061839312781,18.63901997063424,189.18743399527747,156.1826342412506,128.7562000176856,137.70544595483676,210.05612838775943,210.0320404660187
0.9342676009342676,30.72062528711891,16.964509959697438,191.43036231045232,155.8101533261777,128.03447803197662,138.51333491654526,210.6501174148956,209.51962200283336
0.9676343009676344,29.59523544635877,15.428809168406149,193.08673515305617,154.4406592968381,127.24876938534062,139.30623991253816,211.3250759647565,208.96945117858976
1.001001001001001,28.261241154484885,13.876676473724874,194.31690965676663,150.7496930542694,126.4143632453623,140.11268033743377,212.02498768066204,208.408819383798
1.0343677010343677,27.063895817679548,12.589334086924628,195.0874651642604,146.34570597208136,125.56297113569096,140.92171196263865,212.7339162985621,207.8486065738112
1.0677344010677343,25.57525174073315,11.345530827389162,194.9069326473129,143.5752460760048,124.74823360124658,141.66555939591336,213.4237162769697,207.3170548412296
1.1011011011011012,24.261909126725826,10.386637010516983,194.23366827193976,140.6927244637551,123.95241422079592,142.38292488082806,214.12494664557863,206.7981464691755
1.1344678011344678,13.832458766600652,11.159049795605725,192.9463334860256,137.86529317123924,123.0477844506748,143.04719025926548,214.7759569360335,206.33663317212984
1.1678345011678346,6.533102768547879,12.2005597334587,191.30567414739772,133.63475388188004,122.21366726548702,143.67079681016128,215.4131001780948,205.8832821609248
1.2012012012012012,2.6451504699407007,11.563398349101591,189.0284314122601,130.01430720492374,121.46877392439931,144.20660276745792,215.9868193209834,205.4451623189556
1.234567901234568,1.4496858127052723,11.082282219084414,186.4471846952148,125.7803648521603,120.73972287511911,144.6648513743844,216.84895040718425,205.0246732936104
1.267934601267935,1.4496858127052723,10.99404361621854,183.4458138113699,121.24312414116854,120.07006261740491,145.06186185196273,217.80782970599765,204.6257382763235
1.3013013013013013,1.4496858127052723,11.382889173024497,180.4636202882624,116.68023946968304,119.42503855127538,145.48516654522976,218.76794325450177,204.1734353483348
1.334668001334668,1.4496858127052723,11.500042776670377,177.47511302125412,111.5526164496649,118.94621369842508,145.89176673895574,219.7014121078776,203.6629121784739
1.3680347013680347,1.4496858127052723,12.110424801779144,174.60759881573287,106.69546914135935,118.56860770603863,146.28318802235734,220.6207399107288,203.15298464629888
1.4014014014014016,1.4496858127052723,13.336968947892018,172.00349577251225,102.46465832524288,118.4053441253824,146.60160796446854,221.5670993154166,202.6570834112188
1.4347681014347682,1.4496858127052723,15.07436241540756,169.6287791803855,98.6857816494491,118.3979102431573,147.00060690484233,222.5624618453532,202.1673528583078
1.4681348014681348,1.4496858127052723,17.297913756591807,167.37778806523673,95.34219211974698,118.49897968843976,147.44404040561136,223.5488350684211,201.67883997383345
1.5015015015015016,1.4496858127052723,19.90141406949217,165.3469736688192,92.14449982109927,118.71024128618129,147.92134712356966,224.55913250527223,201.217227516138
1.5348682015348682,1.4496858127052723,22.935360868104787,163.46060707002334,89.37525803035827,119.02753958571616,148.40018530272883,225.54704607181765,200.79093842058543
1.5682349015682349,1.4496858127052723,26.076641878518352,161.82460722306337,86.78975729164138,119.5124438894306,148.93934624711008,226.53494980521444,200.4381305660021
1.6016016016016017,1.4496858127052723,29.354319545755747,160.44593848791845,84.42755375625687,120.13569161436592,149.5125872949152,227.4773821890165,200.1248379404753
1.6349683016349683,1.4496858127052723,32.714753317618296,159.29452138267928,82.30395788031159,120.77877574914022,150.04661627958373,228.3437938037549,199.79733507747352
1.6683350016683351,1.4496858127052723,36.17826516379741,158.3051228899336,80.47175355554177,121.44172083227092,150.53057138107488,229.12660169159884,199.5149519480549
1.7017017017017018,1.4496858127052723,39.47305163800917,157.61488414782562,78.63678680102402,122.00387812692826,151.09016812681358,229.8603979405001,199.16813973039984
1.7350684017350684,1.4496858127052723,42.66570982893351,157.01072020918775,77.05632181830225,122.51997267765118,151.67398885912488,230.51307917400644,198.80658381411425
1.7684351017684352,1.4496858127052723,45.58021911844975,156.76443769833986,75.58578577195776,123.00594637520348,152.3749005105433,231.0831065953593,198.3325624615511
1.8018018018018016,1.4496858127052723,48.31043122992589,156.9357734192136,74.42358108468245,123.47720709011,153.20864547582917,231.5473822819016,197.72167859833792
1.8351685018351689,1.4496858127052723,50.67525083247317,157.93174572106454,73.65732197075562,123.91382298306044,154.06915541606725,231.92051321033804,197.101220785193
1.8685352018685355,1.4496858127052723,52.81794625090792,159.39798428143922,73.21718238207916,124.33171774881208,154.94520442180098,232.21968395968443,196.46016940974337
1.901901901901902,1.4496858127052723,54.95743990630301,161.58831375418683,73.20870279474688,124.68023151427649,155.77729985850883,232.4826198489352,195.8941587806042
1.9352686019352687,1.4496858127052723,57.112890065374216,164.82860736071865,74.10722810215087,124.98853663351984,156.5709451141113,232.69997214992333,195.378527331462
1.968635301968636,1.4496858127052723,58.999123491405776,166.42251539939917,73.87786645047917,125.18918099646642,157.33046570666428,232.9898325887773,194.9663890118394
2.002002002002002,1.4496858127052723,60.78074873453614,164.33291962630148,73.43259733318845,125.26023343820592,158.23858051265674,233.2878617460184,194.38170559252887
2.035368702035369,1.4496858127052723,62.46842254574348,166.97522056075778,72.9133697331935,125.23002248357088,159.01148828471503,233.49389199799623,193.9377011104914
2.0687354020687354,1.4496858127052723,63.9985271257775,169.8985777424394,70.22480563717689,124.88217071503726,159.70210289679213,233.6445245502605,193.6123197766049
2.1021021021021022,1.4496858127052723,65.30532540128392,170.25275328291897,67.27412552570676,124.44747173504643,160.19902903080165,233.75633953703203,193.5343429383162
2.135468802135469,1.4496858127052723,65.58004163759536,170.25446893607358,64.14315523702723,123.87718038236628,160.53627458523587,233.7355597376043,193.66051004001207
2.1688355021688355,1.4496858127052723,65.78867716746993,170.8916503407372,63.45777888353207,123.3800809158434,160.5885482505436,233.616665425269,194.0570866957251
2.2022022022022023,3.151804359066137,66.8614228957788,166.83137419216092,65.19929456078333,123.00994428501924,160.28642033454187,233.48638242658905,194.703369024248
2.235568902235569,7.218797393308323,67.9273470265936,168.52443245519365,66.15653174178567,122.69264999390026,159.77508362617297,233.2550199379848,195.58675250273004
2.2689356022689355,13.31354243670362,68.44187760207551,164.8459617974964,66.48546521032091,122.55936996291928,159.09665621650302,232.9466697495568,196.6687587795363
2.3023023023023024,21.265415626216274,66.5582215813525,162.65540081299812,66.439701136666,122.61222463900413,158.24773550713448,232.56508714067687,197.91281251625813
2.335669002335669,30.784704956597064,63.29244455008672,162.35277846209962,66.17780705935425,122.75529225559904,157.28802028656642,232.08605268493565,199.25091978004187
2.369035702369036,41.57379101843436,60.98861185511261,162.11164534903932,65.63734044202155,122.99191133567612,156.24347859111057,231.5222174323109,200.71068627166537
2.4024024024024024,53.70878175091059,58.30498918221596,161.98167613293322,66.45276508407687,123.16774938916993,155.18331171418197,230.8953734381984,202.284921262954
2.4357691024357693,66.92956798073763,55.25534490187482,162.14536956809457,68.17757781562624,123.44993618490182,154.03676049565817,230.1692558994316,203.9449783035017
2.469135802469136,81.1525117636276,51.49681591398709,162.47053922477758,70.27109954700288,123.86716083621492,152.944869240038,229.4366527600349,205.7475009833712
2.5025025025025025,96.11553415507696,48.3302223603017,163.1544755497297,73.64553305494495,124.39766182779756,151.82892662273323,228.6455781613105,207.6229015878768
2.5358692025358693,111.6745264587906,44.70729995125832,164.18597965901662,77.05175615700306,124.9585209402336,150.68694074031782,227.84333077283333,209.5477881473728
2.569235902569236,127.61892592982792,41.06094639738554,165.25242276059765,80.58844748047512,125.54540336103094,149.5575433538445,226.95451403180857,211.448791204864
2.6026026026026026,143.8869588886238,37.6417782931325,167.79931280447536,84.6633087428998,126.10704315390927,148.21977687464135,225.97807191148848,213.4254573380041
2.6359693026359694,160.1716635555623,34.25681980215524,170.10935035964,88.83428835281782,126.77521336127684,146.82032466725417,224.9444536825807,215.2861576835064
2.669336002669336,176.32975373077818,30.726209109434688,171.35007372569098,92.8923476609277,127.53768997560238,145.40061571349878,223.95042122031188,217.0885121314768
2.702702702702702,192.0989743829074,27.32396016901602,172.1475170741526,96.88798791509868,128.3598586680572,144.08399707592798,222.85411341591595,218.692104958806
2.736069402736069,207.22127063252668,24.034850043731463,172.99573572708127,101.41238225589817,129.23775373521502,142.86165215879254,221.7129835618727,220.1238862845895
2.7694361027694363,221.5965723823402,21.04504157640643,173.69203237818786,105.9933373535517,130.16204722463385,141.76357200418408,220.4796819394112,221.2783463360631
2.802802802802803,235.1919171749768,18.139979858105868,175.237319387392,114.78061661010668,131.0668415612161,140.98145134414534,219.21609954486487,222.14338201312705
2.836169502836169,247.36075620968344,15.663401779728586,176.39326851789048,122.45935695265918,131.95610519518416,140.33726265945882,217.9160345892215,222.68953927138253
2.8695362028695364,257.6094477702745,13.845796750956051,175.94235048425483,128.47936354741364,132.81476214852324,139.85941190858867,216.60205809532803,222.9152440706958
2.902902902902903,266.3292971360784,12.493730592273913,174.90261542360048,133.1802421879538,133.65207776215144,139.5261921669801,215.25736881367249,222.81607420010545
2.9362696029362696,273.5657608075789,11.049825229102812,175.4899412394096,136.6443793554741,134.4094457440132,139.5484971468846,213.93610722381607,222.35942810775532
2.9696363029696364,279.757771213982,10.035897173640905,175.08108297998535,138.67078827571478,135.1309933393362,139.55077975503605,212.6301106664501,221.7041243451236
3.003003003003004,284.39226595279285,10.16561253854294,172.4572905140519,138.08512730350986,135.6750606047013,139.5222722408063,211.53569757383616,220.84833562159008
3.0363697030363697,287.18709153802973,11.011660057861768,169.87101484268015,136.6736670709704,136.1816878157392,139.5089098620172,210.43951451875068,219.80063879276827
3.0697364030697365,296.3897602560878,11.787272792985116,167.56267796565197,133.12091816834433,136.7066030054497,139.55068787059213,209.26925348041155,218.466731231629
3.103103103103104,301.69301024412164,12.6277545566733,164.91854580146736,127.99061540637312,137.19970385308244,139.66599476814173,208.04256281638064,216.91459641331065
3.1364698031364697,303.1061466462577,14.881105590865054,161.95336212681477,121.98275583762758,137.61502932704215,139.83059974728525,206.7912514905945,215.1390669041677
3.169836503169837,299.67381059663194,17.18867558002945,159.00067694335343,115.46625780881811,138.0043476530558,139.82520392917252,205.51223591474732,213.51823056922524
3.2032032032032034,290.76065388952685,20.46915624575986,155.85026355819937,109.34914450249974,138.283834674591,139.8243493365303,204.2699274376815,211.9460068239792
3.2365699032365702,288.9386489707908,23.59754308845158,153.7719014420724,105.84786089903476,138.7356583483515,139.73607107080372,203.0535175930752,210.41606167930124
3.2699366032699366,284.5294950313331,27.18232469820558,152.18694937295174,99.97868416939276,139.19932543696655,139.59190141363584,201.90030048713223,208.899120897516
3.3033033033033035,277.93030411618133,31.215756238131448,149.95174109109644,94.76297664612466,139.84439109849097,139.37907637634797,200.84041629133225,207.426932507999
3.3366700033366703,269.69351775910457,33.81822669440683,147.43049832819332,88.01719331846589,140.51167762120377,139.201937766213,199.929265581268,205.98691763366105
3.3700367033700367,259.5290845465737,35.77639886352377,148.5183314690231,81.35108617872706,141.15864803727928,139.17933287994327,199.0074972371013,204.55488701465805
3.4034034034034035,247.82889083644025,29.176329866190795,142.7375460332187,71.33282677892672,141.76526031006802,139.16147241203063,198.1787103234596,203.1777018185121
3.4367701034367704,234.98320395926385,25.002244733925902,141.77156286711266,62.79503657720949,142.20335772540255,139.2034953529204,197.34802022572072,201.8286175326969
3.4701368034701368,221.1390838828131,23.00285127049634,139.53525181225913,55.31280539083063,142.64248406037913,139.3574280485083,196.59091272742108,200.51893095577887
3.503503503503504,206.52809811261605,22.8266428300584,135.67119441445934,51.00135529038397,143.07169734594325,139.57760263057563,195.8382238561949,199.3494590093767
3.5368702035368704,192.17788366674364,24.327671469257844,131.7328223581806,48.57262075888072,143.49540066683363,139.8445556805759,195.1256356757557,198.2790126694636
3.5702369035702373,177.2558691864415,27.51576736189182,128.36090954681583,47.24589802478695,144.03709490488166,140.10963010780807,194.38972405239755,197.328455375044
3.603603603603604,162.29691965074187,32.15345558144453,124.90801057140634,46.999423227645,144.62107386655646,140.42575670546844,193.73040076527943,196.5103271680527
3.6369703036369705,147.0397155662078,38.340275764125344,122.41051499424798,48.20086360452405,145.29745211647207,140.6500876301737,192.98563279546545,195.70641939494263
3.670337003670337,131.36708082922743,45.729186542694485,121.40843726303024,50.70303514715723,145.95864311351912,140.7742343720389,192.22539788537563,195.0327450055251
3.703703703703704,115.6938290538254,54.68173061335793,121.06833410630512,55.086095814594856,146.71842850164194,140.82052258600726,191.4214896624839,194.44126262290013
3.737070403737071,100.60231555461034,64.70470097793667,121.67281609070108,60.82882381639823,147.4473172079859,140.8349575151628,190.6615913777549,193.95496492625355
3.770437103770437,85.83793790627709,75.41077492710673,120.930117043419,67.61926820730258,148.24406239149366,141.0506458685231,189.92730579735613,193.36905900201444
3.803803803803804,71.33455306494274,86.76178738411295,119.92122934431828,75.72019752727091,148.9916249491502,141.3585120302684,189.2165384817039,192.8686509504087
3.8371705038371706,57.48392613834885,98.95918414640434,119.80210466528666,85.48285399745586,149.7136413800072,141.84875243106748,188.36900628769297,192.2784500298212
3.8705372038705375,44.33462797816506,111.5372176443016,120.42626119194348,96.81788794198422,150.42170514353492,142.44711333799586,187.57823301330404,191.66870110752657
3.903903903903904,32.51109421742041,124.5060583597121,121.04138524460146,109.00059992532825,151.1591769402584,143.22440238902954,186.77733540230057,190.9435456291016
3.937270603937271,22.21960627825444,137.60116669015218,121.7562886952916,122.16732958033153,151.89054594771892,144.18860018393505,186.02398620565023,190.17256440865165
