Time,Left Shoulder Angle,Right Shoulder Angle,Left Elbow Angle,Right Elbow Angle,Left Hip Angle,Right Hip Angle,Left Knee Angle,Right Knee Angle
0.0,42.51923776606976,39.57836502445851,132.55117674075822,161.3448500624321,139.23872402956263,127.31964511251016,185.67849690935648,197.8022915691901
0.0333667000333667,29.30367192575581,36.92489694266484,143.25040330758458,163.1991509181318,136.84074061691305,129.36773374242094,188.99432162864247,195.5664626112992
0.0667334000667334,19.93601844194277,34.610434661691976,152.3960396344366,163.63404834986767,134.5326664503509,131.11441479427071,192.1583041436021,193.76696714144032
0.1001001001001001,14.107543796559728,32.61339844289657,160.07522791586752,162.77553103084574,132.322888915884,132.58175826284966,195.16607879816823,192.37269827968075
0.1334668001334668,11.509514471535756,30.91220854763525,166.37511034643055,160.74958763427202,130.21979539952017,133.791834142948,198.0132799362737,191.352549146088
0.1668335001668335,11.833196948799944,29.48528523726467,171.3828291206789,157.68220683335252,128.23177328726726,134.76671242935598,200.69554190185136,190.67541286072947
0.2002002002002002,14.76985771028138,28.31104877314145,175.18552643316576,153.69937730129325,126.36720996513309,135.52846311686375,203.2084990388341,190.31018254367265
0.2335669002335669,20.010763237909146,27.36791941662225,177.8703444784444,148.92708771130026,124.63449281912544,136.09915620026152,205.54778569115467,190.22575131498488
0.2669336002669336,27.24718001361232,26.6343174290637,179.52442545106794,143.4913267365795,123.04200923525217,136.50086167433952,207.709036202746,190.3910122947337
0.3003003003003003,36.17037451932,26.08866307182244,180.23491154558965,137.51808305033703,121.59814659952106,136.75564953388795,209.68788491754088,190.7748586029865
0.333667000333667,46.47161323696125,25.70937660625512,180.08894495656267,131.1333453257789,120.31129229794,136.88558977369698,211.4799661794721,191.3461833598108
0.3670337003670337,57.84216264846519,25.474878293718348,179.1736678785403,124.46310223611104,119.18983371651674,136.91275238855684,213.0809143324727,192.07387968527385
0.4004004004004004,69.97328923576084,25.363588395568804,177.5762225060757,117.63334245453952,118.24215824125916,136.85920737325773,214.4863637204753,192.92684069944323
0.4337671004337671,82.55625948077737,25.3539271731631,175.3837510337221,110.77005465427035,117.47665325817506,136.74702472258983,215.6919486874129,193.8739595223864
0.4671338004671338,95.28233986544382,25.42431488785789,172.68339565603267,103.99922750850952,116.90170615327226,136.59827443134338,216.6933035772184,194.8841292741707
0.5005005005005005,107.84279687168922,25.55317180100981,169.56229856756065,97.4468496904631,116.52570431255856,136.4350264943086,217.48606273382435,195.9262430748637
0.5338672005338673,119.92889698144276,25.718918173975496,166.10760196285926,91.23890987333704,116.35703512204184,136.27935090627562,218.06586050116383,196.96919404453263
0.5672339005672339,131.2319066766348,25.89997426811188,162.406448036483,85.50139673033817,116.40408596773077,136.15331766203573,218.42833122317143,197.9818753032468
0.6006006006006006,132.6442360607681,23.68552327192267,162.74184516801495,82.20241554476277,116.44511107296051,136.58698054019246,218.87739577470623,198.04236926449573
0.6339673006339673,125.53802886690993,13.945592175934546,160.4741011048736,79.11254146920716,116.67562676994862,136.95503741873276,219.25671916933132,198.47332566395764
0.6673340006673341,120.28055960481248,7.9090337947889315,157.78690882285548,77.11604784758666,117.55655258316096,137.53765662068372,218.9356821287625,198.72221242213783
0.7007007007007008,116.53553575411496,4.635156360472287,154.512828620154,76.29214861478295,118.87890778898657,138.17829809370664,218.19821736726644,198.9591633136315
0.7340674007340674,114.18109561672397,3.8238164434304016,150.88251353628536,76.89811906497135,120.67368912168592,138.9617502756828,216.9486171720174,198.9948685856972
0.7674341007674341,120.36756830106611,5.135600680777543,147.6452734284577,79.41266493515874,122.88473136912415,139.75065952617857,215.23348535105032,198.94859246928937
0.8008008008008008,125.2663485099672,9.230055206155694,144.27509541259087,82.7102585835289,125.41903567491504,140.54500873454333,213.2011439894281,198.8319690716212
0.8341675008341676,121.7595654943414,15.149311984110437,140.71649746424,86.64632596371372,128.30636584615215,141.4765312748693,210.7757011739817,198.4939455010953
0.8675342008675342,126.80912057911138,22.61139093369114,137.4822653081556,91.45551778087864,131.42694728219251,142.4422634128789,208.1264127756136,197.99420443811505
0.9009009009009008,130.37011875525792,31.74330349041455,133.96034310440908,97.54898505756856,134.40141704454305,143.518515293118,205.5357504641753,197.26639891247228
0.9342676009342676,132.47900455323423,41.67564100233637,130.43646010683256,104.64797683879068,137.21232618385665,144.7324008506063,203.08091644096845,196.4148677474397
0.9676343009676344,126.32441752466724,50.206065665449366,128.35924463545288,112.89170614266864,140.5519437585172,146.37893847407932,199.9903937031349,195.16323410010048
1.001001001001001,120.13556001967108,59.78821183751606,126.29076781123976,121.133416068352,143.88431640093,148.06945100784793,196.9426306226352,193.83079095588096
1.0343677010343677,114.15069044710302,70.446981041441,124.19831774331934,129.1872040474567,147.16636000905802,149.78319221806984,193.9933473983276,192.4371073702462
1.0677344010677343,108.60806721582097,82.20727480012843,122.04918254081934,136.86716751159994,150.35499048086535,151.49941587090404,191.1982642290722,191.0017523986628
1.1011011011011012,103.74594873468308,95.09399463648262,119.81065031286744,143.98740389239885,153.40712371431613,153.19737573250947,188.61310131372892,189.54429509659727
1.1344678011344678,99.80259341254722,109.13204207340785,117.45000916859128,150.36201062147052,156.27967560737437,154.8563255690451,186.29357885115792,188.0843045195163
1.1678345011678346,97.01625965827142,124.34631863380828,114.93454721711848,155.80508513043205,158.9295620580042,156.45551914666993,184.29541704021904,186.64134972288647
1.2012012012012012,95.62520588071357,140.76172584058827,112.2315525675768,160.1307248509006,161.31369896416967,157.97421023154283,182.67433607977227,185.2349997621744
1.234567901234568,95.86769048873168,158.40316521665193,109.3083133290938,163.1530272144933,163.38900222383495,159.39165258982283,181.4860561686777,183.88482369284668
1.267934601267935,97.9819718911838,177.29553828490356,106.1321176107972,164.68608965282726,165.1123877349641,160.68709998766886,180.78629750579532,182.6103905703699
1.3013013013013013,102.20630849692772,197.46374656824747,102.67025352181466,164.54400959751962,166.44077139552118,161.83980619123992,180.63078028998524,181.43126945021064
1.334668001334668,108.77895871482129,218.9326915895879,98.89000917127382,162.54088448018751,167.3310691034703,162.82902496669487,181.0752247201073,180.3670293878356
1.3680347013680347,117.93818095372288,241.72727487182905,94.75867266830237,158.4908117324481,167.74019675677553,163.6340100801928,182.1753509950215,179.43723943871126
1.4014014014014016,129.92223362249024,265.8723979378751,90.24353212202791,152.2078887859185,167.62507025340102,164.2340152978926,183.986879313588,178.66146865830427
1.4347681014347682,144.96937512998142,291.3929623106305,85.31187564157821,143.50621307221576,166.9426054913108,164.60829438595323,186.56552987466665,178.05928610208127
1.4681348014681348,163.3178638850543,318.31386951299925,79.93099133608085,132.19988202295704,165.64971836846894,164.73610111053367,189.96702287711747,177.6502608255088
1.5015015015015016,185.20595829656685,346.66002106788585,74.0681673146635,118.10299306975948,163.70332478283962,164.59668923779287,194.24707851980065,177.4539618840535
