Time,Left Shoulder Angle,Right Shoulder Angle,Left Elbow Angle,Right Elbow Angle,Left Hip Angle,Right Hip Angle,Left Knee Angle,Right Knee Angle
0.0,8.890586055172792,4.1148652609347085,172.6941719298281,177.3672646261605,164.30783979948507,208.2918692429272,181.11084764173444,180.6452786042051
0.0333667000333667,6.476384918507231,3.265082243239455,176.05800029315623,178.0584531991725,164.26259647508854,208.30835686568423,181.23806812492424,180.2245108841914
0.0667334000667334,4.501194697272513,2.628686403128736,179.0303777873808,178.6613780298937,164.2368520141759,208.33663352927096,181.3590523849138,179.83731913978446
0.1001001001001001,2.9442763364102724,2.195007208784343,181.63188350639817,179.18178691144132,164.23057978438797,208.3752147615793,181.4732530707231,179.4824762242856
0.1334668001334668,1.784890780862141,1.953374128388071,183.8830965441049,179.62542763693244,164.24375315336565,208.4226160905013,181.58012283137205,179.15875499099613
0.1668335001668335,1.0022989755697491,1.893116630121714,185.8045959943974,179.9980479994842,164.2763454887498,208.47735304392896,181.67911431588053,178.8649282932174
0.2002002002002002,0.5757618654747301,1.893116630121714,187.4169609511722,180.30539579221383,164.32833015818127,208.5379411497543,181.76968017326857,178.59976898425072
0.2335669002335669,0.4845403955187137,1.893116630121714,188.7407705083257,180.5532188082384,164.39968052930092,208.6028959358693,181.851273052556,178.36204991739743
0.2669336002669336,0.4845403955187137,1.893116630121714,189.79660375975453,180.747264840675,164.49036996974965,208.670732930166,181.9233456027628,178.15054394595884
0.3003003003003003,0.4845403955187137,1.893116630121714,190.605039799355,180.8932816826409,164.60037184716828,208.7399676605364,181.9853504729089,177.9640239232363
0.333667000333667,0.4845403955187137,1.893116630121714,191.1866577210237,180.9970171272532,164.72965952919768,208.80911565487253,182.03674031201425,177.80126270253118
0.3670337003670337,0.4845403955187137,1.893116630121714,191.562036618657,181.06421896762896,164.87820638347876,208.87669244106635,182.0769677690987,177.6610331371447
0.4004004004004004,0.4845403955187137,1.893116630121714,191.75175558615143,181.10063499688545,165.04598577765233,208.9412135470099,182.10548549318227,177.54210808037828
0.4337671004337671,0.4845403955187137,1.893116630121714,191.77639371740352,181.1120130081397,165.2329710793593,209.0011945005952,182.12174613328483,177.44326038553322
0.4671338004671338,0.4845403955187137,1.893116630121714,191.65653010630967,181.10410079450887,165.4391356562405,209.05515082971425,182.1252023384264,177.36326290591086
0.5005005005005005,0.4845403955187137,1.893116630121714,191.4127438467664,181.08264614911027,165.6644528759368,209.10159806225903,182.1153067576268,177.30088849481248
0.5338672005338673,0.4845403955187137,1.893116630121714,191.0656140326701,181.05339686506088,165.90889610608906,209.1390517261216,182.091512039906,177.2549100055395
0.5672339005672339,0.4845403955187137,1.893116630121714,190.6357197579189,181.0221007354793,166.1724387143395,209.16602734919567,182.05327083428537,177.22410029139465
0.6006006006006006,0.7078955106433327,1.893116630121714,188.6085116793751,180.77491439669728,166.4665598488496,209.1608024608308,182.0176442915628,177.1930659892742
0.6339673006339673,0.7078955106433327,1.893116630121714,186.9941766508452,181.92523063253608,166.7937040153079,209.12937289027403,181.94832284898425,177.1657215314238
0.6673340006673341,0.7078955106433327,1.893116630121714,188.1416950789367,181.9842344174285,167.1156672366814,209.1273368221288,181.87321239446595,177.1542392863327
0.7007007007007008,0.7078955106433327,1.893116630121714,189.5599420281203,181.8931639888259,167.44459971530785,209.0934657980992,181.7674770645695,177.1761080713401
0.7340674007340674,0.7078955106433327,1.893116630121714,190.54966633721807,181.47659330847395,167.76917582180943,209.0243348466581,181.66306873085784,177.20962724532788
0.7674341007674341,0.7078955106433327,1.893116630121714,191.30206011854503,181.1015976346644,168.1221152346536,208.8996933298156,181.5454352852104,177.27923893222555
0.8008008008008008,0.7078955106433327,1.893116630121714,191.52125978129123,180.9990224271693,168.493008380072,208.71464725193303,181.41061160768365,177.39865930958615
0.8341675008341676,0.7078955106433327,1.893116630121714,191.5420529171392,181.2934075466853,168.89857061505228,208.53898828550444,181.23891042004644,177.48577545169027
0.8675342008675342,0.7078955106433327,1.893116630121714,191.99029844766807,180.97776471502428,169.29849548587566,208.42650528643767,181.05028400091072,177.55763763753922
0.9009009009009008,0.7078955106433327,1.893116630121714,192.4855728227961,180.6513278637667,169.69670110033636,208.30041958355136,180.85599126333005,177.6245626125839
0.9342676009342676,0.7078955106433327,1.893116630121714,192.83460688120675,180.2144777618035,170.08145310682315,208.16548820441216,180.68016696588987,177.68996625698253
0.9676343009676344,1.2250881557902191,1.893116630121714,192.98938472444212,180.18076141956124,170.5299869823921,208.00722470622685,180.4451958116551,177.7569605566515
1.001001001001001,1.2250881557902191,1.893116630121714,191.77321147019845,180.1508602518685,171.07155027488523,207.7994366688328,180.1780198657583,177.82798884340056
1.0343677010343677,1.2250881557902191,1.893116630121714,193.79385291208936,180.44121506908584,171.71646122729788,207.54918146892305,179.83348182624792,177.91257481205682
1.0677344010677343,1.2250881557902191,1.893116630121714,192.6659660446668,181.4987861168145,172.38753335817788,207.27795094430104,179.44977942582673,178.01156687182353
1.1011011011011012,1.2250881557902191,1.893116630121714,192.1070851315136,182.74559971834609,173.04719619453377,206.97747504787029,179.02665144374885,178.1424904858602
1.1344678011344678,1.2250881557902191,1.893116630121714,191.9700911938789,183.3352364139992,173.62693252427297,206.6465405659501,178.5707379039011,178.30713336611743
1.1678345011678346,1.2250881557902191,1.893116630121714,192.03541035197688,184.6604167956998,174.2030699636112,206.30286271176928,178.05741633900584,178.46645201223967
1.2012012012012012,1.2250881557902191,1.893116630121714,193.668879869498,186.7110735686945,174.7692940831622,205.9281190652445,177.50360341765725,178.6385514660056
1.234567901234568,1.2250881557902191,1.893116630121714,195.06294593410536,189.1713665733945,175.38251609029305,205.55143335579973,176.8794269646203,178.79083587277844
1.267934601267935,1.2250881557902191,1.893116630121714,196.7630945599175,195.5083028160703,176.02349740877253,205.146846317914,176.21694553790763,178.9479971825163
1.3013013013013013,1.2250881557902191,1.893116630121714,198.24631507894927,200.52312161226973,176.6979238341991,204.7480798961128,175.5239175249204,179.07621192263775
1.334668001334668,1.2250881557902191,1.893116630121714,199.37955405002967,201.3062596191168,177.38139078620256,204.33158867607773,174.81092367208572,179.1771039833389
1.3680347013680347,1.2250881557902191,1.893116630121714,199.132520897868,205.25321999995225,178.0679706931111,203.9367903138052,174.08138899022913,179.2524652481144
1.4014014014014016,1.2250881557902191,1.893116630121714,198.01404141847297,205.493855100323,178.8048098485824,203.63052002293347,173.32028622987187,179.2797022720646
1.4347681014347682,1.2250881557902191,1.893116630121714,196.7279612955536,205.93903712192,179.59060286516,203.39647157402948,172.52210496137224,179.25841617252664
1.4681348014681348,1.2250881557902191,1.893116630121714,194.90705488749032,210.06832384830503,180.3836550823504,203.2273937017064,171.66598136390255,179.20308078119027
1.5015015015015016,1.2250881557902191,1.893116630121714,192.46912744965104,213.0555626805799,181.1488639547212,203.11540430606195,170.78771075622248,179.12209040473928
1.5348682015348682,1.2250881557902191,1.893116630121714,189.41879565748584,213.8634909889536,181.85638272905487,203.04271111950172,169.90867959095587,179.03467294144724
1.5682349015682349,1.2250881557902191,1.893116630121714,186.1293297629104,211.2691219113382,182.5345806487339,203.0052206011196,169.06103907598137,178.9186343920845
1.6016016016016017,1.2250881557902191,1.893116630121714,182.9104115271476,213.33477621791727,183.17746894003807,202.99842641494337,168.2303029463423,178.76548447377667
1.6349683016349683,2.0153792759010063,1.893116630121714,179.2271300661858,213.98359471486884,183.82833136083667,203.0317664378269,167.44044800004076,178.58561621117096
1.6683350016683351,2.0153792759010063,1.893116630121714,174.86450129903838,211.9247725855789,184.46079728815897,203.05063579665529,166.6191856644663,178.41761138176722
1.7017017017017018,2.0153792759010063,1.893116630121714,171.68534953248496,209.41046531903527,185.01532296389132,203.09327051818184,165.8708157822965,178.2420057777788
1.7350684017350684,2.0153792759010063,1.893116630121714,167.8131309377166,206.0551994905479,185.4535013232556,203.20939405783463,165.23960891749326,178.03456625070177
1.7684351017684352,2.0153792759010063,1.893116630121714,165.84691764278642,203.32297563904075,185.78780158464235,203.39423635362635,164.76660216962128,177.83488803255074
1.8018018018018016,2.0153792759010063,1.893116630121714,163.4633186203207,197.6156500931879,186.0731927102203,203.5970287182421,164.3488997526393,177.63134410340714
1.8351685018351689,2.0153792759010063,1.893116630121714,158.47192804221987,192.7848196011789,186.3476080365576,203.82687116804152,164.03015825979372,177.39529300390566
1.8685352018685355,2.0153792759010063,1.893116630121714,153.44303079126215,186.0460953303631,186.5530421214468,204.0505049210641,163.84761458819517,177.12834239073678
1.901901901901902,2.0153792759010063,1.893116630121714,149.03567601291093,181.63328712408003,186.75881816616203,204.3485158939268,163.7591507561587,176.85464059849875
1.9352686019352687,2.0153792759010063,1.893116630121714,143.558197718916,177.05851493357446,186.872291654514,204.6343456197755,163.7879948921229,176.58026659597817
1.968635301968636,2.0153792759010063,2.0035641821670627,138.2491387364502,171.5744758945408,186.9530396463731,205.03646748639912,163.957429842035,176.26217188744357
2.002002002002002,2.0153792759010063,2.0035641821670627,134.8546895965958,167.5014354334861,187.04546527935028,205.57244015300049,164.13802280220102,175.9197540129149
2.035368702035369,2.0153792759010063,2.0035641821670627,131.32592521742734,163.15510038671263,187.1592189143676,206.18771789322767,164.45578836820204,175.56662303299154
2.0687354020687354,2.0153792759010063,2.0035641821670627,127.6575999473634,158.8638402116405,187.4360703849128,206.8692475550737,164.9001143950765,175.15165031188448
2.1021021021021022,2.0153792759010063,2.0035641821670627,124.23365411950824,154.74144011067682,187.7328640269124,207.5933650031069,165.4770397992279,174.73943283169913
2.135468802135469,2.0153792759010063,2.0035641821670627,120.2961435449566,149.02224702882833,187.984351441794,208.5204757360334,166.08417593067762,174.28057000059084
2.1688355021688355,2.0153792759010063,2.2740462527059115,118.26870983003842,144.0961713006589,188.12079457004543,209.50212342566627,166.8328333628269,173.84338379398477
2.2022022022022023,2.0153792759010063,2.2740462527059115,111.11661569525432,139.4017450131886,188.2437969603729,210.42730563688164,167.62045760631227,173.43248906046682
2.235568902235569,2.0153792759010063,2.2740462527059115,108.31418889474917,130.02506293987076,188.3100082884781,211.2814883722349,168.52912088583545,173.11559973502798
2.2689356022689355,2.0153792759010063,2.2740462527059115,107.15347872536354,122.49862969444752,188.4047080224696,212.07062414444223,169.5377829327754,172.85956430973073
2.3023023023023024,2.0153792759010063,2.2740462527059115,107.38812555767312,117.85044657194508,188.45610956152925,212.76064703038824,170.68840205207488,172.72254250830633
2.335669002335669,2.0153792759010063,2.2740462527059115,109.1272280125832,117.77496615481267,188.4573530833229,213.41384244547885,171.9092055233115,172.61313500665256
2.369035702369036,2.0153792759010063,2.2740462527059115,110.13478674605396,119.16707996585292,188.37358977858185,214.0161728348337,173.21124131236127,172.5990284084448
2.4024024024024024,2.0153792759010063,2.2740462527059115,112.0445897769223,120.68871785215384,188.13415431307124,214.40726783985892,174.67228137036793,172.75755795963286
2.4357691024357693,2.0153792759010063,2.2740462527059115,112.90967730404392,118.8581695730977,187.80721423479807,214.74326223297203,176.1713623698242,173.04770494705824
2.469135802469136,2.0153792759010063,2.2740462527059115,116.004878485857,118.13508319150964,187.4131968642696,215.0060538718228,177.63989756745397,173.43866437420692
2.5025025025025025,2.0153792759010063,2.693892309920055,119.94845256568496,121.71462737836312,186.94325762116503,215.28088331649172,179.0955412162264,173.93787872649662
2.5358692025358693,2.0153792759010063,2.693892309920055,124.99248409097272,122.87373378021616,186.47749904409687,215.63320821132544,180.50232163423337,174.45699135065902
2.569235902569236,3.058029815917326,2.693892309920055,130.5190868234901,127.92455079276624,185.94176433689725,215.9644977567865,181.8487258019541,175.09557566931738
2.6026026026026026,3.058029815917326,2.693892309920055,136.6333594654893,134.5749100088746,185.32415302039684,216.2596792948632,183.141086851298,175.83746260974758
2.6359693026359694,3.058029815917326,2.693892309920055,142.762877768417,137.33442867092216,184.63454001659107,216.5351024390044,184.42725874656392,176.70261211787513
2.669336002669336,3.058029815917326,2.693892309920055,148.6942306974469,139.92150906388264,183.86078293285487,216.8676846200724,185.7036510393621,177.49299499758493
2.702702702702702,3.058029815917326,2.693892309920055,154.79059128092686,143.53043560161828,183.0326524803569,217.17356669523383,186.9418649913978,178.3525798580635
2.736069402736069,3.058029815917326,2.693892309920055,161.3384798902141,150.57790429724352,182.06470011781025,217.4075264178433,188.21162060661544,179.36169408901327
2.7694361027694363,3.058029815917326,2.693892309920055,167.1333266445624,152.39741033554984,181.05011424748568,217.5764775736029,189.43066247143625,180.53714996848325
2.802802802802803,3.058029815917326,2.693892309920055,172.48208185691863,153.58830335803088,180.05418476283813,217.636615971244,190.53441341689867,181.7891949900009
2.836169502836169,3.058029815917326,2.693892309920055,177.32234085879657,156.29554952139677,179.1015263608242,217.6898190083914,191.6288811171225,183.11918777821148
2.8695362028695364,3.058029815917326,2.693892309920055,181.99605207845408,158.74912971337375,178.24395500550645,217.79399327296588,192.58403492186287,184.4436989348905
2.902902902902903,3.058029815917326,2.693892309920055,185.6371212874662,161.57548153933612,177.50088145004406,217.8433526599032,193.37916994619567,185.8337784700428
2.9362696029362696,3.058029815917326,2.693892309920055,188.6280266510429,163.8016378526449,176.88048769079222,217.8693976268709,193.9835005921336,187.2226302394106
2.9696363029696364,3.058029815917326,2.693892309920055,191.85829046521897,166.88962017097856,176.3788951692342,217.9129573704665,194.50683564285683,188.6088908112352
3.003003003003004,3.058029815917326,3.252431821991286,195.0406568216505,169.59966717232265,175.97855471171044,217.9506121513848,194.850032914289,189.975645502963
3.0363697030363697,3.058029815917326,3.252431821991286,197.0050436429346,174.2804375572828,175.7877021430081,218.03248231782896,195.0373665322257,191.30892146047228
3.0697364030697365,3.058029815917326,3.252431821991286,197.0758515533933,176.6927532746515,175.6583816921461,218.2566547065495,194.9793620708656,192.6660996933257
3.103103103103104,3.058029815917326,3.252431821991286,197.6025526044961,178.78728067352645,175.77311302888756,218.5720091856818,194.7816141430526,193.94996354230852
3.1364698031364697,3.058029815917326,3.252431821991286,197.69550045647264,181.03788474657776,176.27804826421925,218.8221547095742,194.36568701735047,195.1703007188331
3.169836503169837,3.058029815917326,3.252431821991286,196.2483922123133,180.49518056526765,177.05347153502993,219.0559092108033,193.9885125331427,196.27844045972563
3.2032032032032034,3.058029815917326,3.252431821991286,194.4442205599468,179.37599574395117,178.05122351146272,219.45402092376915,193.58451716488327,197.09492684655496
3.2365699032365702,3.058029815917326,3.252431821991286,191.78756766810668,177.1327607433645,179.01386459067086,219.84290443001683,193.20329383684208,197.8678210674052
3.2699366032699366,3.058029815917326,3.252431821991286,186.57732184021503,173.61661292807122,179.77356482404517,220.3955022264352,192.79446745331427,198.6440696557109
3.3033033033033035,3.058029815917326,3.252431821991286,181.84262127024627,170.63938242024,180.72639627243123,220.58588782248023,192.428926463144,199.47688348569943
3.3366700033366703,3.058029815917326,3.252431821991286,177.83276334927933,166.42552925194695,182.2704494924202,220.26393655454564,191.81254640176624,200.39118196491185
3.3700367033700367,3.058029815917326,3.252431821991286,176.6022033000415,161.62540075795903,183.79058386339813,219.79561922256823,191.387337087822,201.2595555633957
3.4034034034034035,3.058029815917326,3.252431821991286,175.4934169881693,162.85110745208587,185.08575565223688,219.2106533148288,191.19978144997137,201.94206114180804
3.4367701034367704,3.058029815917326,3.252431821991286,174.30877548468447,164.7973151354415,186.11385400339785,218.52054559734412,191.2105611513754,202.5651445569389
3.4701368034701368,3.058029815917326,3.252431821991286,173.2640112051344,167.77745101403488,187.05857663844213,217.75922470649752,191.31164726206129,203.03960681616792
3.503503503503504,3.058029815917326,3.252431821991286,172.8819568745674,168.77906592231875,187.8331175885151,216.8608753739449,191.58441623700884,203.5164144244744
3.5368702035368704,3.058029815917326,3.252431821991286,172.17640484752533,169.38846260322455,188.44502345526308,215.9174024645296,192.02392789653737,203.95826174065
3.5702369035702373,3.058029815917326,3.252431821991286,171.66463434823334,171.6270513648595,188.9728837289773,215.06453427957555,192.4974433023186,204.3070558515627
3.603603603603604,3.058029815917326,3.9389942571013954,173.44894819109325,173.86314978304875,189.36954858782028,214.23713220731784,193.1292110861563,204.50201534329852
3.6369703036369705,3.058029815917326,3.9389942571013954,174.69635576801622,175.81253687356684,189.6772217881376,213.48222714326167,193.8679242767128,204.6103280088207
3.670337003670337,3.058029815917326,3.9389942571013954,175.79785109791413,178.12651112820168,189.9657270589969,212.7651312699348,194.6641062804029,204.6231587573507
3.703703703703704,4.332300720780804,3.9389942571013954,176.7806128147405,180.39658083576185,190.06523106390523,211.99078169786333,195.4954319518569,204.6731903877449
3.737070403737071,4.332300720780804,3.9389942571013954,177.91712389923225,182.8007505364573,189.86161895637755,211.3155026878929,196.45089562635496,204.62345816179592
3.770437103770437,4.332300720780804,3.9389942571013954,178.91973172311103,185.0492032979042,189.4765810480033,210.6869267270293,197.4395123462103,204.570115978736
3.803803803803804,4.332300720780804,3.9389942571013954,179.85821089765764,187.55337171276508,188.923989213922,210.0530164671379,198.54186335533464,204.4847657615111
3.8371705038371706,4.332300720780804,3.9389942571013954,181.2534655010737,189.8346147739374,188.2577569910004,209.2757692507633,199.5921376549292,204.63138158915697
3.8705372038705375,4.332300720780804,3.9389942571013954,181.3422164375132,191.18815932088856,187.5277655708777,208.415276496879,200.59198882794385,204.8742749242284
3.903903903903904,5.817452935433081,3.9389942571013954,181.1672523205141,192.4583130051731,186.8825411383968,207.5390250420662,201.36491633870136,205.1744078458595
3.937270603937271,7.492747404815783,3.9389942571013954,180.4840070632167,192.6520723911342,186.19024555250544,206.79888177704564,201.97968481730427,205.5208885583203
