Time,Left Shoulder Angle,Right Shoulder Angle,Left Elbow Angle,Right Elbow Angle,Left Hip Angle,Right Hip Angle,Left Knee Angle,Right Knee Angle
0.0,19.198213516860307,29.979270990307377,154.80725314061044,165.18936246372343,148.8206029968292,149.33673612242896,200.76413976943417,194.8344275302437
0.0333667000333667,20.320446105021315,30.24356220915104,155.32931727147388,165.4992195721729,148.32049918506223,149.32364449549314,200.9419956603231,195.04949079335256
0.0667334000667334,21.27747142586888,30.46555728986196,155.78960995291533,165.78352326411368,147.88522402070822,149.3238285994061,201.08765381650267,195.2315924352791
0.1001001001001001,22.078765489054373,30.64777649008995,156.19225023932137,166.04344149660798,147.51137004799787,149.3359805038542,201.20319823861743,195.382875105349
0.1334668001334668,22.73380430422916,30.79274006748477,156.54135718507865,166.28014222671806,147.19552981116186,149.3587922785236,201.290712927312,195.50548145288792
0.1668335001668335,23.25206388104461,30.902968279696207,156.8410498445738,166.4947934115061,146.93429585443093,149.39095599310062,201.3522818832309,195.6015541272216
0.2002002002002002,23.64302022915208,30.98098138437404,157.09544727219347,166.68856300803435,146.72426072203578,149.4311637172715,201.38998910701852,195.6732357776757
0.2335669002335669,23.91614935820295,31.02929963916805,157.3086685223243,166.86261897336504,146.56201695820707,149.4781075207225,201.40591859931968,195.722669053576
0.2669336002669336,24.080927277848588,31.050443301728013,157.48483264935288,167.01812926456043,146.44415710717553,149.53047947313988,201.40215436077875,195.75199660424803
0.3003003003003003,24.14682999774035,31.04693262970371,157.62805870766587,167.15626183868272,146.36727371317187,149.5869716442099,201.38078039204035,195.76336107901767
0.333667000333667,24.123333527529617,31.021287880744925,157.74246575164992,167.27818465279418,146.3279593204268,149.64627610361887,201.34388069374896,195.75890512721057
0.3670337003670337,24.01991387686774,30.976029312501435,157.83217283569164,167.385065663957,146.322806473171,149.707084921053,201.2935392665493,195.7407713981524
0.4004004004004004,23.8460470554061,30.913677182623022,157.90129901417765,167.4780728292334,146.34840771563518,149.76809016619853,201.2318401110857,195.71110254116888
0.4337671004337671,23.61120907279606,30.83675174875946,157.9539633414946,167.5583741056857,146.40135559205,149.82798390874177,201.1608672280028,195.6720412055857
0.4671338004671338,23.32487593868899,30.74777326856054,157.99428487202914,167.627137450376,146.4782426466463,149.88545821836897,201.08270461794515,195.62573004072863
0.5005005005005005,22.996523662736248,30.64926199967603,158.02638266016788,167.6855308203667,146.57566142365457,149.93920516476638,200.99943628155737,195.57431169592329
0.5338672005338673,22.63562825458921,30.543738199755715,158.05437576029743,167.73472217271984,146.69020446730568,149.98791681762026,200.9131462194839,195.5199288204954
0.5672339005672339,22.2516657238994,30.43372212644962,158.08238322680575,167.7758794644992,146.81846432183147,150.0302852466181,200.8259184323709,195.46472406377225
0.6006006006006006,21.79775661157664,30.34944991355709,158.09150648720433,167.8492756569453,146.95881252558033,150.07055736469002,200.7429815908099,195.4168744406728
0.6339673006339673,21.481652616735552,30.27256269343094,158.23803794963098,167.89768987973855,147.08786640084998,150.08291152898897,200.6683727075489,195.38595856673587
0.6673340006673341,21.24950376617518,30.204881686345125,158.45169671651678,167.94072855556024,147.20667490271387,150.05819771809772,200.6092246029442,195.38509581045471
0.7007007007007008,20.98879002635212,30.14624714251735,158.64794124544008,167.97234094103277,147.31825109051124,150.00475646964938,200.567423552388,195.40913625206773
0.7340674007340674,20.731306171496342,30.089533673596584,158.8277696497362,167.99625283762654,147.42459118821864,149.93578779244604,200.5448989241622,195.4430415331852
0.7674341007674341,20.491031970153752,30.03489284549884,158.96461372355495,168.00693487681477,147.50501014957297,149.85869527693777,200.5482705440863,195.4846935116903
0.8008008008008008,20.290680262764145,29.97597173479666,159.10834346570454,167.99610427200764,147.58309052873437,149.77466457829007,200.5543547467503,195.52545960609783
0.8341675008341676,20.17433264482541,29.925061899268183,159.30648090318832,168.02082585475517,147.61971917967324,149.6823120853334,200.60013413254256,195.5697364743904
0.8675342008675342,20.10544984595761,29.876288504773225,159.50884005889196,168.0433265147033,147.65975526944254,149.59076310541167,200.64975763641328,195.61059256203097
0.9009009009009008,20.060615598388846,29.833241095817247,159.67795223053952,168.0495921428714,147.7132556716137,149.49955722957648,200.6960791563349,195.6487388891468
0.9342676009342676,19.89145099025676,29.786153742989136,159.5329307966705,168.00491959759395,147.79630379025528,149.3998907486244,200.74590804531545,195.69448378193016
0.9676343009676344,19.79312784420339,29.764797411082927,159.4638258218698,167.96870714410346,147.90753799172953,149.30782942076596,200.7588141734369,195.7383887044205
1.001001001001001,19.744365260350623,29.76393987982532,159.44066919770384,167.93067234538796,148.06387293249952,149.22207451120005,200.7290562560117,195.7795977891493
1.0343677010343677,19.763972783563595,29.7922024179135,159.46106903754117,167.90929831509865,148.23834728649686,149.14855148280031,200.6521781171521,195.8072271048844
1.0677344010677343,19.815114116333284,29.85605361897514,159.49023878979412,167.9842071406022,148.46838254736596,149.0952254954343,200.55341568760127,195.80189523759523
1.1011011011011012,19.95902130416768,29.95208562372312,159.621553965279,168.11616034248362,148.7317013721023,149.06508144607656,200.4130819158227,195.77900678037844
1.1344678011344678,20.244252094789253,30.0498435609352,159.89307024605736,168.27408376215044,148.9603978086804,149.05820136789836,200.2631562975834,195.7415636638983
1.1678345011678346,20.59635748737329,30.153802552864324,160.2047999604796,168.4495357435698,149.16085497731146,149.084527326227,200.1151379601165,195.68430765610083
1.2012012012012012,20.854655910142785,30.26712443929622,160.4377294700833,168.6475654429639,149.34860996413778,149.1143400633845,199.96790815260903,195.6243750720963
1.234567901234568,21.12673573830861,30.390697052157908,160.68801759894723,168.79680474573013,149.53420986280065,149.1420502190994,199.82834786889933,195.56967671800976
1.267934601267935,21.35942509623165,30.493992346178857,160.87871718521689,168.89133032586813,149.73539478386883,149.1779623526421,199.69035748137745,195.5109075389938
1.3013013013013013,21.73622827569678,30.60692478322272,161.20546718148867,168.96320544629006,149.93579595446425,149.2127294537608,199.5340291670104,195.4649259555453
1.334668001334668,22.117280023411,30.742826283155125,161.52456833379335,169.0211474491094,150.11049655251696,149.25525983153202,199.3707750150148,195.42894928486768
1.3680347013680347,22.501989949782462,30.883057755037417,161.8121310717344,169.0510518551597,150.23606733043331,149.30649348200814,199.22254996077848,195.40134883581243
1.4014014014014016,22.85195038249009,31.04836544807596,162.27154325932335,169.09864420918964,150.34789506720793,149.37317791084604,199.0729007493756,195.37927137394632
1.4347681014347682,23.2046395774726,31.18984615687293,162.74467288808157,169.1192386210983,150.4392212781646,149.45287555901302,198.92401578788463,195.36125533792023
1.4681348014681348,23.569323614727708,31.32311699294721,163.24708783421943,169.12529332728826,150.4992143787037,149.54249324476427,198.786225133234,195.34369370678328
1.5015015015015016,24.082508301702703,31.43067745803901,163.76302586779616,169.09723683209293,150.54891088860336,149.64374238721064,198.6356130446728,195.3260867429828
1.5348682015348682,24.59285475150084,31.49181310034893,164.1441597286275,169.04180194207655,150.5970697499112,149.78353916114844,198.49127493174845,195.30024749993032
1.5682349015682349,25.0025185929634,31.501250900947625,164.71144055121022,168.91622148044237,150.64301775397988,149.9182670498398,198.35905378888285,195.2980247829932
1.6016016016016017,25.312626533406533,31.435838620317373,165.28355721164937,168.6999179077723,150.67907526095445,150.0385110514437,198.2351262237309,195.3098967934664
1.6349683016349683,25.55919673080019,31.30721200966567,165.8000802077139,168.38286328450923,150.70902505810514,150.12690974614935,198.11775154247565,195.32577806990773
1.6683350016683351,25.77798744263084,31.156908326169688,166.30934338576122,168.03520398858473,150.71416138394875,150.20309376117015,198.00845838410427,195.34787714963127
1.7017017017017018,26.108605395007256,31.00795299710293,166.81451910473822,167.65315246931647,150.69240266205702,150.25238833043912,197.8979252346755,195.39421088261287
1.7350684017350684,26.48928756266944,30.848144251168765,167.3224986704059,167.2399416013093,150.6602519352299,150.28838769378257,197.7943787657905,195.4549454687768
1.7684351017684352,26.90331715043975,30.67404854168783,167.84246526162778,166.795588658312,150.60090081970822,150.32017259747204,197.70273634972497,195.52875433853447
1.8018018018018016,27.279869900992665,30.4737069882135,168.32597767109107,166.32098634135096,150.50769502397438,150.32826544217482,197.63197309345773,195.63205953326508
1.8351685018351689,27.59840442322546,30.25501616721684,168.7432208997491,165.81866296533144,150.38270849566305,150.32566137994527,197.58031575854773,195.74576829523767
1.8685352018685355,27.951130292809136,30.03372042792243,169.1536962351205,165.3386015256897,150.24742460777236,150.3272303936622,197.5221490861463,195.8462364140271
1.901901901901902,28.30680292781573,29.81257647960573,169.5260158303104,164.87580729049904,150.09295995952058,150.32604381957808,197.4684175085927,195.94217777777789
1.9352686019352687,28.63504866320661,29.60315836497892,169.83873662542246,164.4588015921724,149.93071206187622,150.30702629716632,197.42743919405555,196.0370568001828
1.968635301968636,28.937382052874185,29.40749693898133,170.0853917966738,164.08450546430765,149.75604225580832,150.2877500669389,197.4101067800392,196.12807255049523
2.002002002002002,29.143359411214284,29.238476097950294,170.1941497380923,163.72280394878177,149.63790401919815,150.2816378673475,197.35943349770235,196.2141147549509
2.035368702035369,29.257647458108547,29.03289648733207,170.15532202444243,163.27832983041506,149.53675722139934,150.2683622608005,197.3224044698371,196.29267714290327
2.0687354020687354,29.30980914611899,28.822103091692924,170.03751522351132,162.8287272221374,149.45260366546717,150.2623494085086,197.29058209931748,196.3605861650157
2.1021021021021022,29.47405318797117,28.62439502885513,170.17479737261533,162.4221640882684,149.37217369116215,150.27274038136972,197.25028246684928,196.40757749203087
2.135468802135469,29.644001771538363,28.43132265511236,170.34517719431904,162.07414528927958,149.30651314431137,150.2927667420085,197.22501592949533,196.4187777506297
2.1688355021688355,29.817417257512897,28.253470895658413,170.54248858120252,161.76630293913513,149.2413238067188,150.34248912222208,197.2234771915207,196.3922010962599
2.2022022022022023,30.02347058676328,28.11003506024537,170.8333619725842,161.56537873937052,149.1503332153096,150.41177286227438,197.2682669151529,196.35050414287204
2.235568902235569,30.312164023935388,27.960731191187406,171.25108239760232,161.2835084648921,148.98425147306338,150.48869980077373,197.3381667784693,196.32176175435896
2.2689356022689355,30.645309191340484,27.8317813412156,171.70915374034007,160.9788784068987,148.73146441658162,150.55224962492946,197.46242245054472,196.31125484646324
2.3023023023023024,30.95892609798344,27.74234969263108,172.14096733018627,160.64620576503916,148.47748560737563,150.61084308453624,197.60896168499983,196.31560431978545
2.335669002335669,31.29186536236405,27.71174492082941,172.63999659590348,160.38648762542016,148.22155958395047,150.63262982773253,197.7792631160012,196.34446292455783
2.369035702369036,31.633963100590723,27.69679335326262,173.1776492052577,160.0698013833153,147.9887223311465,150.6642717914513,197.95041362434205,196.3850325163353
2.4024024024024024,31.937292119744924,27.720415295322383,173.63888833010458,159.84022659575956,147.78733468963583,150.72007367039015,198.1023310846342,196.43208273212
2.4357691024357693,32.23435133168703,27.7827426462763,174.09541823763632,159.58826870302704,147.60388951103542,150.78288763984486,198.22071287764388,196.4817309562583
2.469135802469136,32.50723640415915,27.90089954481505,174.28080380368897,159.2452138068851,147.47138953757164,150.86326436520378,198.2974542309811,196.5268242612958
2.5025025025025025,32.752899373050454,28.03249113392717,174.4174941069879,158.91383267667254,147.4012160280218,150.97179129614017,198.3337781174235,196.5626391873001
2.5358692025358693,32.91844430545017,28.189309026513108,174.40594618245757,158.52464336684494,147.38733407480214,151.10363803861208,198.33410169068813,196.5865284234387
2.569235902569236,33.03167197018778,28.2824067823815,174.38577745475544,158.0805509477932,147.42611786945287,151.24101930531768,198.3009024384148,196.60009047712992
2.6026026026026026,33.117956007639265,28.3567240953035,172.5077198172182,157.73509554909356,147.51565500914,151.38804059990386,198.2486428081461,196.5979796823557
2.6359693026359694,33.13447387634763,28.364520194387588,171.1624990695743,157.36006121325826,147.66104416164697,151.54993420277913,198.1664231597059,196.58407998296363
2.669336002669336,33.08926089355251,28.40811745232568,169.7977667507615,157.1612145540295,147.85845347420127,151.71702546170835,198.04797691323483,196.55912896501408
2.702702702702702,33.010650194010736,28.423328937588305,169.1799582646364,156.9362364606076,148.09188942791562,151.87769069926932,197.8754842083582,196.5314833677309
2.736069402736069,32.82498678032423,28.476187158080663,171.5155607209216,156.67678160035962,148.3510545944913,152.06568768858017,197.65744388399887,196.4760538389286
2.7694361027694363,32.669516962893894,28.477696198851984,174.23839496491968,156.3936263371657,148.61944019861502,152.27990277654467,197.4080973522805,196.40365018210483
2.802802802802803,32.646782188146254,28.537380896830363,182.6300713713748,156.3349194650795,148.9019588973675,152.5381045702719,197.15341383485224,196.33185533590176
2.836169502836169,32.640952411341395,28.551615310617336,189.51628077669776,156.28497517057954,149.19382750568792,152.82095947390317,196.8666134779465,196.2553802448817
2.8695362028695364,32.58010123584063,28.497935904803548,194.7195608400268,156.1290552528049,149.4886891282435,153.1429617030989,196.5681758284453,196.1793060975768
2.902902902902903,32.455875270139515,28.36069006338427,198.4075244066321,155.859156085614,149.77149376189345,153.47390386963284,196.26828410111744,196.1133134931773
2.9362696029362696,32.26602521438134,28.41320829076047,200.13539293672005,155.63315391442936,150.02170561101605,153.78645545840106,195.9821830429887,196.0468764513868
2.9696363029696364,32.01401018447987,28.372551783211147,194.20468024799283,155.28410611649124,150.25063650136525,154.094019106906,195.71345641828336,195.97163062587023
3.003003003003004,31.74329809399702,28.03057830918347,196.0188148318416,154.73706990234,150.4547474585718,154.38817805102974,195.4707894312465,195.89230804008872
3.0363697030363697,31.415305954757937,27.486000388557976,196.69425779720945,153.96727375211952,150.6379893369178,154.66084700527563,195.2695475396834,195.82132860093327
3.0697364030697365,31.029532299535656,26.848245912759,196.10621019384865,153.0990645924207,150.77225716597144,154.91725035796003,195.1220321834801,195.7547019112433
3.103103103103104,30.62005539495931,26.087697601839405,194.52001275876387,152.02092508874287,150.87865805497356,155.169524874992,195.01362743877343,195.6973511833972
3.1364698031364697,30.16751169059297,25.178385100046103,192.198179017952,151.045055705189,150.93558980404447,155.40567279666578,194.9481445990732,195.6497784808853
3.169836503169837,29.71971010544497,24.105000152215297,188.96403464219804,149.75682910766196,150.95786443613824,155.61178092180717,194.94527843953463,195.6020191829808
3.2032032032032034,29.182268041324537,22.988642957944293,187.6382281017304,148.3858968303632,150.90845749498058,155.8033728954753,194.98328714935656,195.5587004064355
3.2365699032365702,28.63113278909904,21.855149421627537,184.6226426861708,146.76208878489743,150.84360740546504,155.96679873514762,195.07496311941304,195.5282262826728
3.2699366032699366,28.09150076417309,20.709161228667124,180.3403597429092,145.00850745929557,150.77532446417666,156.1062734016178,195.20879111309284,195.49732635673712
3.3033033033033035,27.58705890810732,19.517068555704466,174.72308003833766,142.98701955733128,150.70307942623893,156.2227281316905,195.3788912978532,195.4929171993277
3.3366700033366703,27.289618809410307,18.327576649878075,167.49848474830793,140.85099467229978,150.6183011378914,156.31186354555305,195.5891777368876,195.5193022545228
3.3700367033700367,27.00950057843744,17.119279752389673,159.234763807482,138.47322433579012,150.53945409004675,156.37513642288866,195.82436982242623,195.5630586996824
3.4034034034034035,26.67514312221056,15.910769122159314,149.94371594507516,136.15491620619966,150.44317034857883,156.4104426440227,196.09033898898568,195.6245522674733
3.4367701034367704,26.21181029428813,14.720055286780363,140.46440324899618,133.6462509595986,150.3755180479099,156.44839803248846,196.34007678331864,195.690073853221
3.4701368034701368,25.7252586562822,13.582442102588614,130.5674398666845,131.05410439854504,150.36550196530928,156.46412215966103,196.5836229336468,195.75613154021835
3.503503503503504,25.19538034813229,12.503249398939555,119.80711544560836,128.19665113448292,150.43469008850684,156.5083273298423,196.7982817050619,195.80706975801564
3.5368702035368704,24.7176954370818,11.509443696153186,108.4960807107412,125.35908543530842,150.58495400128407,156.5672813033844,196.98616431513696,195.8594408618225
3.5702369035702373,24.21701026178638,10.59892890862897,96.734213585996,122.23927633474078,150.77118430791606,156.637333108346,197.14741339609063,195.90697646901955
3.603603603603604,23.8088005004216,9.76572346353052,82.90650230139977,119.1773129934836,151.02658373894542,156.73371438918835,197.2828321603636,195.9538721977021
3.6369703036369705,23.353767942797244,8.978757003400545,70.04171161058565,116.22155013419258,151.30811237793776,156.8463563019596,197.4154421718632,196.00029199683792
3.670337003670337,22.787176234874785,8.299644138865395,57.75776581074878,113.53473728194724,151.61932095727116,156.96456464586797,197.53557290895347,196.04495829761643
3.703703703703704,22.213518165114248,7.685523063932775,46.111349484675344,110.9478370321286,151.97621953426756,157.09392074106435,197.63155983944577,196.08747773682228
3.737070403737071,21.46411058148795,7.31016825028907,35.793756871169656,109.02422046751404,152.3453730877731,157.24095460603104,197.700419590914,196.12903851688705
3.770437103770437,20.599539905296872,7.050391880701321,29.25682229177329,107.11403039786586,152.73663123674407,157.41913625366362,197.7189229367885,196.1615453001715
3.803803803803804,19.837881872990987,6.896908364380569,24.6493048006153,105.52430107834208,153.16751948651884,157.6223173191529,197.69021008799035,196.1876986219636
3.8371705038371706,19.16446946735795,6.726634196813013,22.953889784923224,103.79597316622473,153.63000828869215,157.8729182613435,197.6217282809532,196.2066094724072
3.8705372038705375,18.44680649133448,6.558969106939599,23.796881478487776,102.00268344152724,154.0805069323832,158.14434228732046,197.5400700915013,196.2274614022804
3.903903903903904,17.92271279646839,6.3755363917758725,24.47668705618271,100.07554957487208,154.52094581075977,158.43529977258487,197.44542344897988,196.2422933258542
3.937270603937271,17.486757230077053,6.215357662124842,26.993886884263127,96.76654714737388,154.9469398425909,158.7544528757401,197.33038103166987,196.24858889581972
