Time,Left Shoulder Angle,Right Shoulder Angle,Left Elbow Angle,Right Elbow Angle,Left Hip Angle,Right Hip Angle,Left Knee Angle,Right Knee Angle
0.0,4.507798049750953,2.723964904128332,190.9919506807548,161.89195765102394,167.33146824993636,199.81352001734976,179.59615491070926,182.7623733236982
0.0333667000333667,4.682541031805333,2.673856054361969,190.76002859881183,162.07015923686117,167.51637443414882,199.76088113377995,179.49531411281777,183.22890366998087
0.0667334000667334,4.816869069324227,2.62339256098857,190.5272857008049,162.21301873557013,167.6632638295219,199.6909164619448,179.405139590487,183.6261834353288
0.1001001001001001,4.912993703845269,2.5741333761902028,190.2959121865587,162.32406436467997,167.77399394010484,199.60607037088323,179.32542324985226,183.95810136316467
0.1334668001334668,4.973126476906094,2.527637452148934,190.0680982558979,162.40682434171984,167.85042226994693,199.5087872296346,179.25595699704877,184.22854619691176
0.1668335001668335,4.999478930044334,2.485463741046833,189.8460341086472,162.46482688421892,167.89440632309737,199.401511407238,179.19653273821183,184.44140667999304
0.2002002002002002,4.994262604797623,2.4491711950659667,189.6319099446312,162.50160020970634,167.9078036036054,199.2866872727324,179.14694237947666,184.6005715558316
0.2335669002335669,4.959689042703596,2.420318766388402,189.4279159636747,162.52067253571127,167.89247161552032,199.1667591951571,179.10697782697852,184.7099295678504
0.2669336002669336,4.897969785299885,2.400465407196208,189.2362423656024,162.52557207976287,167.85026786289134,199.04417154355124,179.07643098685267,184.7733694594725
0.3003003003003003,4.811316374124127,2.391170069671451,189.059079350239,162.51982705939025,167.7830498497677,198.92136868695388,179.05509376523435,184.794779974121
0.333667000333667,4.701940350713952,2.391170069671451,188.8986171174092,162.50696569212263,167.69267508019863,198.80079499440416,179.0427580682589,184.7780498552189
0.3670337003670337,4.572053256606996,2.391170069671451,188.7570458669376,162.49051619548914,167.58100105823345,198.6848948349413,179.0392158020615,184.7270678461893
0.4004004004004004,4.423866633340892,2.391170069671451,188.6365557986489,162.4740067870189,167.44988528792135,198.5761125776044,179.04425887277742,184.6457226904552
0.4337671004337671,4.259592022453274,2.391170069671451,188.53933711236795,162.4609656842411,167.30118527331155,198.4768925914325,179.0576791865419,184.53790313143955
0.4671338004671338,4.081440965481777,2.391170069671451,188.4675800079193,162.4549211046849,167.13675851845335,198.3896792454648,179.07926864949025,184.4074979125655
0.5005005005005005,3.891625003964033,2.391170069671451,188.42347468512776,162.45940126587945,166.95846252739597,198.31691690874047,179.10881916775767,184.2583957772561
0.5338672005338673,3.692355679437677,2.391170069671451,188.409211343818,162.4779343853539,166.76815480418867,198.26104995029863,179.14612264747944,184.09448546893435
0.5672339005672339,3.4858445334403765,2.391170069671451,188.4269801838161,162.51404868063872,166.567692852882,198.22452273918,179.19097099479237,183.91965573102468
0.6006006006006006,3.2444227718969287,2.391170069671451,188.39582728705568,162.654541336953,166.2980366709689,198.2048521182996,179.26284256453013,183.8828314388892
0.6339673006339673,2.974594316737835,2.391170069671451,188.4933315558112,162.81468614240202,166.03539676529422,198.22850328184688,179.33511755435555,183.8662835623149
0.6673340006673341,2.711707002785126,2.391170069671451,188.66226215246067,163.02011085296465,165.78907007570484,198.29834846845503,179.41544716159984,183.8223023454265
0.7007007007007008,2.422351669626296,2.391170069671451,188.7516654612548,163.1623057761392,165.57267632885913,198.41461934240635,179.48460949810678,183.7592705696982
0.7340674007340674,2.1542689239941444,2.391170069671451,188.9581876416249,163.3611886358355,165.38021279157547,198.56583679968253,179.55312832315695,183.67858454404544
0.7674341007674341,1.9065901329771104,2.391170069671451,189.33594782776385,163.50811500260275,165.21707269958063,198.78422785272863,179.61828771662948,183.536519531344
0.8008008008008008,1.706916954315985,2.391170069671451,189.81250770696383,163.72278940385067,165.05378907905492,199.0351364686651,179.70182836830242,183.359009781088
0.8341675008341676,1.5592915656591724,2.391170069671451,190.34122614064185,164.02328319415807,164.87893961889938,199.321065903404,179.797653626086,183.1283896595941
0.8675342008675342,1.479124901259724,2.391170069671451,190.84868239266407,164.41270159593557,164.72427277055567,199.64438214903987,179.89523458196027,182.86065099444187
0.9009009009009008,1.294732684415654,2.391170069671451,191.59023554459424,164.73566260797446,164.65829373349848,200.0972318266205,179.95959542733834,182.4378880713236
0.9342676009342676,1.2135741925880534,2.391170069671451,192.35829005653605,165.0933980625689,164.62034478138108,200.5839300589145,180.027507712364,181.9778559191737
0.9676343009676344,1.2135741925880534,2.391170069671451,192.87635995380563,165.53043626226597,164.58776033409012,201.0592632804418,180.10814781689888,181.5411795087984
1.001001001001001,1.2135741925880534,2.391170069671451,193.3264555646985,166.05685393313544,164.5569192998761,201.5153543801917,180.2044689932408,181.13644792442545
1.0343677010343677,1.2135741925880534,2.391170069671451,194.0794689259613,166.56230403985683,164.55157708137278,201.99154069375487,180.3040007265693,180.75756134381783
1.0677344010677343,1.2135741925880534,2.391170069671451,194.77730772291872,167.18243776490448,164.53800719313347,202.4394577939924,180.42698020514612,180.4275329771516
1.1011011011011012,1.2135741925880534,2.391170069671451,195.22420632589,167.80206027079595,164.50584902475285,202.82815926408105,180.57635667806264,180.160586258609
1.1344678011344678,1.2135741925880534,2.391170069671451,195.58744887474447,168.48923594464145,164.45182292865567,203.1441318542176,180.75371943370365,179.94909433680093
1.1678345011678346,1.2135741925880534,2.391170069671451,195.93989808552203,169.25569383280163,164.40563558813238,203.40078131615607,180.9471567797192,179.7887141606669
1.2012012012012012,1.2135741925880534,2.391170069671451,196.5366446787141,170.1069122312596,164.36073109835718,203.57824021750392,181.16348967939123,179.68029400390918
1.234567901234568,1.2135741925880534,2.391170069671451,196.67201450540816,170.87374019579286,164.36632594302887,203.76970309452537,181.36970125044928,179.5724515297113
1.267934601267935,1.2804143373330814,2.391170069671451,196.8532991105739,171.6264584493147,164.39670336383324,203.91407151624827,181.55015119574736,179.50882258695768
1.3013013013013013,1.2804143373330814,2.391170069671451,197.65285079458968,172.32075362820493,164.43869540669954,203.97015153825424,181.7140370830232,179.51450207519866
1.334668001334668,1.2804143373330814,2.391170069671451,198.63719886976665,173.0463780752271,164.47776849956,203.93775891873312,181.86701854240272,179.5526412850653
1.3680347013680347,1.435500958431013,2.391170069671451,199.56081672548592,173.6775678233298,164.50127849096933,203.80778755778252,182.00484093308344,179.6447989635401
1.4014014014014016,1.3892735329302797,2.391170069671451,200.29502402281776,174.3354247800703,164.52891032999105,203.5901508430004,182.1288761629842,179.7775446239745
1.4347681014347682,1.4647670525544274,2.391170069671451,200.3450817560704,174.99833415647868,164.5418655278467,203.27464998860137,182.24767147315964,179.96287066591063
1.4681348014681348,1.4647670525544274,2.391170069671451,200.4842290641386,175.80061763527118,164.44590290924518,202.83780206660103,182.41718737323603,180.17976874041705
1.5015015015015016,1.4647670525544274,2.391170069671451,200.8660542346169,176.5569364635451,164.2991353856167,202.3288682571892,182.58939682784336,180.41777786041888
1.5348682015348682,1.4647670525544274,2.391170069671451,201.43542562766743,177.4093898851121,164.13900917176417,201.763897202137,182.73555792251472,180.67897818416063
1.5682349015682349,1.4647670525544274,2.391170069671451,201.8057699938469,178.19826118151028,163.97231941068955,201.1540105963244,182.8513710604382,180.9453053242881
1.6016016016016017,1.4647670525544274,2.391170069671451,202.2157793188396,179.11485166143328,163.80046053593017,200.51920606929124,182.9568213541293,181.27938008532823
1.6349683016349683,1.7819365353452974,2.391170069671451,203.04960689345145,179.99638813541037,163.58491009683314,199.85076222918912,183.0734256679397,181.68404752107065
1.6683350016683351,1.7819365353452974,2.391170069671451,204.13155148675835,180.9116723810587,163.38115958527112,199.143611333266,183.16531317841648,182.2247925432041
1.7017017017017018,1.7819365353452974,2.391170069671451,204.93617922640064,181.7570049266424,163.20260503700848,198.3630217744598,183.20464229629007,182.90554404538565
1.7350684017350684,1.7819365353452974,2.391170069671451,205.69336626259263,182.67393776299843,163.0694322214373,197.68294673494808,183.2041149319529,183.3842894345992
1.7684351017684352,1.7819365353452974,2.391170069671451,207.58240419323883,183.2715688817576,162.99138354932023,197.0624664930345,183.14300432099952,183.81325328570404
1.8018018018018016,1.7819365353452974,2.391170069671451,209.5468226287852,183.9159875053129,162.99104188564212,196.49974476115247,183.01930563104528,184.1511084754424
1.8351685018351689,1.7819365353452974,2.391170069671451,211.3811893903298,184.63648211951983,163.0273836548576,195.98692405044903,182.8390966109344,184.4279027235661
1.8685352018685355,1.7819365353452974,2.391170069671451,213.14505460562128,185.6269599453188,163.09426751223077,195.50044278865155,182.6448625348704,184.63631594521107
1.901901901901902,1.7819365353452974,2.391170069671451,215.708612343119,191.8876085252816,163.15409765413943,195.08476321254383,182.42099594157528,184.7438654270885
1.9352686019352687,1.7819365353452974,2.391170069671451,217.85533472350747,197.3252630071765,163.21500138268522,194.6881244686809,182.1996518342277,184.8000725035453
1.968635301968636,1.7819365353452974,2.391170069671451,219.50633658582888,197.9860841732157,163.3711154724592,194.3669417201268,181.94818784518057,184.77743563296727
2.002002002002002,1.7819365353452974,2.391170069671451,220.74142803736672,195.18419803618235,163.61292277305927,194.10161942467323,181.69163992835016,184.7146527521588
2.035368702035369,2.24309896789964,2.391170069671451,221.5117360134097,192.24815873061544,163.85214341042098,193.92916903216928,181.4552932054073,184.5972632783032
2.0687354020687354,2.24309896789964,2.391170069671451,221.7421535921934,189.9229652385501,164.0648380726368,193.6737876264813,181.2384203058785,184.5640993225696
2.1021021021021022,2.24309896789964,2.391170069671451,221.5708177339402,188.46198893012405,164.2891666343076,193.40926936659136,181.0209330067297,184.55316450278488
2.135468802135469,2.24309896789964,2.391170069671451,221.39846344885635,187.64595560029332,164.53645824866794,193.1546300094436,180.81538122862256,184.5162303724248
2.1688355021688355,2.24309896789964,2.391170069671451,221.032714689556,192.40500623677792,164.80485890389835,192.914658760632,180.6183098481617,184.45470338891224
2.2022022022022023,2.24309896789964,2.391170069671451,220.098980515973,195.97532565440807,165.04888137880369,192.6318230187221,180.4486253726899,184.3913958274288
2.235568902235569,2.24309896789964,2.391170069671451,220.24468030507123,195.42845587083104,165.30683400775771,192.3393975191017,180.279247930538,184.3302453438284
2.2689356022689355,2.24309896789964,2.391170069671451,219.9347061760208,194.19621802423484,165.60326670439125,192.0672013821573,180.10150139633703,184.233692851806
2.3023023023023024,2.24309896789964,2.391170069671451,219.1092371781832,192.40253732574809,165.9294671233905,191.79040253088763,179.9472424253414,184.10222530973965
2.335669002335669,2.24309896789964,2.391170069671451,217.7281473946312,190.21804468404315,166.28844467606413,191.5270590999007,179.79740507058733,183.9388179916454
2.369035702369036,2.24309896789964,2.3939917059962004,215.59911295206183,191.4803871444389,166.68984281272878,191.29945517791057,179.63614844555545,183.7313666573804
2.4024024024024024,2.24309896789964,2.4104892683525225,213.44012369983943,191.78432932039124,167.07336306738725,191.00314387457595,179.49227937267975,183.54848662850856
2.4357691024357693,2.24309896789964,2.442221708922486,211.18848718431948,186.5453971144556,167.44341075728798,190.6692862473974,179.38054470497156,183.3749299190944
2.469135802469136,2.24309896789964,2.490747979888158,208.1252146661264,180.7921842243489,167.8035757563846,190.324651647198,179.2688120299132,183.21086115954
2.5025025025025025,2.24309896789964,2.490747979888158,204.60565759977555,176.02035788446963,168.14549512850613,189.9754933854432,179.1493885374378,183.0541136144452
2.5358692025358693,2.7965226540570574,2.557627033431607,200.7457665843828,171.53398725907456,168.48232441583676,189.6130900549876,179.02315740068096,182.89670171275563
2.569235902569236,2.7965226540570574,2.557627033431607,196.9155380316023,166.47609108129137,168.79605826895016,189.24609211976912,178.9022874587517,182.74323920477013
2.6026026026026026,2.7965226540570574,2.6444178217348995,193.46592898078129,160.39133349436278,169.09880749478626,188.89269663717948,178.77816181507313,182.5752313500965
2.6359693026359694,2.7965226540570574,2.6444178217348995,190.10974706201617,155.56106720047362,169.38623503175495,188.59111987679697,178.64624540130865,182.39826344428053
2.669336002669336,2.7965226540570574,2.6444178217348995,186.53220416879785,150.4509314764172,169.64788003206195,188.3028637948796,178.50841047833634,182.2256803521568
2.702702702702702,2.7965226540570574,2.7526792969801046,182.9700427894007,141.2752804018634,169.8931538540093,188.02778785634064,178.3485176474473,182.06233331613888
2.736069402736069,2.7965226540570574,2.7526792969801046,179.7310893940327,132.5382480300388,170.1065551493222,187.7595973442029,178.17441679400986,181.91288779022136
2.7694361027694363,2.7965226540570574,2.7526792969801046,176.8500004871555,124.91796750233824,170.30024574374715,187.5025141240402,177.9679366648519,181.7765881965327
2.802802802802803,2.7965226540570574,2.7526792969801046,173.78352237631336,118.84729205559138,170.50711685421254,187.2493522070924,177.71211666738515,181.66174486503897
2.836169502836169,2.7965226540570574,2.8839704113492965,170.65274478935947,112.3012068145443,170.7140266609668,186.9994989223293,177.46791409715286,181.57659079213624
2.8695362028695364,2.7965226540570574,2.8839704113492965,167.83361280073913,106.50553760797176,170.9249494604901,186.7987500859396,177.18196663900903,181.4792000225156
2.902902902902903,2.7965226540570574,2.8839704113492965,166.16131012106538,101.73710832786846,171.14600706641735,186.6618340635523,176.83180130309785,181.36030585296984
2.9362696029362696,2.7965226540570574,2.8839704113492965,163.95566148165136,98.0369568222814,171.35169102006049,186.54096733169533,176.4553321876647,181.2459423398366
2.9696363029696364,2.7965226540570574,3.046578996593619,161.65031887885448,96.04723184633218,171.51603725320317,186.41730059061592,176.04805091800478,181.1533078524728
3.003003003003004,2.7965226540570574,3.046578996593619,159.62749529816782,95.02106642486312,171.65042285605145,186.30378539947435,175.63389949871308,181.07821086894205
3.0363697030363697,2.7965226540570574,3.046578996593619,158.18639282160035,94.89146529061756,171.71797250190207,186.21999438223529,175.23115651567895,180.99396541466663
3.0697364030697365,2.7965226540570574,3.046578996593619,155.86228156241012,89.49669802765153,171.77206341841668,186.17440360694263,174.85317941306891,180.91701908724252
3.103103103103104,2.7965226540570574,3.046578996593619,153.4224178900883,79.22301711936797,171.83808158471788,186.175047289165,174.4708407720501,180.8467355439873
3.1364698031364697,3.429861396497492,3.046578996593619,150.89978892834682,72.81880636543762,171.82414513065748,186.1971075322511,174.1260137294148,180.7818634547949
3.169836503169837,3.429861396497492,3.230445352783724,148.67274825161766,71.44981294799925,171.76842101119203,186.2914053796794,173.79626994694596,180.6960352609019
3.2032032032032034,3.429861396497492,3.230445352783724,146.72275897110768,72.61280265906976,171.7355223597984,186.3969006659434,173.44440053085663,180.57323844533852
3.2365699032365702,3.429861396497492,3.230445352783724,145.19547943025984,75.74403813518268,171.63468368328134,186.5560422406949,173.16531072313683,180.4384236980874
3.2699366032699366,3.429861396497492,3.230445352783724,143.94003222080102,80.18690236705662,171.4754870194046,186.7264570742096,172.9558542175298,180.2914495962572
3.3033033033033035,3.429861396497492,3.230445352783724,143.08282856444305,86.04517615051878,171.25433683699768,186.8404282350908,172.8030238038584,180.1743133062198
3.3366700033366703,3.429861396497492,3.230445352783724,142.49477630937548,86.03490536773162,170.99332395983166,186.944307326192,172.70549212322592,180.06141718876447
3.3700367033700367,3.429861396497492,3.459023665154866,142.15900606291964,82.68316122910676,170.66615990191005,186.9563961588549,172.6723682835929,179.99411689960633
3.4034034034034035,3.429861396497492,3.459023665154866,140.69704786952798,83.33166452556995,170.35546076290248,187.0176358616021,172.65858451961893,179.85931879965557
3.4367701034367704,3.429861396497492,3.459023665154866,139.1820034387405,85.61175922923812,170.07863768253847,187.15047086218905,172.6724669836473,179.66979466623692
3.4701368034701368,3.429861396497492,3.459023665154866,137.27799400501704,89.7164576235361,169.86867621939152,187.37752607987943,172.67272952298163,179.4168187310341
3.503503503503504,3.429861396497492,3.459023665154866,134.96074025931406,98.7402996370148,169.6651831646283,187.684590205528,172.69830939775494,179.11713003175922
3.5368702035368704,3.429861396497492,3.459023665154866,132.5088780056585,101.0792447215513,169.49805598200388,188.05522883443652,172.73232231382067,178.76128359379024
3.5702369035702373,3.429861396497492,3.459023665154866,130.42777825185223,100.22150438891686,169.57660027282043,188.4961641513009,172.56418477978906,178.35453423757016
3.603603603603604,3.429861396497492,3.730346286095548,128.22826550624595,102.98502587249826,169.73851192404334,188.98873317455343,172.3400318600628,177.91632299314972
3.6369703036369705,3.429861396497492,3.730346286095548,125.23653022208322,108.47931498533376,169.9194938598831,189.5779787910816,172.1143864921693,177.38781703559025
3.670337003670337,3.429861396497492,3.730346286095548,122.32509841577432,113.04772548231998,170.11464288439956,190.1841453105994,171.94517832202257,176.85320854425242
3.703703703703704,3.429861396497492,3.730346286095548,118.91122988039388,115.15393961282936,170.23858630783184,190.6755635786349,171.87503691153643,176.38266980510568
3.737070403737071,3.429861396497492,3.730346286095548,115.73793312269162,118.2647903068583,170.33070042497977,191.1255834094069,171.9057900138252,175.94823628120938
3.770437103770437,3.429861396497492,3.730346286095548,112.32119679233098,126.7093378785621,170.46790113522587,191.6036018986283,172.01997510841647,175.34413860393784
3.803803803803804,3.429861396497492,3.730346286095548,109.47370444954096,131.46169975612622,170.65676228257456,192.1304649200789,172.119827843523,174.66801460348782
3.8371705038371706,4.235084073556399,3.730346286095548,107.77329938814788,134.20144304505718,170.86776767712985,192.7071048026227,172.26553869914898,174.0208880640042
3.8705372038705375,4.235084073556399,3.730346286095548,106.87587970568065,138.1467572419428,171.15779186031685,193.3019501408509,172.39527336517213,173.45755635574324
3.903903903903904,4.235084073556399,4.047485365883012,107.257190811622,140.60072335390345,171.85002874265433,193.9299181847713,171.9311881460142,172.8530950155629
3.937270603937271,4.235084073556399,4.047485365883012,107.63993042189593,138.02065366029254,172.56024545060626,194.57919679811388,171.5101627480913,172.3363730690131
