Time,Left Shoulder Angle,Right Shoulder Angle,Left Elbow Angle,Right Elbow Angle,Left Hip Angle,Right Hip Angle,Left Knee Angle,Right Knee Angle
0.0,9.89451239308536,3.195705562012275,192.5113741190344,181.9782434480475,178.08170825952254,211.27953707774927,181.9515061278134,178.8088304703046
0.0333667000333667,9.82432340860669,3.830481960091874,186.4182092384478,173.45061263777362,177.66607075505678,211.4960932086668,182.42028628547,178.86933943573675
0.0667334000667334,9.77123907047487,4.296496988391507,181.6683476996193,165.9215568003281,177.32049014975345,211.6764121834973,182.83076996291416,178.8993213487272
0.1001001001001001,9.733594114227396,4.608863674209861,178.15141927351263,159.3475977065309,177.04103512698703,211.8219733726063,183.1858146705726,178.9007890888058
0.1334668001334668,9.709723275401762,4.782695044845626,175.75705373109147,153.68525712720202,176.82377437013216,211.9342561463592,183.48827791887177,178.87575553550244
0.1668335001668335,9.69796128953546,4.833104127597491,174.37488084331957,148.8910568331615,176.6647765625634,212.0147398751212,183.7410172182381,178.82623356834696
0.2002002002002002,9.696642892165984,4.775203949764144,173.89453038116065,144.92151859522932,176.56011038765533,212.064903929258,183.94689007909813,178.75423606686925
0.2335669002335669,9.70410281883083,4.6241075386442745,174.2056321155784,141.73316418422547,176.50584452878255,212.0862276791348,184.10875401187843,178.66177591059918
0.2669336002669336,9.71867580506749,4.394927921536571,175.19781581753656,139.28251537097,176.4980476693196,212.0801904951172,184.22946652700537,178.5508659790666
0.3003003003003003,9.73869658641346,4.102778125739721,176.76071125799882,137.52609392628287,176.53278849264103,212.0482717475704,184.3118851349055,178.42351915180137
0.333667000333667,9.762499898406231,3.762771178552414,178.78394820792894,136.4204216209841,176.60613568212148,211.99195080685988,184.35886734600533,178.2817483083334
0.3670337003670337,9.788420476583305,3.3900201072733385,181.15715643829057,135.92202022589368,176.7141579211355,211.9127070433511,184.3732706707313,178.1275663281925
0.4004004004004004,9.814793056482165,2.9996379392011834,183.76996572004748,135.98741151183162,176.85292389305764,211.81201982740944,184.35795261951,177.9629860909086
0.4337671004337671,9.83995237364031,2.606737701634639,186.5120058241634,136.57311724961795,177.01850228126247,211.69136852940028,184.31577070276776,177.7900204760115
0.4671338004671338,9.862233163595237,2.2264324218723908,189.272906521602,137.63565921007262,177.20696176912463,211.55223251968903,184.24958243093127,177.61068236303117
0.5005005005005005,9.879970161884431,1.873835127213129,191.942297583327,139.1315591640157,177.41437104001864,211.3960911686412,184.1622453144269,177.42698463149736
0.5338672005338673,9.8914981040454,1.564058844955543,194.4098087803021,141.01733888226713,177.6367987773191,211.224423846622,184.05661686368123,177.24094016094
0.5672339005672339,9.895151725615714,1.312216602398294,196.56506988349287,143.24952013564803,177.87031366440198,211.0387099239988,183.93555458912212,177.05456183089046
0.6006006006006006,9.934192883645975,1.1857247123539036,193.34766460699888,146.194996250764,178.04702557150873,210.83218270302808,183.84601841633253,176.91934016007284
0.6339673006339673,9.909853485695482,1.1857247123539036,189.8858669944649,148.2019068472208,178.25426795262382,210.61517764547625,183.74544205385664,176.81519723148406
0.6673340006673341,9.132877751919546,1.1857247123539036,191.6602673421652,146.85317170031345,178.47087080744055,210.3929643777197,183.62283021269727,176.695305854737
0.7007007007007008,8.56954346842805,1.1857247123539036,191.2734564249387,149.76201699891973,178.69730061358666,210.1350978720038,183.4672305463293,176.59218883536673
0.7340674007340674,7.607993022677704,1.1857247123539036,185.53125028513332,153.19628021833864,178.87079370293975,209.87247775347012,183.3077305928877,176.48971117031857
0.7674341007674341,7.058340442262075,1.1857247123539036,180.0655078547538,157.0665182854155,179.02729930160598,209.6338088563864,183.16167092684216,176.34849391080098
0.8008008008008008,6.631347800989182,1.1857247123539036,175.03080823422627,161.28263845036554,179.18731987514806,209.4410717331301,183.0272307379845,176.17777160355362
0.8341675008341676,6.51283022053485,1.1857247123539036,170.45479215591192,166.11850255481951,179.33454089302705,209.26731170682083,182.9217021718855,176.00446970649472
0.8675342008675342,6.8591531976384985,1.1857247123539036,165.83685193134087,169.27385041681336,179.4626983773858,209.0939156970648,182.8322074594413,175.82102749157173
0.9009009009009008,7.471873281384253,1.1857247123539036,161.69855820342443,173.37621406373225,179.58877804685298,208.90760653802872,182.74708520564403,175.65342410238418
0.9342676009342676,8.107978273168628,1.1857247123539036,158.09832305796203,178.67376134959056,179.67339390645893,208.6303444758516,182.68487030011332,175.5733391759699
0.9676343009676344,8.975134590931507,1.1857247123539036,155.01508594735665,184.5545728477641,179.7069864193005,208.331778611706,182.6384986634616,175.54410445239515
1.001001001001001,11.018699904348017,1.1857247123539036,156.394349866127,190.7674795034573,179.70321857912035,208.05462909762127,182.5911038232096,175.53576272465946
1.0343677010343677,13.185362540059636,1.1857247123539036,157.4538110920277,191.40927284499352,179.7036044207017,207.8254721289785,182.51412257269843,175.54507918382535
1.0677344010677343,15.035230781090153,1.1857247123539036,151.05752714671394,191.0969903548817,179.68825840152778,207.6396327661893,182.4348849202192,175.54764959136406
1.1011011011011012,16.815446250150533,1.1857247123539036,146.1669297877182,189.530022706498,179.72272536872018,207.49061323140663,182.3294390151128,175.6223480224521
1.1344678011344678,18.58471432887653,1.1857247123539036,142.70129747624912,186.184172128334,179.80476100494744,207.38605575946443,182.19907453749045,175.79564223279235
1.1678345011678346,20.323613113997386,1.1857247123539036,140.40665126210035,185.5034118565025,179.89992710109206,207.32326517565133,182.0447746208073,175.95814834421088
1.2012012012012012,20.30355046149353,1.1857247123539036,140.5038100729649,185.92717621458863,179.85531620213698,207.31661974194023,181.86358455225405,176.13635838506914
1.234567901234568,20.61960322492432,1.2682745604978036,141.73288449824454,186.89745993837823,179.84756011037976,207.34944754727204,181.65076985771327,176.19091709588562
1.267934601267935,21.142146582058537,1.2682745604978036,143.59232517140669,189.0185316448361,179.89875757339698,207.4315047765936,181.432443995794,176.17704652903458
1.3013013013013013,21.91435196380109,1.2682745604978036,148.76735162011812,189.37892533853147,180.03095899391445,207.56142866649344,181.22649177146567,176.0870814957839
1.334668001334668,22.776157737932103,1.2682745604978036,153.06019111377825,190.86033328301923,180.14385195430754,207.7590426044981,181.008511853464,175.9352862200748
1.3680347013680347,24.138661388773784,1.2682745604978036,157.77586462913925,192.61333112441284,180.3515862371396,208.01164987513613,180.7474263233974,175.72901175779702
1.4014014014014016,25.598285098195355,1.5143819156609868,163.6338529600684,194.8414961605016,180.6129061479493,208.3049050162893,180.4710402307853,175.49207983815344
1.4347681014347682,27.48341026923025,1.5143819156609868,169.95478237357787,196.9499737354254,180.95555681708964,208.5749657588457,180.1790763489521,175.26219969755553
1.4681348014681348,29.838003267563607,1.5143819156609868,177.97946879026622,200.38802810639052,181.40915884080323,208.86652503477032,179.87527897230012,175.00559871994332
1.5015015015015016,32.392484992027406,1.5143819156609868,187.03016003205315,203.12996477724448,181.9497329589704,209.1012125012089,179.56434571214422,174.7707420372924
1.5348682015348682,35.52473725047161,1.5143819156609868,191.6016157221379,205.3970071884692,182.5029061201708,209.24098612758047,179.2859926511799,174.56102058219577
1.5682349015682349,39.12272833267936,1.5143819156609868,200.9778835186848,207.233046133378,183.0520218229648,209.33460042282152,179.0247353099147,174.37031650812048
1.6016016016016017,42.3818004205291,1.5143819156609868,209.6003743568501,208.08876764458657,183.59504394099008,209.4244701547518,178.75172476799793,174.16995254009987
1.6349683016349683,45.54446220413541,1.5143819156609868,210.8423167765829,208.1175430508732,184.1541365340056,209.5142450715697,178.4567513501039,173.96482785240343
1.6683350016683351,49.24175053575174,1.5143819156609868,209.37705112235005,207.70819374648283,184.7267549816152,209.6275550995769,178.12820478811724,173.7598118064023
1.7017017017017018,52.43618066538927,1.5143819156609868,211.3543901727928,207.04196708993308,185.27814200536687,209.75740511205228,177.78563400959266,173.5608774027975
1.7350684017350684,55.35896287337148,1.5143819156609868,205.5666219884924,205.95585255520425,185.8545088274269,209.9336879798714,177.38921362196248,173.38349403481376
1.7684351017684352,57.861657677349065,1.9822212704182247,203.5189194794881,204.30589189518133,186.38425323670947,210.06408823454123,176.9725841120338,173.2221957321955
1.8018018018018016,58.99088647903435,1.9822212704182247,202.0673524203999,202.49627541724328,186.8462692164116,210.183949920766,176.57920630113728,173.07074837301724
1.8351685018351689,60.290229891088735,1.9822212704182247,193.5482339278291,200.37829978801776,187.26826821948407,210.25721540598377,176.19620714957685,172.95050404627003
1.8685352018685355,62.013792720584206,1.9822212704182247,182.81927828229715,197.9574897169206,187.47662867382533,210.34896022195647,176.3670209100224,172.66029260117998
1.901901901901902,64.03775091375233,1.9822212704182247,175.71756942895,195.1424843979296,187.83649373627009,210.29950233152624,176.1453390760654,172.53177888272356
1.9352686019352687,64.86174105269026,1.9822212704182247,168.06482561843464,192.0770471720176,187.3190837037448,211.05595371497887,175.65678921340347,172.68569554343665
1.968635301968636,65.51709263658854,1.9822212704182247,159.78896666261403,188.78666933392392,187.05410078869,211.29691173452247,175.01146899459363,173.09078416215036
2.002002002002002,59.05287927532988,1.9822212704182247,150.32864442017902,185.16655487574164,186.9003639806669,211.50992057798825,174.4433673289191,173.11234653835177
2.035368702035369,54.89130995760165,1.9822212704182247,141.52386196332648,181.12853931186487,186.9316514613435,211.35039873567072,173.84966053327025,173.19073362285638
2.0687354020687354,53.24426114110368,1.9822212704182247,132.91711103756404,176.02163481510487,187.3843319664929,210.64051382509064,173.05423367398544,173.4888552934077
2.1021021021021022,53.56914017029474,1.9822212704182247,125.08195034415522,170.91898653391482,187.98057008556145,209.7802107059072,172.24558332612065,173.7460928250958
2.135468802135469,55.56406482473005,1.9822212704182247,118.04471688480174,166.38749637501306,188.6394343017601,208.82945525911887,171.49336322229234,173.9071440197699
2.1688355021688355,57.76089461619584,1.9822212704182247,106.42437830380402,162.06651565419227,189.32534671439083,207.79150770131832,170.81320647553673,173.97282167866763
2.2022022022022023,60.24775412427264,1.9822212704182247,94.2893497519099,157.72237059997678,190.03961004330355,206.5907532215569,170.2548650168116,174.02764516682242
2.235568902235569,63.5007172710421,1.9822212704182247,90.36373537101846,153.4213773436957,190.86246005915973,205.30639272065105,169.71154805074124,174.04841854654725
2.2689356022689355,67.48391744622423,1.9822212704182247,87.80048887667027,148.85753300190126,191.68325639793431,203.97895603034937,169.18809633850623,173.9960356225167
2.3023023023023024,71.95906863939337,1.9822212704182247,86.43452641432754,144.81917602516558,192.53051134057333,202.6105634124968,168.68413980697173,173.8882444298416
2.335669002335669,76.7550679917815,2.667064551925301,86.7867812853747,141.66875110976125,193.42582660340813,201.2221714485452,168.17540232003202,173.74462799965173
2.369035702369036,84.07775066998607,2.667064551925301,86.8864376835315,139.53857959616963,194.52887512498376,199.80220074902385,167.6905391841761,173.54882506102328
2.4024024024024024,98.42880948300692,2.667064551925301,88.43327977372896,137.52007872311682,195.72833764804795,198.3923079931707,167.25588947860828,173.268916738898
2.4357691024357693,105.5354064350458,2.667064551925301,90.00041293410574,135.05734339155327,196.93714104415085,196.99801193183208,166.86212705629626,172.94764291488565
2.469135802469136,120.81916564798024,2.667064551925301,93.36977644996308,131.3791268715258,198.0154436368017,195.7102044713301,166.60733624338664,172.53931475389982
2.5025025025025025,136.15290474350405,2.667064551925301,98.16523227356043,128.73660952159872,199.1803683798158,194.43982676138447,166.40994028747872,172.1102529791493
2.5358692025358693,141.10724911615804,2.667064551925301,102.13524461432948,127.24869936925536,200.3857760548729,193.15430086015544,166.22918920572027,171.70608094227862
2.569235902569236,153.20450012858305,2.667064551925301,106.740603315951,126.51724003681328,201.6390545911476,191.88912569882785,166.06747242898817,171.31969499457227
2.6026026026026026,164.37453489747963,2.667064551925301,111.58642795976128,126.95948625852624,203.88155846012447,189.787523946984,165.46930822550596,171.14775411053836
2.6359693026359694,174.30974572366324,2.667064551925301,115.67378318601918,126.97624408787344,205.6286616641208,187.9501889985957,165.09625951599128,170.96599422323297
2.669336002669336,183.11759451176093,2.667064551925301,120.17872612619718,131.94386125273027,206.93045200592456,186.4467377558487,164.90671500524994,170.72684466200556
2.702702702702702,190.30298957352653,2.667064551925301,121.14719184879876,134.91866409619507,207.87645450757492,185.3117846852747,164.8669182446924,170.4521150334474
2.736069402736069,195.78595969058307,2.667064551925301,121.0861163407238,131.65278045357633,207.3540958082536,185.49175273681425,165.5556559125835,169.70235824308077
2.7694361027694363,194.62812140780824,2.667064551925301,120.39986102604742,129.25876243495117,206.8313100663995,185.67314200953035,166.2482422406265,169.12600299312527
2.802802802802803,200.68881318880207,2.667064551925301,121.99721281240916,133.3721454948766,207.41986785169888,184.924446673464,166.1467710998113,169.0802223106475
2.836169502836169,204.23345053115577,2.667064551925301,123.33378232371702,137.63492706621008,207.77874878816905,184.4574727125584,166.11003386644288,169.1020616751661
2.8695362028695364,205.64893847668608,2.667064551925301,123.29655188097242,140.97793885438028,207.87433949046465,184.3464437551968,166.1341186252629,169.11939842470065
2.902902902902903,204.9933836167378,2.667064551925301,123.63783716473354,143.02636821202194,207.5533966409752,184.54714650093328,166.34954407657256,169.13529344962078
2.9362696029362696,200.2959792365677,2.667064551925301,122.7269041510884,141.80469762575362,205.92497937375828,185.8525580921616,167.32702370044086,168.61111792825744
2.9696363029696364,188.51065010219463,2.667064551925301,120.1673864810396,139.46527070941613,204.20524132137248,187.24101815531824,168.2652623932506,168.27508714118352
3.003003003003004,185.6622543402773,2.667064551925301,118.81071319498844,135.8101416322372,202.49724194634723,188.5367280927244,170.11845770113095,166.88477855414092
3.0363697030363697,179.2852730038597,2.667064551925301,117.30368080343833,132.63442921017543,201.2578804007207,189.8238184860494,170.2050087732366,166.3435163061211
3.0697364030697365,169.55961144362894,3.455801495408066,112.9980680656156,131.0849544284568,200.2824538153951,191.1455943681452,169.6588727949339,166.56430817341513
3.103103103103104,157.43448675077772,3.455801495408066,108.2959637543655,124.23173010194093,200.0626323262114,191.59441553470776,169.2144480323994,166.96656306801867
3.1364698031364697,144.7054213190718,3.455801495408066,105.85995681884816,119.63039843104347,199.72879724513533,191.69852235280823,168.56149458549336,168.66598440131702
3.169836503169837,138.80388082317324,3.455801495408066,104.25388743974672,116.06495644409088,199.36889270568145,191.6355873534931,167.96450471820222,170.78084272969127
3.2032032032032034,132.38596673480097,3.455801495408066,101.96942063338396,117.15451315564152,198.9847349428481,191.75818926113047,167.5062970085949,172.7845566431546
3.2365699032365702,125.00516174218794,3.455801495408066,100.15933224646912,119.17847116536736,198.19377696756888,192.2796432806186,167.42495459030357,174.51111234248836
3.2699366032699366,117.35202531276948,3.455801495408066,98.2289729716274,116.2680568502808,197.2148108918177,192.98198247715533,167.59187856975709,175.93195801840537
3.3033033033033035,109.35814340242264,3.455801495408066,88.82631116220468,114.06152995691048,196.1787540742593,193.773388756394,167.91984720612038,177.21850614846454
3.3366700033366703,101.0318410936767,3.455801495408066,89.78725664910694,111.99382875659435,195.11522705165493,194.5833976052152,168.42304304398553,178.38010502718203
3.3700367033700367,93.2006361728752,3.455801495408066,90.58052655664078,119.38225083516332,194.03653361921647,195.50178871621657,168.94592893628842,179.41063549957707
3.4034034034034035,86.28678388555306,3.455801495408066,92.30913516225068,125.8852025321666,192.8786045946225,196.46213302363208,169.5636970128216,180.32550095463208
3.4367701034367704,80.10138520285923,3.455801495408066,93.75553196828892,130.8174530042813,191.7809820085848,197.4653544139994,170.2798080570691,181.1748622087728
3.4701368034701368,74.7857974518934,3.455801495408066,95.76890834679293,134.37767189407015,190.69523424887765,198.4772283268822,171.0841699047478,181.9038239410362
3.503503503503504,69.99479144145775,3.455801495408066,97.8583953973889,136.0062219571973,189.6217602045209,199.47975280610703,171.96439195579526,182.5027919515888
3.5368702035368704,68.21030800694695,3.455801495408066,98.09536354380263,136.33930044022355,188.6367235799688,200.4105566771657,172.9010084999851,182.95457134774293
3.5702369035702373,60.133353011965184,3.455801495408066,96.73016955740523,135.84976834142915,187.71033756414656,201.30239550441468,173.87484669146315,183.33444520644463
3.603603603603604,59.74053945669243,3.455801495408066,88.74425720311334,130.14724633958514,186.79645879691165,202.3106734886018,174.95062172231627,183.64353125231912
3.6369703036369705,51.32815450472559,3.455801495408066,81.61233609779973,127.2863942671411,186.13876338977389,203.2562337992464,175.99624412002078,183.9713806932236
3.670337003670337,40.60743582944898,3.455801495408066,79.91892186852324,126.33024690627973,185.7886744959969,204.12862036123528,176.91140109574812,184.1115449456485
3.703703703703704,40.12710760750731,3.455801495408066,79.87859082989759,126.8297615234864,185.73082500947345,205.0292114502906,177.71988418083842,184.1912612526912
3.737070403737071,34.52107525429687,3.455801495408066,74.9959942067681,128.64581011744332,185.57811927337207,205.34625612669225,178.93159275974156,184.71684606336007
3.770437103770437,28.714142037506427,3.455801495408066,71.39482185128054,133.33858960814047,184.571834137916,206.7223555908343,180.33246992889252,184.7232697911961
3.803803803803804,22.33192992147055,3.455801495408066,74.53007170943695,133.81522978548006,182.6962306121939,209.1665580573133,180.689918265608,184.99284191924505
3.8371705038371706,16.512953979879402,3.455801495408066,78.52001277702489,129.05970101307892,181.11640831255252,211.5002926659771,181.18197274875627,184.99254876451303
3.8705372038705375,11.550525546494134,4.232273344078259,76.39713072443217,125.60780149114468,180.1584467120857,213.2561461822508,182.7093855918328,183.174666415724
3.903903903903904,7.366410733611136,4.232273344078259,75.74970862698324,129.17719087732667,181.06227197085224,213.62673687312892,183.3283718444572,182.0156547134063
3.937270603937271,10.937896878599588,4.232273344078259,77.09594624801305,134.91324536767695,182.5817602542524,213.4846509192928,183.2510541039872,181.43778357355976
