Time,Left Shoulder Angle,Right Shoulder Angle,Left Elbow Angle,Right Elbow Angle,Left Hip Angle,Right Hip Angle,Left Knee Angle,Right Knee Angle
0.0,-10.692880556831453,29.20068835354126,154.51044602785052,159.60200591808965,140.40846313730796,134.88813508080463,202.4123532043233,204.78385630673347
0.0333667000333667,5.976599515443979,30.522454006648776,154.51776197578135,163.78654549199752,138.8483988507197,133.57374350090657,202.40789241399327,206.07711880921664
0.0667334000667334,19.41707957090357,31.487798118608666,154.81655766189866,167.15714899793736,137.54463158189515,132.4808296248164,202.3928737194828,207.21076765289973
0.1001001001001001,29.88349110120589,32.128383900590805,155.3752776878795,169.7497959238856,136.48443694503456,131.59885272799443,202.3679086552125,208.19128094442885
0.1334668001334668,37.63076559800953,32.47587456376509,156.16236665540092,171.60046575781865,135.65509055433813,130.91727208590095,202.3336087556036,209.02513679045012
0.1668335001668335,42.91383455297304,32.5619333193014,157.14626916613994,172.7451379877128,135.04386802400603,130.42554697399618,202.2905855550769,209.71881329760987
0.2002002002002002,45.98762945775504,32.41822337836961,158.2954298217736,173.21979210154453,134.63804496823852,130.11313666774038,202.2394505880536,210.27878857255405
0.2335669002335669,47.10708180401405,32.07640795213962,159.57829322397893,173.06040758729017,134.42489700123576,129.9695004425939,202.1808153889544,210.7115407219289
0.2669336002669336,46.52712308340864,31.568150251781304,160.963303974433,172.3029639329261,134.39169973719797,129.98409757401697,202.1152914922004,211.02354785238063
0.3003003003003003,44.50268478759743,30.92511348846456,162.4189066748128,170.98344062642877,134.52572879032533,130.14638733746986,202.04349043221265,211.2212880705553
0.333667000333667,41.28869840823896,30.17896087335925,163.9135459267954,169.13781715577448,134.81425977481808,130.4458290084129,201.966023743412,211.31123948309911
0.3670337003670337,37.14009543699183,29.361355617635283,165.4156663320578,166.80207300893966,135.24456830487642,130.87188186230628,201.88350296021932,211.29988019665825
0.4004004004004004,32.31180736551457,28.50396093246253,166.8937124922771,164.0121876739007,135.80392999470055,131.41400517461034,201.7965396170559,211.1936883178788
0.4337671004337671,27.058765685465804,27.63844002901088,168.3161290091303,160.80414063863395,136.47962045849064,132.06165822078532,201.70574524834248,210.99914195340693
0.4671338004671338,21.635901888504065,26.79645611845021,169.6513604842944,157.21391139111586,137.25891531044695,132.8043002762915,201.6117313885001,210.72271920988885
0.5005005005005005,16.298147466287926,26.00967241195041,170.8678515194465,153.27747941932273,138.12909016476965,133.6313906165892,201.51510957194964,210.3708981939707
0.5338672005338673,11.30043391047602,25.30975212068137,171.9340467162636,149.030824211231,139.07742063565894,134.5323885171386,201.4164913331122,209.9501570122986
0.5672339005672339,6.8976927127263385,24.72835845581309,172.8183906764241,144.50992525481837,140.0911823373161,135.49675325340118,201.3164882064104,209.4669737715205
0.6006006006006006,6.533181702442164,24.805596767997223,172.92305610755682,139.75784924600248,141.0294022249748,136.43270144175773,201.33604775567267,208.97510314950745
0.6339673006339673,8.693851825358488,25.1926221209183,172.4387603567641,134.78859042999537,142.04069311853362,137.43124174582078,201.2645838355457,208.40454900949152
0.6673340006673341,12.905160840908618,25.88973932521569,171.67222681957057,129.5731582354554,143.1366703453222,138.4946203732087,201.0625581468,207.7323303235516
0.7007007007007008,19.079436673634746,26.84487809976119,170.53911620346685,124.22775781730716,144.3504882826086,139.6845054489883,200.6930257417748,206.8209709263043
0.7340674007340674,26.901517523808693,28.0266589666432,169.51373847904983,118.80012695853324,145.57117070012413,141.03952504719786,200.27603832435443,205.6397956664121
0.7674341007674341,35.90825081541574,29.33325630330788,168.12179124020457,112.75995099705428,146.86836284462342,142.4293889500995,199.8578365934196,204.3447897449986
0.8008008008008008,54.34720571185227,31.47289646206685,166.6803486530834,108.71985115013618,148.16695458453572,143.9801740300233,199.29363735198703,202.97276420495064
0.8341675008341676,74.03945805212291,33.86018964335791,166.93956858819456,103.2355776275103,149.4396712623974,145.2545057848716,198.91618416016507,201.9624723465416
0.8675342008675342,90.7498175518428,36.86693042822369,163.0237736175424,95.70616462335744,150.5733813672568,146.32381204860795,198.75721339491443,201.321310113632
0.9009009009009008,106.00417643732555,39.50190266102817,160.32940469444716,89.16065956731427,151.5042098693656,147.19999852575003,198.9915248842673,201.0375185991588
0.9342676009342676,119.36140190001566,41.93189401605714,157.58196911915104,83.00985527501938,152.004385092246,147.75209996765466,199.9708557116455,201.12967299285043
0.9676343009676344,131.66259366301384,43.68992433460053,155.61377968509933,77.30920916230397,152.014392741382,148.02760480348607,201.4000586690453,201.65265241036167
1.001001001001001,142.93146884079815,45.08640000233255,155.02534941337123,72.66965702176827,151.77560027990887,148.21885668477367,202.9540472942161,202.47697050345312
1.0343677010343677,152.62484197192765,46.01193026916414,154.31885720101218,74.84248720694828,151.59183412859852,148.06455871828513,204.248651861264,203.274020827214
1.0677344010677343,160.5042495798669,46.74804550226896,156.12038706587893,77.31351386550861,151.4374195721517,147.98058315961126,205.1877995901753,204.2488345401221
1.1011011011011012,166.50435634606612,47.72331635240414,156.68493450482484,78.63480593382317,151.15781064960845,147.71351665029198,205.9111974101878,205.441261154406
1.1344678011344678,161.09815217709277,47.82123095164848,158.84363650530915,78.49884710243626,150.8199671718086,147.2487358150773,206.41399809347928,206.79905117672112
1.1678345011678346,158.1184723522894,46.54362475152056,156.43587939431103,77.29480195463823,150.4541038499339,146.80836305490578,206.68775090808649,208.13892547128887
1.2012012012012012,155.7205894868265,37.73556590811282,152.2798605883485,73.58421438884989,150.0620584437288,146.354563289064,206.81436113601063,209.3593686196604
1.234567901234568,154.06702233929386,31.10748665008314,148.1060624930072,71.74535274958977,149.66113284897656,145.89318520224035,206.72986052417065,210.3855509215757
1.267934601267935,152.97018275800917,26.769254161709743,144.3388416112938,71.75043088606202,149.25429179446652,145.42649345075242,206.4156596646216,211.16450211720587
1.3013013013013013,152.16241052938014,24.47414504308629,142.01749811409232,73.58368065897594,148.8341095228991,144.89122226864927,205.89464765387493,211.6576452282713
1.334668001334668,150.84349797515074,23.93033742023376,140.52267868928686,77.21108106943349,148.44024599842444,144.3751437882849,205.1246574612876,211.82191696515665
1.3680347013680347,148.87859842630985,24.920237661194296,140.32438246993888,79.90876856972224,148.11673764130336,143.85029962621397,204.0890986126136,211.58075004824715
1.4014014014014016,146.8174119248918,27.30223490582495,141.81819563045488,81.53781308711726,147.82658080565926,143.39515627583495,202.95753015212128,210.9766340647534
1.4347681014347682,144.3855716759841,31.040349403931955,136.20317067363254,83.97391757035025,147.63960208215195,143.05608429816664,201.66745646770835,209.98519539177568
1.4681348014681348,141.65766984672328,36.49963626724424,138.16674376960464,87.28553749655845,147.58444628810594,142.86683552369965,200.2879067489562,208.68693458182247
1.5015015015015016,138.8356453042198,43.22494390997594,136.8776446327292,92.96689281555264,147.63720639457517,142.8183289321419,198.83305750873632,207.09902398265783
1.5348682015348682,136.29430992112646,51.43848494324872,135.5204861347392,100.31399706409428,147.89635448319856,142.85159862704464,197.23884218684407,205.2133996583858
1.5682349015682349,133.58126120204588,59.2827487948022,134.5537219575574,106.75886315890156,148.6340479139724,142.7323508808648,196.1196735561553,202.4950089724345
1.6016016016016017,129.9304007411477,76.28039804038895,132.7005455800878,109.45133525410654,149.1141412295337,142.8879793696446,194.1453822006064,200.49682363065287
1.6349683016349683,134.433116733294,94.57707169254437,130.82035951283422,119.28789716511936,149.85991617519778,143.18440781693096,192.7164146933942,197.16280200151172
1.6683350016683351,147.05073192472636,111.62294520293172,129.60137468137177,125.39904818226113,150.27729311923468,143.63392251984064,190.2975917996293,194.8046227698949
1.7017017017017018,159.17297724506213,127.81140471551193,128.2797145967039,130.81481967241848,150.52869261999805,144.31085490924792,188.01971773353503,192.09481844867355
1.7350684017350684,171.13931297893316,142.04643927438423,125.42552355570596,134.50168200396502,150.954988100026,145.10875800905202,185.78095033006275,189.1184175008497
1.7684351017684352,182.8406681438717,154.5769545901692,121.58672603618668,136.59774946777523,151.5458011254746,146.04003726243354,183.54904948713613,185.87757169212355
1.8018018018018016,205.02142004854275,174.31619622868507,119.55160494618616,140.62770244189417,152.22104637131216,147.2006667159543,181.57476741969955,182.1268131766313
1.8351685018351689,226.1900301486127,192.67265071152207,117.14559609561088,143.95278716640314,152.88617324358543,148.3838167441931,179.7280676683276,178.4490167791014
1.8685352018685355,245.61796118260625,209.1247317311621,114.2962804065872,146.45378694644907,153.53039278804792,149.56796508396857,178.03565849150235,174.9015224745042
1.901901901901902,262.5766758890496,223.1508529800878,110.93123880124286,148.01148508718012,154.14291605045435,150.73158947210052,176.5242481477073,171.54167023781156
1.9352686019352687,276.33763700647006,234.22942815078216,106.97805220170554,148.50666489374424,154.71295407655947,151.85316764540875,175.22054489542592,168.42680004399548
1.968635301968636,286.1723072733943,241.83887093572795,102.364301530103,147.82010967128963,155.22971791211802,152.9111773407131,174.15125699314166,165.6142518680278
2.002002002002002,291.352149428349,245.45759502740785,97.01756770856296,145.83260272496435,155.6824186028847,153.8840962948333,173.34309269933806,163.16136568488045
2.035368702035369,291.1486262098615,244.56401411830524,90.86543165921316,142.4249273599164,156.06026719461428,154.7504022445892,172.8227602724986,161.1254814695253
2.0687354020687354,284.83320035645806,238.6365419009028,83.83547430418135,137.4778668812939,156.35247473306143,155.48857292680057,172.61696797110676,159.56393919693437
2.1021021021021022,271.67733460666585,227.15359206768312,75.8552765655952,130.87220459424498,156.54825226398094,156.07708607828724,172.75242405364608,158.5340788420795
2.135468802135469,250.9524916990113,209.59357831112908,66.85241936558249,122.48872380391764,156.63681083312747,156.49441943586902,173.25583677859998,158.0932403799326
2.1688355021688355,221.9301343720221,185.43491432372383,56.75448362627096,112.2082078154601,156.60736148625583,156.7190507363657,174.153914404452,158.2987637854656
2.2022022022022023,183.88172536422425,154.15601379795007,45.48905026978828,99.91143993402024,156.4491152691207,156.72945771659704,175.47336518968564,159.20798903365045
2.235568902235569,136.0787274141454,115.2352904262904,32.98370021826227,85.47920346474625,156.15128322747682,156.5041181133829,177.24089739278438,160.87825609945898
2.2689356022689355,77.79260326031113,68.15115790122813,19.166014393820547,68.79228171278618,155.70307640707892,156.02150966354304,179.4832192722317,163.36690495786317
2.3023023023023024,8.294815641249102,12.382029915245894,3.963573718590908,49.73145798328813,155.09370585368174,155.26011010389732,182.2270390865112,166.73127558383487
2.335669002335669,-73.14317270451374,-52.59367983917373,-12.696040885298912,28.17751558140016,154.31238261304,154.1983971712655,185.4990650941061,171.02870795234605
