Time,Left Shoulder Angle,Right Shoulder Angle,Left Elbow Angle,Right Elbow Angle,Left Hip Angle,Right Hip Angle,Left Knee Angle,Right Knee Angle
0.0,31.97162980299262,37.56188281089237,167.89241857865545,175.01725942917673,142.00146253689886,145.54104134376118,208.68080282270748,199.47457203424264
0.0333667000333667,31.11386405938441,37.94741688268917,165.72303832715812,175.19270637036735,141.98781098630525,145.09140293549643,208.34932143939983,199.71425415555777
0.0667334000667334,30.37578155446165,38.25973362035923,163.8227016242043,175.3279463968861,141.98445925103243,144.7114861288245,208.0348728481825,199.94261441604613
0.1001001001001001,29.75130550990677,38.50256894591892,162.1783797437636,175.42475800400518,141.99013399903072,144.39749846073923,207.73793154480515,200.1594570396645
0.1334668001334668,29.23435914740221,38.67965878138461,160.77704395980558,175.48491968699688,142.00356189825038,144.14564746823453,207.4589720250175,200.36458625036929
0.1668335001668335,28.818865688630403,38.7947390487727,159.6056655462999,175.51020994113344,142.02346961664176,143.95214068830424,207.1984687845692,200.5578062721172
0.2002002002002002,28.49874835527378,38.85154567009955,158.65121577721612,175.50240726168713,142.0485838221551,143.81318565794226,206.9568963192099,200.7389213288648
0.2335669002335669,28.267930369014785,38.85381456738153,157.90066592652386,175.46329014393018,142.07763118274073,143.72498991414244,206.73472912468927,200.9077356445688
0.2669336002669336,28.120334951535845,38.80528166263503,157.34098726819272,175.39463708313485,142.10933836634894,143.68376099389866,206.5324416967572,201.0640534431856
0.3003003003003003,28.0498853245194,38.70968287787641,156.95915107619228,175.29822657457342,142.14243204093,143.6857064342048,206.3505085311632,201.207678948672
0.333667000333667,28.05050470964788,38.57075413512207,156.74212862449218,175.1758371135181,142.1756388744342,143.72703377205474,206.1894041236569,201.33841638498447
0.3670337003670337,28.11611632860373,38.39223135638836,156.67689118706198,175.0292471952412,142.20768553481187,143.80395054444233,206.0496029699881,201.45606997607973
0.4004004004004004,28.240643403069384,38.17785046369167,156.75041003787132,174.8602353150149,142.2372986900133,143.91266428836147,205.93157956590645,201.5604439459144
0.4337671004337671,28.41800915472727,37.93134737904837,156.94965645088976,174.67057996811153,142.26320500798877,144.04938254080602,205.8358084071616,201.6513425184449
0.4671338004671338,28.642136805259828,37.65645802447485,157.26160170008694,174.4620596498033,142.28413115668857,144.21031283876988,205.7627639895033,201.72856991762805
0.5005005005005005,28.90694957634949,37.35691832198746,157.67321705943243,174.2364528553625,142.29880380406297,144.39166271924688,205.7129208086812,201.79193036742035
0.5338672005338673,29.206370689678696,37.0364641936026,158.17147380289586,173.99553808006132,142.30594961806233,144.58963971923092,205.68675336044487,201.8412280917784
0.5672339005672339,29.53432336693011,36.69883156133695,158.7433432044482,173.7410938191735,142.3042952666382,144.80045137571707,205.68473614054588,201.8762673146606
0.6006006006006006,29.86302896556571,36.33279349409443,159.2629888140682,173.47744334051347,142.20091262834498,145.0343472380013,205.70189414681465,201.91118114167
0.6339673006339673,30.26952132665107,35.91077104438032,159.63474511534818,173.29485451549496,142.02499825040948,145.27203901679334,205.87084896050368,201.9329552707289
0.6673340006673341,30.66755540624977,35.49701966954743,160.0943521739974,173.08644494282626,141.86855828540126,145.48797422490236,206.03413451594287,201.94540908569945
0.7007007007007008,30.89804642605765,35.10170333207845,160.29683982200933,172.75109151742694,141.75522414231094,145.6141279131712,206.23329917690768,201.9482933417769
0.7340674007340674,31.06236162304258,34.732199557039024,160.56390875860993,172.37934988116604,141.68363426591634,145.7302742071615,206.4409706127776,201.92769280949048
0.7674341007674341,31.325853660357684,34.4009135598637,161.20866698140824,171.99120112934983,141.64714075122117,145.81455939785653,206.6366018544652,201.85911624792143
0.8008008008008008,31.60923711492647,34.09097895673256,161.9828948744419,171.57850464267153,141.61791847725348,145.9020252579838,206.8410075129108,201.754192805204
0.8341675008341676,31.88606426761657,33.87880432115583,162.86236735805187,171.2241447278004,141.5840605678625,145.94441425109332,207.048659322659,201.62190553602608
0.8675342008675342,32.15779237011694,33.69231744528746,163.8046121394963,170.87023277761898,141.544517579962,146.0020923684848,207.25604512404897,201.45959875204355
0.9009009009009008,32.45108502243253,33.51871092478856,164.75221592928668,170.5556845705727,141.5563357525221,146.08339944577526,207.4144643833112,201.2803055994752
0.9342676009342676,32.727638282889444,33.362337353690975,165.70589663333263,170.23923767135545,141.5651493912501,146.18557009656337,207.5726020643096,201.0838912319761
0.9676343009676344,32.99231198180016,33.29570263016993,166.5647174311718,170.0067598191052,141.59240076966103,146.30252685996086,207.72969355570743,200.8713455602659
1.001001001001001,33.23079863315266,33.22622061445269,167.37445255107554,169.74537713651458,141.59595256108062,146.4366405016536,207.9061733966775,200.6414892729449
1.0343677010343677,33.28060754709684,33.19256235856193,168.06303481948166,169.6382943882202,141.60910160612065,146.58112749631707,208.07728505070463,200.3906590313157
1.0677344010677343,33.2590018154489,33.07954631850074,168.77411093730254,169.37685265771876,141.59678373287562,146.72992968984062,208.247876160196,200.13460514561228
1.1011011011011012,33.37195081018583,33.08495991905626,169.01527645421712,169.7808865865521,141.5335783005436,146.8633686961726,208.4144366427157,199.88099179176453
1.1344678011344678,33.462199100857845,33.04251691355332,169.1956797830797,169.85099379284804,141.4298816333205,146.98522919252432,208.57436680743064,199.63329042329403
1.1678345011678346,33.58121069684379,33.116360187090216,174.81681267353378,169.48293492561908,141.2622222296101,147.09118902449427,208.7462054086812,199.39883034240765
1.2012012012012012,33.62907594921602,33.042256116428526,179.09149042388873,168.74279122731284,141.09289177867328,147.23477886585007,208.91856448580097,199.158421203915
1.234567901234568,33.660870270822656,33.06682351738024,176.51498443692088,167.63910236604727,140.91401582703458,147.38720035210451,209.0852142077783,198.93307762099684
1.267934601267935,33.59113790082236,32.82332989032154,176.01329905231367,166.43666059012594,140.77069393396943,147.55908881517732,209.23136630945643,198.72275763894424
1.3013013013013013,33.488638652647936,32.36422295801681,174.65987575836394,164.80833148035478,140.63883862080533,147.74784268720097,209.35726252150124,198.51997306228435
1.334668001334668,33.064252406487505,31.643104452129062,173.62615329448016,162.79241888710845,140.52537815011928,147.9468371719019,209.47322868488487,198.3374924590697
1.3680347013680347,31.73860555487138,30.55652257215243,174.16014372778858,159.1595904397413,140.51911700927303,148.33387117489406,209.382613622256,198.2304236659182
1.4014014014014016,30.50268180389708,28.935111323501097,174.84663522202914,154.75724226446107,140.5425398904748,148.74030899457696,209.2696517895356,198.1266250212312
1.4347681014347682,29.57752087059436,27.06067090485202,176.42236703648243,153.62222732282294,140.4567815333916,148.90694205779332,209.24314106435915,197.99999229874047
1.4681348014681348,28.66676273978433,25.284710412332235,177.8568106709377,153.560014833084,140.3244855662025,149.02239571399994,209.2776398951953,197.85499542413424
1.5015015015015016,27.172927240781544,23.958678844713283,178.13951282990934,153.91614115726085,140.29676732966252,149.29353672618308,209.22422787833847,197.74758009840568
1.5348682015348682,25.754978387350587,22.88905741946006,177.82969711323432,153.9266926989085,140.28573934935326,149.6160901171103,209.18262632703448,197.65393375846853
1.5682349015682349,24.45599120422626,22.051813957669097,176.8012594068329,155.66438000611052,140.32051848799134,149.91558930097275,209.22276993592675,197.5628129160056
1.6016016016016017,23.3569184533057,20.995954520395227,175.4824649626995,156.89178156870858,140.36529205604882,150.234405342155,209.31005378397384,197.4515832119682
1.6349683016349683,22.095759363380907,19.67646018526997,173.1174594676085,156.46769863978614,140.37769981719796,150.43975917928597,209.41734652729,197.32893213806685
1.6683350016683351,20.869214888632108,18.48930506767205,170.3291333583406,155.03446062650733,140.35124956736146,150.57991670522642,209.64215145139607,197.2084579710776
1.7017017017017018,20.16723818671426,17.44825732178538,167.87699913270384,154.01641779950225,140.2609076442284,150.6489119976617,209.9862869139877,197.0842883036545
1.7350684017350684,20.0382619129093,16.459831256486485,165.59301947029806,152.56269661583838,140.07213639748784,150.71315890456066,210.4752139470908,196.9570344248544
1.7684351017684352,20.24793299956548,15.2626507384041,163.49286979010424,149.21415031453157,139.84840738611152,150.7931890346038,211.06984793538064,196.8293055757378
1.8018018018018016,20.605405688874768,14.201845882589057,161.70070846458222,144.65070658996743,139.73919236816542,150.8510164175271,211.56932507819536,196.68860675671368
1.8351685018351689,20.47558127191912,13.608446052792088,159.83886762561366,139.6639221769919,139.66852503424687,150.86200230292746,212.0883532162315,196.57482980514587
1.8685352018685355,20.759400048338588,13.466457984618769,158.2735409683567,134.24386345430722,139.62141712897107,150.90490246331254,212.56450383430573,196.4364003666803
1.901901901901902,21.37955334392448,13.579804458718655,158.82971379543062,125.98590598780648,139.27389012629558,151.21165768493083,213.54233872012773,195.99574464889284
1.9352686019352687,22.382628943225072,14.035568320672708,158.78459754609597,118.43935943810985,139.0033890768963,151.5093756027555,214.41491706531016,195.57882877153355
1.968635301968636,23.462906695323984,13.510679308097275,156.0832733870054,112.0466149349246,138.9897242856719,151.44125078550073,214.629408731159,195.46228480034725
2.002002002002002,16.865765773879787,13.368481454065677,153.10531178461414,106.09112979235069,139.15339938085933,151.47134268611586,214.6291693937754,195.3902847570096
2.035368702035369,13.263882537614991,14.01873539689216,150.3921825745303,100.62989152855783,139.40368559731533,151.62667704953483,214.5857717707616,195.3540278203256
2.0687354020687354,12.243816562081474,15.363841839697391,148.16976019568014,95.45838779090768,139.63783794110088,151.83371816391917,214.58163111717104,195.315118750822
2.1021021021021022,14.025193961558584,17.416114669336174,146.73738179039367,91.04818853367082,139.7282164010782,152.13083519616055,214.5907169354577,195.3994438976252
2.135468802135469,17.896935843875248,19.861798457288938,145.18013829540962,85.7761528619487,139.95009052597769,152.40268458273616,214.6417527336031,195.3936565858513
2.1688355021688355,23.76804280777868,21.845589155942378,143.1026982582655,81.90615090516346,140.12961296970582,152.4840113144584,214.7578596540025,195.23307116798972
2.2022022022022023,31.60739744426862,24.15521210959524,141.18519464186986,78.60745431856914,140.32552734514428,152.57337100271903,214.8480180459636,195.10191643984948
2.235568902235569,41.23281412930372,26.8860483082526,140.21980980091467,75.65793294909196,140.5130541409923,152.7193311836168,214.9426321712552,195.0348645887728
2.2689356022689355,52.36793973246063,21.747269767837675,140.25580586798665,72.18204647474978,140.75413317652016,152.93229033212887,214.95783080609925,195.0032217384457
2.3023023023023024,64.69795461005957,19.14796726940188,142.14341815133602,68.16460015054099,141.03302359489177,153.11668343445345,214.905785178136,195.1482432884033
2.335669002335669,77.75430137835917,18.88150966455025,138.11842738367324,64.88483306376199,141.36580335579015,153.3027710507763,214.8244119714687,195.22879364185144
2.369035702369036,91.78001726104372,20.94231758670508,132.80174399537844,62.5839174263358,141.68341828551627,153.48247816737484,214.62687384919485,195.2768349739725
2.4024024024024024,106.46092679105168,24.85144210548697,133.1579101944518,61.44195756668866,142.0086282643185,153.66178619560088,214.2949796967192,195.358693980209
2.4357691024357693,121.11403023416594,38.46373536075564,131.6885544646126,62.05420334665842,142.63854757117903,153.70717709152083,213.8291636815432,195.3194844325492
2.469135802469136,135.54327553875314,51.27454907876579,131.76477737962443,63.65196496898562,143.3412415271725,153.84990091727238,213.2520278797,195.2659294671853
2.5025025025025025,149.97666609315053,63.261970829357416,132.64189888748456,66.06414798982755,144.05775496643756,154.10502237482908,212.5609503603681,195.21470036857264
2.5358692025358693,164.9442049294925,74.48439030703173,132.82605473794317,70.95722710460156,144.62007521584087,154.19159420406476,212.0442388632341,195.08198836335933
2.569235902569236,179.72307744235368,84.9599848627226,133.32492732725518,78.11458946805702,145.05830878224006,154.3469847203007,211.6119637541236,194.93998352270648
2.6026026026026026,193.6097661278971,95.00757958307032,132.8466931486034,84.01397146444359,145.58895518758632,154.6094437596625,211.1549936381092,194.7706665281859
2.6359693026359694,206.84195264981693,104.3680237866612,131.8556427863541,89.49721900600728,146.10438586902418,154.9482732965789,210.6981917339875,194.6108298883801
2.669336002669336,219.9386933824648,112.512772517688,131.4736604879466,94.64037988378084,146.51047832571808,155.17035176385633,210.41252143394863,194.39050955696004
2.702702702702702,232.4491427329616,119.42145321199872,131.1323137988714,100.0408598488389,146.842546171698,155.33836331044094,210.24632317724587,194.11933477280652
2.736069402736069,244.076650102484,125.01728918620626,131.47502802018406,103.02925944792878,147.04199010662558,155.50246216963083,210.1400323000925,193.8129135864308
2.7694361027694363,254.9736246249372,121.73261122194538,132.4184926703274,104.00446117883916,146.9293320296909,155.75851971130018,210.02353994806444,193.5703510787652
2.802802802802803,264.8836287566966,120.23934783386709,135.2278891232634,104.91546431895576,146.77750135088456,156.06107925710344,210.06473356308325,193.31630618690264
2.836169502836169,272.65385090923013,120.2088648260771,140.22854530933685,105.5750884999436,146.77860806404598,156.31724523350795,210.3383237713959,192.86310529161668
2.8695362028695364,278.9880927695445,121.10948646693087,144.20185729935943,105.18511942558156,146.78218392481537,156.75218429731848,210.5810406251516,192.28957266494632
2.902902902902903,283.7269050917161,123.02228086622394,147.69509536190338,103.67222268988672,146.7676530525234,157.30891710298866,210.9479396584253,191.579146712769
2.9362696029362696,286.5073800012968,126.11576900940936,150.87857029198832,102.61547792524276,146.73106611156783,157.87869130411735,211.3844197292883,190.7929925011074
2.9696363029696364,286.640654682554,129.85948995556373,154.94651775676897,102.64024860805144,146.8786671350319,158.44041128773904,211.38220002877472,190.1313629255852
3.003003003003004,285.3559460896276,134.1459807357894,159.3956790996033,101.96350303596252,146.8743655088313,158.87188889026976,211.4587303492104,189.5043744230605
3.0363697030363697,282.29485437597185,138.54699352448978,162.10828556903402,102.48090061018956,146.99080824345288,159.1117337603538,211.45021773028284,188.68265498043016
3.0697364030697365,277.3811622845495,151.04242065360145,162.0830349310426,105.66481494264602,147.39951183287792,159.01491477734612,210.8120563748571,188.2773810127774
3.103103103103104,269.97991737180814,152.97923955075345,161.5438447061698,108.01714762001625,148.01779729688965,159.078740407892,209.9085419919413,188.1327941733722
3.1364698031364697,260.6830502168609,156.6146050867016,162.72416736639804,109.32383357569108,148.30609090712912,159.368793077063,209.63945870781947,187.8806569329052
3.169836503169837,259.31416031899454,160.59513457470828,165.23669092116782,110.40442355690618,148.37503871825672,159.69747365445073,209.55550369273152,187.6464669635835
3.2032032032032034,257.8401102506563,173.0154424453049,167.40350970806713,111.60829640658882,148.48050657788255,159.8050294475321,209.6211797172584,187.42586600857788
3.2365699032365702,256.9318481562857,182.4774324913,168.36526606067093,112.37183780028612,148.46434350914706,159.638529218936,209.8401646869661,187.0679847560332
3.2699366032699366,255.9730064180277,189.01771332052024,168.04969409995755,112.12225650019964,148.4956615533335,159.3764761357888,210.22551553410523,186.62507111688151
3.3033033033033035,255.35562256083392,192.86575293478137,167.3647954170525,112.73050587140072,148.34070546759628,159.08654235488646,210.7007284984447,186.2237489460976
3.3366700033366703,255.0510486330054,194.86708145156751,167.18726021475626,112.54504970590516,148.22016519995606,158.86631096470907,211.20912076418853,186.16168039643264
3.3700367033700367,254.87887573641248,194.7541532246183,168.8860643203656,113.89623741356054,147.76095464122645,158.74463701689723,211.64203905866373,186.1397895613869
3.4034034034034035,254.9498810758261,191.6007243092177,169.21443198060282,115.17167867582552,147.56667152611,158.24350810489497,212.18593164648289,186.3665032511855
3.4367701034367704,263.46319379526045,196.63416383627924,167.84288596254652,115.27906772335264,147.16134630020622,157.3577021163452,213.10066314826943,186.69482208887223
3.4701368034701368,269.88587663078664,202.0919464391769,165.52398537813346,115.86197944755864,146.62624971530752,156.41006394069888,214.08624767738232,187.11177813358427
3.503503503503504,274.721490428729,207.74462700229344,161.5457675648746,116.301213404295,146.09160463692805,155.47059948102472,214.9658107923184,187.6508961749084
3.5368702035368704,277.32002205336926,213.6673839840519,157.66209119062927,115.7775862366816,145.60467263414762,154.45912661843764,215.8132993092384,188.48781374319967
3.5702369035702373,278.4509100874287,221.25377446870692,154.28212478472813,113.35407227403007,145.0887577795947,153.4194185973748,216.70103235865173,189.50023114591423
3.603603603603604,277.9077664796459,218.70109736552027,151.7666799068648,109.4386968655854,144.2549187216024,152.5226580130399,217.59474933048585,190.87560005779483
3.6369703036369705,275.5007785517594,213.4136093185228,151.12517871519194,104.1981125140676,143.2273979027904,151.54224464190364,218.51087394458648,192.5087483634712
3.670337003670337,271.0009422213023,205.5439929327229,150.80509862628028,98.57378899816526,142.08233270266817,150.508307245852,219.4290606099906,194.3767268115038
3.703703703703704,264.0111936751084,195.0191922160013,151.85464616636955,93.15117178848531,140.86792525834971,149.54828607759424,220.34363326839485,196.49095336620573
3.737070403737071,254.9977098176505,182.57527934304247,152.78124559795054,88.43555204988965,139.7825320717712,148.44400051851252,221.1656240982865,198.6925316749229
3.770437103770437,244.54031435212417,168.51231778298407,152.6855547642941,80.47554702527437,138.81805406647595,147.29538225425264,222.0126446291601,201.15746896646104
3.803803803803804,232.890897126587,152.39831797572677,153.05197176287928,73.3191776234923,138.05034061202446,146.2383360937117,222.7225960565101,203.6714086032327
3.8371705038371706,219.99551763534848,134.2194379053408,154.0609994396748,67.70511294532372,137.5610954018633,145.32691974934525,223.29709900636087,206.2629713872804
3.8705372038705375,206.09287585166263,114.02282178141417,155.77084252799622,62.646940268882815,137.1794618974374,144.54647996524844,223.70606435129136,208.8011073344618
3.903903903903904,191.81962264444127,91.86675951855946,158.84725120356546,58.20898769772204,136.75786093018672,143.79506862379267,224.09574628181232,211.3395879904924
3.937270603937271,176.43395331943393,78.32080454166724,162.2635358893024,55.2412114207527,136.74818901518898,143.04563161706486,224.3790739696514,213.6114072891285
