Time,Left Shoulder Angle,Right Shoulder Angle,Left Elbow Angle,Right Elbow Angle,Left Hip Angle,Right Hip Angle,Left Knee Angle,Right Knee Angle
0.0,81.60915176948419,69.99766125156188,158.9000066566026,152.6969729663106,137.2037948691057,137.93369020452448,221.3343619132975,216.8256867611772
0.0333667000333667,55.2395003384231,45.04233021187552,157.87069681187862,155.3181821754712,136.49169498231515,137.84455856611328,220.09606506459085,215.0481647942621
0.0667334000667334,34.19049262325463,25.87997834600164,157.1467976931892,156.52415529906784,135.90485192391236,137.90640632912073,219.2136005481709,213.4271858000259
0.1001001001001001,18.09818742600973,12.086177052138972,156.70496673372566,156.4344981720457,135.43685480425756,138.10604848941128,218.6554118072708,211.95690280451723
0.1334668001334668,6.598643548719366,3.236497728486242,156.52186136667927,155.16881662934986,135.081292733711,138.43030004284944,218.389942285124,210.63146883378468
0.1668335001668335,-0.6720802065854627,-1.0934882267578132,156.57413902524135,152.84671650592557,134.83175482263286,138.8659759852997,218.38563542496348,209.4450369138769
0.2002002002002002,-0.6720802065854627,-1.0934882267578132,156.83845714260318,149.5878036367179,134.68183018138336,139.39989131262655,218.61093467002271,208.3917600708424
0.2335669002335669,-0.6720802065854627,-1.0934882267578132,157.291473151956,145.51168385667202,134.6251079203227,140.0188610206945,219.03428346353485,207.46579133073
0.2669336002669336,-0.6720802065854627,-1.0934882267578132,157.9098444864912,140.73796300073312,134.65517714981112,140.70970010536797,219.62412524873315,206.66128371958808
0.3003003003003003,-0.6720802065854627,-1.0934882267578132,158.67022857940006,135.3862469038463,134.76562698020885,141.45922356251154,220.3489034688509,205.9723902634653
0.333667000333667,-4.07792503787384,-1.0934882267578132,159.5492828638738,129.57614140095677,134.95004652187606,142.2542463879896,221.17706156712129,205.39326398841047
0.3670337003670337,-3.9828321431147344,-1.0934882267578132,160.52366477310375,123.4272523270096,135.20202488517296,143.08158357766672,222.0770429867776,204.91805792047205
0.4004004004004004,-0.7507427202772021,-1.0934882267578132,161.57003174028125,117.05918551695,135.5151511804598,143.92805012740735,223.017291171053,204.54092508569863
0.4337671004337671,5.254402032669731,-1.0934882267578132,162.66504119859752,110.59154680572313,135.8830145180968,144.78046103307597,223.96624956318084,204.2560185101389
0.4671338004671338,13.668660917757023,-1.0934882267578132,163.7853505812439,104.14394202827413,136.29920400844415,145.62563129053706,224.8923616063944,204.0574912198414
0.5005005005005005,24.128092737015656,-1.3282094153944684,164.9076173214117,97.8359770195481,136.75730876186208,146.45037589565516,225.7640707439267,203.9394962408548
0.5338672005338673,36.2687562924766,2.107905560775009,166.00849885229215,91.78725761449024,137.25091788871077,147.2415098442947,226.54982041901124,203.8961865992277
0.5672339005672339,49.72671038617081,2.107905560775009,167.06465260707796,86.11738964804641,137.77362049935158,147.9858481323214,227.21805407488307,203.92171532101045
0.6006006006006006,64.13801382012927,2.107905560775009,170.30846745714877,86.14045768004473,138.04308679240205,148.3085325219318,227.3162087943246,204.44000428250428
0.6339673006339673,79.13872539638301,2.107905560775009,173.65284010612817,82.41532285312503,138.44151126990522,148.61844045790824,227.0192744291027,204.82659790153733
0.6673340006673341,94.36490391696287,2.107905560775009,174.40914491716998,82.79146962956686,138.92902421388203,148.82440144169,226.47794907684715,205.12962760670985
0.7007007007007008,109.45260818390096,2.107905560775009,176.99772083818073,83.7037506517792,139.44679725871836,148.91047199887993,225.7850610460456,205.49394890147576
0.7340674007340674,118.88189366766905,2.107905560775009,175.86087054502514,83.51946105925404,139.97948479171848,148.85849262005172,224.77631917733345,205.8278950345634
0.7674341007674341,124.78814819346825,2.107905560775009,173.20754201027933,83.26706904438602,140.48645655074753,148.74874026299722,223.5875979888636,206.12570616526145
0.8008008008008008,130.93045565837298,2.107905560775009,169.60330114294095,81.93880992070527,141.0320737423089,148.63611940127748,222.1236324315232,206.3878073458665
0.8341675008341676,135.46438058131048,2.107905560775009,164.5961939270868,81.4541291066823,141.61234313575224,148.58782306398749,220.3658978930335,206.4945484393712
0.8675342008675342,138.30944271330287,2.107905560775009,160.95421885606444,79.88200057699552,142.36590658217892,148.65879472183454,218.36208622193945,206.4390707611553
0.9009009009009008,139.7713526133846,2.107905560775009,157.13722398467195,81.0837078890218,143.1950557842688,148.68229766414166,216.12948572660028,206.15013200533213
0.9342676009342676,132.53477460051272,8.790428099949338,153.51472627013226,83.08672517597282,144.10195507164383,148.78250964987603,213.7424627411566,205.632526915856
0.9676343009676344,127.94876870301636,18.2949296003273,149.97550028465568,88.59436664882377,144.90125922905017,148.84835157217682,211.2716888703613,205.0298904158292
1.001001001001001,123.980012827964,30.196981460107565,151.24721624039992,90.53216409901276,145.70576099840204,148.95460445738283,208.75168305196223,204.20419358540428
1.0343677010343677,121.23090587685334,44.07215507748886,145.56813867944476,88.61273575900928,146.47379156032187,149.06631122218604,206.25033896863167,203.1843807651412
1.0677344010677343,119.64983625828104,59.496021850669976,138.12165688835094,93.89942721030258,147.28296498901994,149.21144530900435,203.76559057425445,201.91609301862093
1.1011011011011012,118.98516637158392,76.04415317784954,133.82368065246803,98.38147607799776,148.22753497299556,149.2895091553328,201.25639007589092,200.4673043833432
1.1344678011344678,118.22923549539225,93.29212045722647,129.47008034404132,101.2748736670176,149.11289101336936,149.3639178587528,198.75339988251767,198.8706044362186
1.1678345011678346,124.90479523003972,110.81549508699932,122.77819667275558,102.266002321346,150.00433245403042,149.52092756108485,196.36077701002367,197.17458662730724
1.2012012012012012,128.86097713896683,128.18984846536685,116.33955700950916,101.61695378784216,150.86225852200937,149.74125511664684,194.09202352731413,195.37277935323613
1.234567901234568,131.14734352369936,144.99075199052956,107.5847661458277,102.34936583870322,151.90847422244155,150.20946646857993,191.8037398472269,193.45616651479327
1.267934601267935,133.35651804769878,151.95556040094834,101.78388185574178,107.0750987303126,153.3800701600806,151.3317945881409,189.5192167168857,190.7102361196916
1.3013013013013013,132.08796022595564,156.5074973841321,96.03086529561158,111.55615682284451,154.84428498278666,152.48544666945483,187.37872401863865,187.97213741284324
1.334668001334668,128.6794605339423,160.78793452527353,90.3412761307861,115.62810914245767,156.27943399440238,153.64476656922855,185.4070812664707,185.29097333800505
1.3680347013680347,122.9968733028547,164.7824642158443,84.7306740266158,119.12652471531216,157.66383249877163,154.7840981441702,183.62910797436868,182.7158468389349
1.4014014014014016,132.28882806554128,168.0264116796911,79.2146186484511,121.8869725675678,158.97579579973842,155.87778525098793,182.0696236563193,180.29586085939107
1.4347681014347682,141.42829667359644,168.7276002777975,73.80866966164243,123.74502172538448,160.1936392011465,156.90017174638982,180.7534478263095,178.08011834313152
1.4681348014681348,150.01783088758938,167.07503287639463,68.52838673154022,124.53624121492216,161.2956780068399,157.825601487084,179.70539999832587,176.11772223391435
1.5015015015015016,157.65998246809073,163.86692022835433,63.389329523494894,124.09620006234086,162.2602275206624,158.62841832977864,178.9502996863553,174.45777547549767
1.5348682015348682,163.957303175672,152.10617098997614,58.40705770285692,122.26046729380028,163.065603046458,159.28296613118178,178.51296640438449,173.14938101163955
1.5682349015682349,168.51234477090452,141.09822703475558,53.59713093497666,118.86461193546064,163.6901198880705,159.76358874800158,178.41821966640026,172.24164178609809
1.6016016016016017,170.92765901435905,129.7773855411163,48.97510888520464,113.74420301348168,164.1120933493439,160.0446300369462,178.69087898638935,171.78366074263135
1.6349683016349683,170.80579766660728,128.72532301465384,44.5565512188912,106.73480955402331,164.309838734122,160.10043385472372,179.35576387833856,171.82454082499746
1.6683350016683351,167.74931248822003,123.31001606897722,40.357017601386815,97.6720005832456,164.2616713462488,159.90534405804226,180.43769385623472,172.41338497695443
1.7017017017017018,161.36075523976876,117.6779348631368,36.39206769804193,86.39134512730821,163.94590648956807,159.43370450361,181.9614884340645,173.59929614226044
1.7350684017350684,151.2426776818242,110.0763071246526,32.67726117420693,72.7284122123713,163.34085946792385,158.65985904813496,183.95196712581472,175.4313772646735
1.7684351017684352,136.99763157495818,99.10955240475424,29.228157695232312,56.51877086459467,162.42484558515994,157.55815154832533,186.43394944547217,177.9587312879517
1.8018018018018016,118.22816867974171,87.27426314116511,26.06031692646846,37.59799011013831,161.17618014512027,156.10292586088926,189.4322549070236,181.2304611558532
