Time,Left Shoulder Angle,Right Shoulder Angle,Left Elbow Angle,Right Elbow Angle,Left Hip Angle,Right Hip Angle,Left Knee Angle,Right Knee Angle
0.0,5.756771624614744,7.082918755086788,186.2480506597476,169.91088181592602,164.98575853997417,210.0647511042993,187.58528352550093,174.97230071687642
0.0333667000333667,5.905855574180746,6.912566767799999,185.85269757159537,170.1783430296009,165.26029280591226,210.4918433697452,187.1292985118081,174.99503012954088
0.0667334000667334,6.023446545010429,6.773664928675258,185.4871972623287,170.40234553778873,165.52361851472426,210.86505964409088,186.7097253660747,175.02993370387097
0.1001001001001001,6.111337762742842,6.664059434664529,185.1510661549618,170.58634214760562,165.77572338015983,211.18696615720924,186.3255060987065,175.0763064588749
0.1334668001334668,6.171322453017041,6.58159648271978,184.84382067250897,170.73378566616776,166.01659511596858,211.46012913897303,185.97558272010951,175.13344341356105
0.1668335001668335,6.205193841472078,6.524122269792975,184.56497723798444,170.84812890059138,166.24622143590014,211.6871148192552,185.6588972406895,175.20063958693768
0.2002002002002002,6.214745153747008,6.48948299283608,184.31405227440248,170.93282465799263,166.46459005370417,211.8704894279284,185.37439167085245,175.2771899980131
0.2335669002335669,6.201769615480882,6.475524848801059,184.0905622047773,170.9913257454877,166.67168868313024,212.01281919486547,185.12100802100417,175.36238966579563
0.2669336002669336,6.168060452312755,6.480094034639879,183.8940234521232,171.02708497019276,166.86750503792803,212.1166703499393,184.8976883015506,175.45553360929355
0.3003003003003003,6.115410889881679,6.5010367473045045,183.7239524394544,171.04355513922405,167.05202683184717,212.18460912302268,184.70337452289763,175.5559168475152
0.333667000333667,6.045614153826708,6.536199183746902,183.5798655897852,171.04418905969766,167.22524177863724,212.2192017439884,184.5370086954512,175.6628343994688
0.3670337003670337,5.960463469786896,6.583427540919036,183.4612793261298,171.03243953872985,167.38713759204794,212.2230144427093,184.397532829617,175.7755812841627
0.4004004004004004,5.861752063401295,6.640568015772872,183.3677100715025,171.01175938343678,167.53770198582885,212.1986134490582,184.28388893580112,175.89345252060522
0.4337671004337671,5.751273160308958,6.705466805260375,183.2986742489175,170.98560140093466,167.6769226737296,212.14856499290784,184.19501902440936,176.01574312780463
0.4671338004671338,5.630819986148941,6.775970106333512,183.25368828138912,170.95741839833963,167.80478736949982,212.0754353041312,184.12986510584764,176.14174812476926
0.5005005005005005,5.502185766560294,6.849924115944247,183.2322685919316,170.93066318276792,167.92128378688918,211.9817906126009,184.08736919052183,176.2707625305074
0.5338672005338673,5.3671637271820725,6.925175031044545,183.23393160355903,170.90878856133563,168.02639963964725,211.87019714818985,184.06647328883784,176.40208136402734
0.5672339005672339,5.227547093653377,6.999569048586431,183.25819373928732,170.89524734116043,168.1201226415251,211.74322114077265,184.06611941120303,176.5349996443387
0.6006006006006006,5.067137619954659,7.175467716807742,183.3134884049572,171.0363947748492,168.1379334258788,211.54964960162212,184.1426709194928,176.68358529102898
0.6339673006339673,4.954083338245683,7.313623731008921,183.40252362942223,171.19824460030804,168.16711317001213,211.37919321522625,184.20743428479423,176.8332529297181
0.6673340006673341,4.859920520091478,7.421525623008025,183.4781695256086,171.36277498961695,168.19765745455143,211.23435151312816,184.26971629954724,176.9725777027639
0.7007007007007008,4.760147573041053,7.466202640829748,183.5137422667864,171.5024961679058,168.22767990118805,211.1175671653129,184.338926076263,177.09427193220003
0.7340674007340674,4.652628864166216,7.457185589997602,183.61573234310777,171.60296398611405,168.26040366289678,210.99826518817724,184.4244107776194,177.22494271502995
0.7674341007674341,4.507748788474295,7.418414592974031,183.6874154628226,171.7012915132427,168.29040912340986,210.881137081316,184.5222240032638,177.34585060121228
0.8008008008008008,4.429069314512777,7.328283628521896,183.8341280712877,171.78561809768252,168.33277085187277,210.76263927862848,184.6258481942804,177.46486120114136
0.8341675008341676,4.376708481231428,7.1912503034630095,184.007364506066,171.74380042490552,168.35417783350246,210.62976305747648,184.74553540556568,177.59258884344746
0.8675342008675342,4.330450167171074,7.030999429101175,184.22202068908587,171.76047190246518,168.3775585333656,210.4868272328346,184.86137927539096,177.7409547333869
0.9009009009009008,4.25164723140795,6.85151315217285,184.39452011883265,171.78157592457885,168.41804251342654,210.36160260220603,184.96803942073285,177.87882713108422
0.9342676009342676,4.166998059597574,6.680614526932112,184.56971529524355,171.88378298799196,168.48928119066193,210.24006770935785,185.05019566718383,178.01910170126416
0.9676343009676344,4.051264640404938,6.52595238184575,184.7056893814946,172.05984298579924,168.60278880071297,210.13899207542812,185.1037084629772,178.11514475846684
1.001001001001001,3.88977966984316,6.34863444750548,184.88859208884688,172.28430209512194,168.7661456211037,210.0480837432967,185.12310001622444,178.19069642784413
1.0343677010343677,3.70437397350769,6.160943149160879,185.21230598687288,172.61238927823186,168.88425442163313,209.96150250820088,185.162574478438,178.22632608966447
1.0677344010677343,3.474808739219001,5.869074396555168,185.49563674614217,173.00737919680887,168.97381126204627,209.8894555632175,185.2139729639009,178.22169852074302
1.1011011011011012,3.21392113605881,5.51447852403345,185.8054959546129,173.43157428142743,169.03322676789466,209.84844782610847,185.2825332121913,178.1545585567946
1.1344678011344678,2.915593144911265,5.136866247471039,186.22822569350492,173.86815160317855,169.079152732357,209.8406351648796,185.3545007585323,178.02335785138385
1.1678345011678346,2.5745904241283326,4.701897141099508,186.7876492352672,174.42707964008363,169.10205450498674,209.85587541264653,185.4306078160828,177.85091484564833
1.2012012012012012,2.239637060790491,4.244139268902747,187.38143001578763,175.00861243932306,169.1061816444314,209.85650156483013,185.4968882814742,177.66496282814634
1.234567901234568,2.239637060790491,3.801255349792532,187.94823189767703,175.55019261577493,169.07675608154656,209.83686007821925,185.5727979893656,177.45703314451146
1.267934601267935,2.239637060790491,3.4286062427844377,188.5452052232306,176.14759868364365,169.0491327002624,209.8231065104155,185.6389721250873,177.24171322140862
1.3013013013013013,2.239637060790491,3.1311686190517287,189.40812345984932,176.77135604112985,169.00975945773874,209.81034103403857,185.70924390268087,177.02194251373814
1.334668001334668,2.239637060790491,2.904314701835004,190.2432118766628,177.48612429754846,168.97441890140277,209.8199847756152,185.7590250892514,176.78944068289857
1.3680347013680347,2.239637060790491,2.695196380017758,191.18009026298472,178.2231783252061,168.93267226035078,209.83451659392128,185.81694691171813,176.55413872285442
1.4014014014014016,2.239637060790491,2.536487680993028,192.02573101746125,178.99324932549953,168.85378004258422,209.83763661752627,185.91018459700445,176.33230559625076
1.4347681014347682,2.239637060790491,2.430107131904219,192.77173418624983,179.72821261633797,168.78206499113674,209.8558883209301,185.9946515907715,176.10108413226078
1.4681348014681348,2.239637060790491,2.430107131904219,193.2614562551846,180.34860583231844,168.7011799368964,209.90142919836407,186.073785810286,175.86109541892452
1.5015015015015016,2.239637060790491,2.430107131904219,193.70630436589744,180.8924146677184,168.60784514466306,210.00569037000625,186.1508090105813,175.59146220861612
1.5348682015348682,2.239637060790491,2.430107131904219,194.2433121587397,181.2099135311998,168.4828111195521,210.10091660092763,186.23947172543964,175.33229109793697
1.5682349015682349,2.239637060790491,2.430107131904219,194.8141317240436,181.54808596381943,168.3541428391818,210.175427820438,186.32749701754457,175.0802616263592
1.6016016016016017,2.239637060790491,2.430107131904219,195.3254259422499,181.7985040523459,168.22890906149468,210.24504957822825,186.42074477749023,174.84195870001167
1.6349683016349683,2.239637060790491,2.430107131904219,195.6930229032171,182.12636764358209,168.1160640621196,210.28993212189053,186.5206486734457,174.61955492894708
1.6683350016683351,2.239637060790491,2.430107131904219,195.98508084638584,182.47624017225343,167.9949149969031,210.2968491598798,186.6230693789755,174.43432797399208
1.7017017017017018,2.239637060790491,2.430107131904219,196.252668694648,182.93710953056305,167.88402418668014,210.3107436435137,186.722887692886,174.27856809063127
1.7350684017350684,2.239637060790491,2.430107131904219,196.39284978224143,183.3791321424043,167.79955762584956,210.3034528013137,186.80939374722385,174.16410474978306
1.7684351017684352,2.239637060790491,2.430107131904219,196.370590192581,183.92052595868773,167.73685149894695,210.27501794480972,186.8840980131349,174.0878227136925
1.8018018018018016,2.239637060790491,2.430107131904219,196.19752142487172,184.40638414943285,167.7064047017683,210.2640077200126,186.9322984440716,174.01993911962305
1.8351685018351689,2.239637060790491,2.430107131904219,195.76960370934376,184.81106297335492,167.70653843558608,210.254333899383,186.95510670660292,173.97618506966924
1.8685352018685355,2.239637060790491,2.430107131904219,195.08354428404408,185.25569325362864,167.76671673273728,210.2102410735632,186.9545556816516,173.97774822917734
1.901901901901902,2.239637060790491,2.430107131904219,194.3032438312698,186.1852939833363,167.87438434678734,210.14576052600748,186.93244251093125,174.00986217394575
1.9352686019352687,2.239637060790491,2.430107131904219,193.5945667108057,187.21476711339875,168.0462162888457,210.04183611286163,186.8784971848283,174.09028716268665
1.968635301968636,2.239637060790491,2.430107131904219,192.876932268294,188.8814614183906,168.27987934252744,209.899031624418,186.7835990565782,174.20706268722918
2.002002002002002,2.239637060790491,2.430107131904219,192.28460723517023,192.2022942964136,168.58831754462875,209.7479507265271,186.64066431286875,174.3337709538785
2.035368702035369,2.239637060790491,2.430107131904219,191.7075696165488,193.7410633564293,168.95967319378275,209.5640401995348,186.4609353003713,174.4542913454487
2.0687354020687354,2.239637060790491,2.430107131904219,191.1931738060588,196.16325722321136,169.37703853480852,209.3497549017117,186.25697826241912,174.5770749844012
2.1021021021021022,2.239637060790491,2.430107131904219,190.8750261637236,196.2079930494414,169.8143735125056,209.14735248384773,186.03980740869176,174.6602308127183
2.135468802135469,2.239637060790491,2.430107131904219,190.72787050994603,203.5341215094931,170.2230171045041,208.9418547478245,185.8130628740009,174.7498618039809
2.1688355021688355,2.239637060790491,2.430107131904219,190.59499358938425,202.39234294405244,170.5852730037198,208.74371749274565,185.6048610857042,174.8109222506494
2.2022022022022023,2.239637060790491,2.430107131904219,190.30815786579228,202.726339422755,170.92205081998452,208.5333574168016,185.39043256831732,174.84730022759365
2.235568902235569,2.239637060790491,2.430107131904219,190.1802480405981,205.789514623521,171.23990676502854,208.3420022505372,185.16926284191408,174.8645524304193
2.2689356022689355,2.239637060790491,2.430107131904219,190.02562927543764,208.36781872483192,171.59834998554072,208.139679690432,184.93408749992287,174.8981882758286
2.3023023023023024,2.239637060790491,2.430107131904219,191.56426654610988,210.52629058584205,171.9670742128058,207.9052472196601,184.7027013313248,174.95691398472
2.335669002335669,2.239637060790491,2.430107131904219,192.55272727741848,214.7800498822681,172.34066067828076,207.633253876224,184.4714566075636,175.0260559550633
2.369035702369036,2.239637060790491,2.430107131904219,193.25365057566304,216.06535878978625,172.72112281285536,207.35259023442248,184.2464155463577,175.08682623511834
2.4024024024024024,2.239637060790491,2.430107131904219,193.87157094384528,216.82125552873345,173.11197293962948,207.09982031435544,184.03014886063733,175.13550999409225
2.4357691024357693,2.239637060790491,2.4350378453672707,194.3402078365933,217.4281411816545,173.49059233155188,206.87963622617684,183.83858027947085,175.14076008460248
2.469135802469136,2.239637060790491,2.4350378453672707,194.3451479713938,216.4580271996805,173.88655058705618,206.6966203817884,183.65271135583976,175.09554892253607
2.5025025025025025,2.239637060790491,2.4350378453672707,194.10525236031384,213.3632430040536,174.26446985366212,206.5615924716389,183.48454248852212,175.0161386341179
2.5358692025358693,2.239637060790491,2.5707903265654948,193.4591203440567,209.3028033445732,174.65552592405996,206.48088882775616,183.31558756947547,174.89555741659134
2.569235902569236,2.239637060790491,2.5707903265654948,192.39051277812675,203.7817968972799,175.0690911829456,206.4778967538797,183.11034236142336,174.72662701188483
2.6026026026026026,2.239637060790491,2.5707903265654948,191.13577863960933,197.60323746117092,175.4737770054679,206.549019035876,182.89051376806265,174.52396907721146
2.6359693026359694,2.239637060790491,2.5707903265654948,189.794949417179,189.9762874509728,175.85392770831064,206.6922064545728,182.66247897178977,174.3007547179663
2.669336002669336,2.239637060790491,2.5707903265654948,188.3456171254221,181.11763354457608,176.21485990370803,206.833480219104,182.43863793144808,174.09698446550144
2.702702702702702,2.239637060790491,2.8130615933548544,186.38179730588192,171.75947187829507,176.54160299328464,206.98602425181377,182.2206301321617,173.88308159262823
2.736069402736069,2.239637060790491,2.8130615933548544,184.0695299292576,162.68525387851295,176.84422868513894,207.13582544382703,182.01162104813537,173.66640556486757
2.7694361027694363,2.239637060790491,2.8130615933548544,181.54440568648008,154.55487804751553,177.10868117462016,207.27176808680005,181.804398663326,173.4641980772675
2.802802802802803,2.239637060790491,2.8130615933548544,178.8935448247232,145.66340083710972,177.33336885262804,207.4211300428736,181.58613941773507,173.2771505455642
2.836169502836169,2.239637060790491,2.8130615933548544,176.02174473191616,137.31740392288813,177.52968300698546,207.5898860068307,181.36060066146857,173.09433605089558
2.8695362028695364,2.239637060790491,2.8130615933548544,172.81221482899255,129.36219620846703,177.734935973135,207.74773509364053,181.1108103068449,172.916241466561
2.902902902902903,2.239637060790491,2.8130615933548544,169.320781920187,119.2140702349065,177.91474363710316,207.8988562999357,180.8463663271282,172.73502370996107
2.9362696029362696,2.239637060790491,2.8130615933548544,165.69223945218727,110.53962772506746,178.07543279742038,208.0285156545431,180.5789995107896,172.54270120547116
2.9696363029696364,1.916034623665949,2.8130615933548544,161.80277091225918,103.40222979248868,178.22128140587137,208.13347393475712,180.29746192340608,172.3715613966709
3.003003003003004,1.6553623247486848,3.168281110883133,157.26829452046533,99.0881522209841,178.4232949625644,208.0604096185912,179.7160721882374,172.55646730210302
3.0363697030363697,1.3328940025284697,3.168281110883133,153.4723529235695,95.00897034405364,178.3801250308223,208.09152510239264,179.32010692871216,172.57479313925717
3.0697364030697365,1.108312492864671,3.168281110883133,150.32258766408825,93.34144666833062,178.3514573727631,208.1112077579908,179.06455069856776,172.50113490754484
3.103103103103104,0.7622900230217444,3.168281110883133,147.40734819205812,95.12068032164323,178.4676189168172,207.9641283736708,178.95535420052457,172.309648739821
3.1364698031364697,0.5071255744528802,3.168281110883133,143.6904400679488,98.80793862438988,178.4237503867356,207.79384745634715,178.95678221596583,172.05036683289688
3.169836503169837,0.4796606095733795,3.168281110883133,140.56364447972732,99.24374696054193,178.28155665167802,207.51235834368973,179.01659215741924,171.784471208138
3.2032032032032034,0.6362367629679831,3.168281110883133,138.21670612719055,105.54390106306516,178.13903531522092,207.25007972589373,179.0905200034518,171.50396730755443
3.2365699032365702,0.9605240080728716,3.168281110883133,135.96334284895892,109.45708155881456,177.91863559107796,206.99301741828208,179.16039390888074,171.21184189230016
3.2699366032699366,1.3037562579231097,3.168281110883133,133.85773233695633,113.60464801040486,177.65162918093256,206.70182428553227,179.2023871189672,170.95279042261723
3.3033033033033035,1.7114073587549994,3.168281110883133,131.61326495589628,109.56660976710933,177.3738305101577,206.4148010594944,179.2402925420142,170.72686384804456
3.3366700033366703,2.2691889873309217,3.168281110883133,129.7583629516335,112.89976495238484,177.05107381026747,206.222957204892,179.2838898450264,170.57573446624144
3.3700367033700367,3.0046687100214298,3.168281110883133,128.56147537125707,115.5722503709466,176.75019144791,205.89997188265616,179.3183645154829,170.45024527551703
3.4034034034034035,3.0046687100214298,3.6131532666370414,127.64988790009298,118.33583410960844,176.51057122669508,205.4139444965129,179.38988746656048,170.32066998512292
3.4367701034367704,3.0046687100214298,3.6131532666370414,127.21274772462378,121.9830196598416,176.31396698220135,204.8843417780353,179.43854614138175,170.1826759653202
3.4701368034701368,3.8706042572083126,3.6131532666370414,125.14166446213326,125.83495160375098,176.08162423955957,204.3401762559418,179.51834811852143,170.00309708028797
3.503503503503504,3.8706042572083126,3.6131532666370414,123.60335382089502,126.0959302216406,175.81963863686843,203.8292818441788,179.62380565908035,169.82327672388496
3.5368702035368704,3.8706042572083126,3.6131532666370414,122.7142619045306,126.08452745767988,175.62627757386787,203.4054712366758,179.72719634704924,169.60831664105123
3.5702369035702373,3.8706042572083126,3.6131532666370414,121.79279564254864,132.21263820779035,175.4944946686975,203.01431047993927,179.76157998527907,169.3806442525018
3.603603603603604,3.8706042572083126,3.6131532666370414,121.0280519384244,136.6238726430091,175.3999517365044,202.5708860400128,179.74689738840448,169.1534521541455
3.6369703036369705,3.8706042572083126,3.6131532666370414,120.17874033236092,138.21038710065892,175.2533657867311,202.15804593185345,179.77252234876357,168.93891482013393
3.670337003670337,3.8706042572083126,3.6131532666370414,118.87551604656063,136.37768813875425,175.22113087432578,201.86700530758776,179.75534288173412,168.71833513962676
3.703703703703704,3.8706042572083126,3.6131532666370414,117.852905256612,134.73734132785887,175.12946431952932,201.60528411616025,179.64504552088158,168.54631145863078
3.737070403737071,3.8706042572083126,3.6131532666370414,117.64573621077068,133.77283248296635,174.9316397597054,201.33903076510865,179.58597355645605,168.44503860620884
3.770437103770437,3.8706042572083126,3.6131532666370414,116.45271120411324,131.7880443483951,174.76933651572094,201.1532488001526,179.47731136783457,168.32659107822874
3.803803803803804,3.8706042572083126,3.6131532666370414,116.33128359746028,129.14446682290725,174.60482708215676,200.93822542866323,179.42976830656957,168.24749822244596
3.8371705038371706,3.8706042572083126,3.6131532666370414,116.79156377281524,123.9508686450197,174.42691019116322,200.79754730021835,179.40652293134792,168.0756748555862
3.8705372038705375,3.8706042572083126,4.118585662301814,118.31060923446158,119.37516908781942,174.30680925197677,200.68935845126555,179.42151499996754,168.05683762978416
3.903903903903904,3.8706042572083126,4.118585662301814,120.2214753740728,110.44751609352105,174.16992387744938,200.5829809301405,179.4946814511706,168.19135223924567
3.937270603937271,3.8706042572083126,4.118585662301814,122.78603936394188,101.34929605091382,173.96891388843017,200.3992893429196,179.6925022606303,168.5061119390773
