Time,Left Shoulder Angle,Right Shoulder Angle,Left Elbow Angle,Right Elbow Angle,Left Hip Angle,Right Hip Angle,Left Knee Angle,Right Knee Angle
0.0,1.9624890127326136,2.154727466644872,178.49253173278873,175.62290500096702,164.36591285536417,212.44263409202603,184.52623103101703,173.87479423496202
0.0333667000333667,2.041235061993442,1.9607916627519693,180.49694401676885,176.3095333481291,164.68171990403033,212.75892491625143,184.3417045962964,173.69634799283054
0.0667334000667334,2.0790542758429527,1.7646720574916746,182.2880055499475,176.93491829045797,164.93753980064918,213.01311658645503,184.21845744137167,173.568338544834
0.1001001001001001,2.081034356282144,1.5702659774179175,183.8791395435123,177.50120899291787,165.13657507953357,213.21002142224984,184.15241742827425,173.48615303238412
0.1334668001334668,2.052263005312013,1.381470749084628,185.28376920865088,178.01055462047293,165.28202827499646,213.35445174324883,184.13951241903527,173.4451785968927
0.1668335001668335,1.997827924933557,1.2021836990457355,186.5153177565508,178.46510433808731,165.37710192135071,213.45121986906497,184.1756702756861,173.4408023797714
0.2002002002002002,1.922816817147776,1.03630215385517,187.58720839839964,178.86700731072517,165.42499855290922,213.50513811931123,184.2568188602581,173.46841152243204
0.2335669002335669,1.8323173839556663,0.887723440066861,188.51286434538508,179.21841270335062,165.42892070398491,213.52101881360065,184.37888603478245,173.52339316628624
0.2669336002669336,1.7314173273582254,0.760344884234738,189.3057088086947,179.52146968092788,165.39207090889067,213.50367427154617,184.5377996612904,173.60113445274584
0.3003003003003003,1.6252043493564514,0.6580638129127308,189.9791649995161,179.77832740842106,165.31765170193944,213.4579168127608,184.72948760181325,173.69702252322253
0.333667000333667,1.5187661519513422,0.5847775526547692,190.5466561290369,179.99113505079433,165.20886561744405,213.38855875685744,184.94987771838228,173.806444519128
0.3670337003670337,1.4171904371438953,0.5443834300147827,191.02160540844469,180.16204177301185,165.06891518971744,213.3004124234492,185.1948978730288,173.92478758187409
0.4004004004004004,1.3255649069351088,0.5407787715467012,191.41743604892707,180.29319674003773,164.90100295307252,213.1982901321489,185.4604759277841,174.04743885287243
0.4337671004337671,1.24897726332598,0.5407787715467012,191.74757126167168,180.38674911683617,164.7083314418222,213.0870042025697,185.7425397446794,174.16978547353483
0.4671338004671338,1.192515208317507,0.5407787715467012,192.02543425786607,180.44484806837133,164.49410319027933,212.9713669543245,186.037017185746,174.28721458527298
0.5005005005005005,1.1612664439106877,0.5407787715467012,192.2644482486979,180.46964275960727,164.26152073275685,212.85619070702631,186.3398361130152,174.39511332949863
0.5338672005338673,1.1603186721065195,0.5407787715467012,192.47803644535475,180.4632823555084,164.01378660356767,212.74628778028807,186.64692438851824,174.48886884762354
0.5672339005672339,1.1603186721065195,0.5778609038044538,192.6796220590257,180.42791602104003,163.75410333702595,212.6464704937244,186.9542098742878,174.56386828106085
0.6006006006006006,1.1603186721065195,0.5778609038044538,193.25962128174123,180.14970319540123,163.52240953913278,212.72129513024203,187.2357573718414,174.5426774283047
0.6339673006339673,1.1603186721065195,0.6595271533419711,193.80693238491008,179.86227421432457,163.28301127569097,212.84150604776949,187.49881173095923,174.46881327605095
0.6673340006673341,1.1603186721065195,0.6595271533419711,194.33625828192507,179.65240690978754,163.02913402210717,212.9656892165924,187.7363244920324,174.3556406717712
0.7007007007007008,1.1603186721065195,0.6595271533419711,194.8274153682261,179.54114687373706,162.76635832540452,213.0720950872739,187.95420628622105,174.23003223056347
0.7340674007340674,1.1603186721065195,0.7896748467131822,195.32396575751784,179.4081388624653,162.50437972968356,213.1710920282269,188.1429792443325,174.0861653370611
0.7674341007674341,1.1603186721065195,0.7896748467131822,195.7893467930558,179.34684832520236,162.25761013595192,213.27825085037696,188.30648363746087,173.890972503263
0.8008008008008008,1.1603186721065195,0.7896748467131822,195.891208532832,179.58228817501586,162.0510927946685,213.40490193937595,188.42969293781465,173.62543675493367
0.8341675008341676,1.1603186721065195,0.7896748467131822,196.19298132102807,179.78428925360316,161.83963370060178,213.52673054551025,188.54000288684333,173.3261783239248
0.8675342008675342,1.1603186721065195,0.7896748467131822,196.6091024514944,179.91520393805914,161.66050036903417,213.6284487850004,188.61901183517327,173.0118631414716
0.9009009009009008,1.1603186721065195,0.9722013104720166,197.41482576112924,179.8910718353215,161.46843443137658,213.6933095820528,188.68948159264087,172.70733033883343
0.9342676009342676,1.1603186721065195,0.9722013104720166,198.25498683657,179.51134740330085,161.25929749803,213.7137825876396,188.75113047879543,172.41132357466037
0.9676343009676344,1.1603186721065195,0.9722013104720166,198.8595615818465,179.38632885986166,161.00866328522525,213.7054631566139,188.8282883966268,172.1227168333067
1.001001001001001,1.1603186721065195,0.9722013104720166,198.8473711244721,179.069778775187,160.74131304586734,213.6890195957585,188.9147885659356,171.82629376156788
1.0343677010343677,1.1603186721065195,0.9722013104720166,199.9259243975374,178.9016423652018,160.4599174093136,213.6174619848749,189.00973361992035,171.54543836929176
1.0677344010677343,1.1603186721065195,0.9722013104720166,200.70437105738765,178.4389545125256,160.1847053254881,213.51322088842764,189.08679545161183,171.27847972612696
1.1011011011011012,1.1603186721065195,1.2110038711723827,201.28435326777853,178.1097847579735,159.9149415811003,213.34224107919323,189.15806921057992,171.05059206403146
1.1344678011344678,1.1603186721065195,1.2110038711723827,201.9186268465313,178.45284992252203,159.65682098736715,213.11237727817428,189.24604894911428,170.85264159811194
1.1678345011678346,1.1603186721065195,1.2110038711723827,202.71986278515035,179.42963206932933,159.40906326605,212.8099981288276,189.34199526363807,170.69353847178542
1.2012012012012012,1.1947595949059937,1.2110038711723827,203.8491401760176,179.54307117308258,159.16088498606047,212.46061149074416,189.4749842829493,170.57321630099824
1.234567901234568,1.1947595949059937,1.2110038711723827,204.7738336995249,179.8058752659825,158.93961558951298,212.031322252888,189.60152142450835,170.5817053480843
1.267934601267935,1.1947595949059937,1.2110038711723827,205.81939756836647,180.3999950318628,158.7438451572231,211.5138251622379,189.69501675375145,170.68542293572904
1.3013013013013013,1.371374120899597,1.2110038711723827,206.94533439082144,181.29784857930773,158.58467583366286,210.92119276199645,189.7669845624459,170.84250071866882
1.334668001334668,1.371374120899597,1.2110038711723827,208.5263078637533,182.4596256097825,158.42918435743613,210.3209665616245,189.75379246396943,171.03996972804663
1.3680347013680347,1.371374120899597,1.2110038711723827,210.08704084783497,183.25320285480592,158.24954039367708,209.74640029000108,189.70238140002365,171.24979822528874
1.4014014014014016,1.371374120899597,1.2110038711723827,211.1744518171047,183.8090049658109,158.16803618614512,209.1352385698528,189.620468055132,171.46555211808538
1.4347681014347682,1.371374120899597,1.65349171583573,212.1268478343898,184.73935625840767,158.16747694315612,208.4837538686484,189.52027168914665,171.65291070797232
1.4681348014681348,1.371374120899597,1.65349171583573,212.88118886869293,185.9411625498555,158.25989293091075,207.83360671450632,189.4026830274138,171.82703424190305
1.5015015015015016,1.371374120899597,1.65349171583573,213.05981632741563,187.5815178682745,158.47472368436956,207.30995265321067,189.23647258027805,171.93174344348316
1.5348682015348682,1.6316832746113257,1.65349171583573,216.06232174689,194.3419515505224,158.74153644995852,206.9146074265541,189.043323974636,171.98032409084
1.5682349015682349,1.6316832746113257,1.65349171583573,218.5434003758864,199.7702309291349,159.07438829444683,206.5377366180918,188.81378460504425,172.02111531531412
1.6016016016016017,1.6316832746113257,1.65349171583573,220.1857681367785,204.07068922820488,159.48789926438502,206.1779558308863,188.5598827467373,172.0311885960771
1.6349683016349683,1.6316832746113257,1.65349171583573,220.7331577067968,207.2999106770949,159.93708494319597,205.8666516845136,188.3084918685204,172.0154136139033
1.6683350016683351,1.6316832746113257,1.65349171583573,220.7014539407995,209.76200739650324,160.40081286774063,205.6275210204677,188.04862548087127,171.99344730492874
1.7017017017017018,1.7479143855550745,1.65349171583573,220.1280832245831,210.61943051276123,160.92193481579332,205.4438778533141,187.7583727576564,171.92279075302676
1.7350684017350684,1.7479143855550745,1.65349171583573,219.28821442270333,212.77295676290387,161.4862482898056,205.3035182898408,187.4902356712016,171.78740034769294
1.7684351017684352,1.7479143855550745,1.65349171583573,217.96383067061004,213.23483623639493,162.08245677785743,205.1325828276728,187.15472922060783,171.63787643492822
1.8018018018018016,1.7479143855550745,1.65349171583573,216.1427743378539,211.54291983317933,162.75664607706975,204.9495567620777,186.73038427740096,171.47416785150835
1.8351685018351689,1.7479143855550745,1.65349171583573,213.71230934497189,209.0019942585047,163.5174072736743,204.7683186807081,186.2335221690069,171.2962436988783
1.8685352018685355,1.935638632978864,1.65349171583573,210.57396577390847,207.2968906088637,164.35544661934944,204.6234684181649,185.6820887376257,171.0849109058542
1.901901901901902,1.935638632978864,1.65349171583573,206.76996581203937,205.50175862517327,165.24972021134604,204.4972844859771,185.0933309001046,170.85086908835666
1.9352686019352687,1.935638632978864,2.199044106298766,203.31955645356388,201.9554638563957,166.2720404910274,204.3334118286529,184.5240192416429,170.60937165185527
1.968635301968636,1.935638632978864,2.199044106298766,199.858111729644,197.283357243804,167.2523364949303,204.133578748628,184.00195337799752,170.3957965557371
2.002002002002002,1.935638632978864,2.199044106298766,195.73650381435817,192.15691081192745,168.14291104119758,203.9396202050932,183.5367687759827,170.19747965842998
2.035368702035369,1.935638632978864,2.199044106298766,191.4276509934949,186.4328680407669,168.91480474541433,203.75216107174376,183.10290108588583,170.00713026593013
2.0687354020687354,2.186497963187376,2.199044106298766,186.89684804921987,180.32794160879243,169.62968400632974,203.58886904276244,182.66650789811123,169.81870909139712
2.1021021021021022,2.186497963187376,2.199044106298766,182.0258410325828,174.52958805696227,170.30851181358076,203.45894967113148,182.21855104403645,169.62944831180147
2.135468802135469,2.186497963187376,2.199044106298766,176.10209304773807,167.79618104596256,170.95774886367397,203.3570473561183,181.74795620291783,169.4467283482013
2.1688355021688355,2.186497963187376,2.199044106298766,171.27240132989346,161.69216289507517,171.5931589393449,203.28588852627857,181.2672906386196,169.27861376290926
2.2022022022022023,2.186497963187376,2.199044106298766,165.65024255831972,155.9586559981295,172.2456617711182,203.2887543130463,180.7505368832944,169.1343770398062
2.235568902235569,2.186497963187376,2.199044106298766,160.64993065163904,150.8163569832413,172.8654653995268,203.3100276736444,180.2243235476515,169.0219249650001
2.2689356022689355,2.186497963187376,2.199044106298766,156.28692635614064,145.61558087689363,173.45753768814407,203.3358455809128,179.68770989882665,168.91825659968106
2.3023023023023024,2.186497963187376,2.199044106298766,152.8091392099227,140.3969056280241,173.9944265438824,203.36389194807063,179.10151833167447,168.84748064749445
2.335669002335669,2.186497963187376,2.199044106298766,148.4111650299911,135.50780502368605,174.3677292846745,203.40660383935844,178.46693894938784,168.79567298513868
2.369035702369036,2.186497963187376,2.199044106298766,144.32275572274798,131.02329364867745,174.67753922837892,203.4295128485098,177.73245612233748,168.7838231734585
2.4024024024024024,2.591655221010016,2.199044106298766,142.09938551150913,127.0765986017423,174.82385479222344,203.28730972609088,176.90242861054486,168.8583520040385
2.4357691024357693,2.591655221010016,2.199044106298766,140.77112784337336,124.56504064952009,175.02322365382804,203.23334462390943,176.02326025630057,168.9435761408307
2.469135802469136,2.591655221010016,2.7238302705481603,140.6731630316414,122.98073485857556,175.18980994994712,203.2444650321068,175.1212399698521,169.05225718529
2.5025025025025025,2.591655221010016,2.7238302705481603,140.23584299959677,122.29039287029384,175.32885419821784,203.22370440423623,174.2876128240225,169.1684582486911
2.5358692025358693,2.591655221010016,2.7238302705481603,140.23383801414198,122.6840064816986,175.5140619203119,203.1412595770884,173.52351245961776,169.3135494629242
2.569235902569236,2.591655221010016,2.7238302705481603,140.80628530105173,124.391765837305,175.6941496796952,203.0867057053682,172.78264650154105,169.47212281032637
2.6026026026026026,2.591655221010016,2.7238302705481603,142.20254780790808,127.12944314064528,175.85991715357773,203.09230773346007,172.07810321205125,169.67393541242805
2.6359693026359694,2.591655221010016,2.7238302705481603,144.55760846213536,132.0908553135672,175.972123704478,203.06314578221725,171.36895515116618,169.9538403294772
2.669336002669336,2.591655221010016,2.7238302705481603,147.5904670344277,138.56759232836396,176.0303728138107,203.04128156016856,170.71593397284337,170.27497499487964
2.702702702702702,2.591655221010016,2.7238302705481603,148.14696960704467,140.19752503503244,176.19016190881098,202.981504598792,170.04067936183594,170.6633066702888
2.736069402736069,2.591655221010016,2.7238302705481603,148.90990506650024,141.91170405268684,176.37296029858138,202.9192909485773,169.41175178453952,171.07173630531236
2.7694361027694363,2.591655221010016,2.7238302705481603,150.86509140571272,139.9679912172751,176.40092415632978,203.21660299994224,168.82565049595144,171.54525577461155
2.802802802802803,2.591655221010016,2.7238302705481603,151.59206577303414,137.7080527270919,176.28475091702546,203.28805058990645,168.2758649490901,172.1837691294527
2.836169502836169,2.591655221010016,2.7238302705481603,150.30941510418072,137.02528839763696,176.37159333858742,203.40304611177555,167.85070037287076,172.56828354563086
2.8695362028695364,2.591655221010016,2.7238302705481603,148.80627143860212,138.48725463382982,176.588696582878,203.580065042604,167.5486381392076,172.8040089428037
2.902902902902903,3.1820248402164024,2.7238302705481603,145.70467066667143,140.4181433015599,176.89002851495874,203.8019690481533,167.29509873432073,172.9414772291359
2.9362696029362696,3.1820248402164024,2.7238302705481603,142.74946982409298,137.61357707646957,177.29398917754176,204.01811122805773,167.18954578938505,173.05948808516536
3.003003003003004,3.1820248402164024,2.7238302705481603,138.76718519139203,135.95696394236717,177.75638057911738,204.27322131172124,167.13031344925403,173.07633910678427
3.0363697030363697,3.1820248402164024,3.31556271767339,135.67029995732997,134.55095118676644,178.241679497649,204.6180906139488,167.23142916593085,172.9783228948794
3.0697364030697365,3.1820248402164024,3.31556271767339,134.00505004009509,128.41163918149928,178.7873749246363,205.00752871377816,167.4420292297297,172.7624886163147
3.103103103103104,3.1820248402164024,3.31556271767339,133.17547539946705,121.40123199502254,179.32793496557989,205.46090862035527,167.8506536107418,172.46069590084693
3.1364698031364697,3.1820248402164024,3.31556271767339,132.00615496497232,118.08352189940368,179.8050045611142,205.94677184481267,168.2925050711665,172.1027203884971
3.169836503169837,3.1820248402164024,3.31556271767339,130.98472028247346,116.15530614625727,180.17688218792912,206.5177237809656,168.90036586844607,171.71689699436274
3.2032032032032034,3.1820248402164024,3.31556271767339,131.12505379257388,115.56568790267234,180.58853604447296,207.16178209622004,169.474876110109,171.1679025370721
3.2365699032365702,3.1820248402164024,3.31556271767339,131.34559229116303,115.45028222023213,180.9620332928016,207.86092720521083,170.18598660876486,170.59431155287237
3.2699366032699366,3.1820248402164024,3.31556271767339,130.8344779891903,115.9082029990977,181.4086753072081,208.6740420871836,170.8877312805089,169.8842347356974
3.3033033033033035,3.1820248402164024,3.31556271767339,130.40886088855046,116.60286966530607,181.773294326856,209.55632377943107,171.77701830351077,169.21883587613928
3.3366700033366703,3.1820248402164024,3.31556271767339,131.48413574040418,119.30752501137071,181.9692178518372,210.3463942076758,172.84220413121645,168.6132108041213
3.3700367033700367,3.1820248402164024,3.31556271767339,132.94811740503465,122.07110119773708,182.05314898754867,211.1582930261948,174.06037367737747,168.16667655697432
3.4034034034034035,3.1820248402164024,3.31556271767339,135.28693477437955,124.80911612596891,182.0057981333684,211.86264139872804,175.36891351952906,167.87695970414651
3.4367701034367704,3.1820248402164024,3.31556271767339,138.0190521312092,127.63246433439852,181.86389568742487,212.5625262966292,176.76673865983082,167.71030673461362
3.4701368034701368,3.1820248402164024,3.31556271767339,141.20483222695583,131.07028806304905,181.5863195509327,213.317405182708,178.28240379232034,167.57055195173135
3.503503503503504,3.7662124675740576,3.31556271767339,144.11304099288662,134.6098997196874,181.1865387186551,214.09186185532627,179.8554234553083,167.59987957283388
3.5368702035368704,3.7662124675740576,3.31556271767339,148.95607799835733,137.4046667943866,180.6426296474127,214.80797947506565,181.533845125806,167.80192062222014
3.5702369035702373,3.7662124675740576,3.31556271767339,154.67121664444198,141.26368698718284,180.05501602273725,215.47371744527555,183.23040473801004,168.27173459659028
3.603603603603604,3.7662124675740576,3.31556271767339,160.4799017970715,146.72082883254865,179.60714559121158,216.3842849807192,184.8895887365372,168.7549256216233
3.6369703036369705,3.7662124675740576,3.946567505832756,166.07764986305042,151.51765343302918,179.13415138043766,217.25302223842863,186.5110149110724,169.49911329257452
3.670337003670337,3.7662124675740576,3.946567505832756,171.39358791991685,154.98054914209953,178.49299335552138,218.03943937464527,188.2498208545979,170.48151437274845
3.703703703703704,3.7662124675740576,3.946567505832756,176.84094400413224,157.7394814389771,177.93743289640636,218.74693549758965,189.8629284893869,171.77675781559836
3.737070403737071,3.7662124675740576,3.946567505832756,182.38551078059635,160.57496640478254,177.4934450599294,219.6099056776949,191.2556972721569,173.19124026890728
3.770437103770437,3.7662124675740576,3.946567505832756,187.3394184709832,163.4641324004329,177.18895282173204,220.51492730689765,192.47199778937804,174.77765765687383
3.803803803803804,3.7662124675740576,3.946567505832756,188.4927626074465,167.14245966907984,177.00641687470565,221.3536268410379,193.45219597556564,176.54721731318855
3.8371705038371706,3.7662124675740576,3.946567505832756,197.31332836847344,169.80218609182396,177.03203069944368,222.13621316645128,194.22628104481944,178.47116066696452
3.8705372038705375,3.7662124675740576,3.946567505832756,197.46002512572167,171.71528901397073,177.33465261286443,222.9255054054727,194.74291196158487,180.4971251072297
3.903903903903904,3.7662124675740576,3.946567505832756,197.45575349500703,172.17390367367963,177.77690477423678,223.67052530130056,195.0696716862553,182.602157361311
3.937270603937271,3.7662124675740576,3.946567505832756,196.4886626305154,168.19079589366274,178.29951443277798,224.60240618537244,195.2098627182506,184.61960226643177
3.9706373039706375,3.7662124675740576,3.946567505832756,192.9146285164928,167.87158988338103,179.0880954378568,225.15041171842944,195.19207356851263,186.5905883517061
