Time,Left Shoulder Angle,Right Shoulder Angle,Left Elbow Angle,Right Elbow Angle,Left Hip Angle,Right Hip Angle,Left Knee Angle,Right Knee Angle
0.0,-13.636017237080432,6.922764372698629,187.9621543598004,178.4818391392646,167.4555932372714,216.75725399117337,184.7687221909057,172.75501574089273
0.0333667000333667,-10.444216718481416,-1.8522802361564912,189.1325212023088,174.9202579278346,166.64834504963935,215.45499964667133,185.1657680939977,174.3706705529679
0.0667334000667334,-6.809769843350048,-7.53540106196465,189.77915971338268,171.3209905169421,165.82742294994006,214.22877777916256,185.4984185087883,175.6343259265058
0.1001001001001001,-2.78666869519302,-10.374665366311277,189.95051124999296,167.7030726723592,165.00408041028462,213.07865299146115,185.7708427829294,176.57590890581432
0.1334668001334668,1.5710946424829668,-10.618140410781816,189.6950171691104,164.0855401598581,164.18957090278428,212.0046898863812,185.9872102640732,177.2253465352015
0.1668335001668335,1.5710946424829668,-8.513893456961696,189.06111882770568,160.4874287452109,163.39514789955018,211.00695306673663,186.1516902998716,177.61256585897533
0.2002002002002002,1.5710946424829668,-4.309991766436355,188.09725758274973,156.92777419418985,162.63206487269352,210.0855071353417,186.2684522379768,177.76749392144376
0.2335669002335669,1.5710946424829668,1.74549739920879,186.8518747912133,153.42561227256704,161.91157529432547,209.2404166950104,186.3416654260408,177.7200577669148
0.2669336002669336,1.5710946424829668,9.404506778388274,185.3734118100672,149.99997874611458,161.24493263655725,208.47174634855668,186.3754992117156,177.50018443969643
0.3003003003003003,6.209528086171213,18.41896910951667,183.7103099962821,146.66990938060465,160.64339037150003,207.7795606987948,186.37412294265337,177.13780098409663
0.333667000333667,11.07463955236502,28.540817131008577,181.91101070682905,143.45443994180943,160.11820197126497,207.1639243485388,186.34170596650603,176.66283444442337
0.3670337003670337,16.11243695755769,39.521983581278526,180.02395529867857,140.37260619550105,159.6806209079633,206.6249019006028,186.28241763092572,176.10521186498465
0.4004004004004004,21.26892821824253,51.11440119874107,178.09758512880163,137.44344390745164,159.34190065370615,206.16255795780063,186.2004272835645,175.49486029008847
0.4337671004337671,26.49012125091283,63.0700027218108,176.18034155416896,134.68598884343342,159.11329468060475,205.77695712294656,186.09990427207444,174.86170676404276
0.4671338004671338,31.722023972061898,75.14072088890231,174.32066593175136,132.11927676921846,159.00605646077028,205.46816399885464,185.9850179441075,174.23567833115555
0.5005005005005005,36.91064429818304,87.07848843843011,172.56699961851965,129.76234345057895,159.0314394663139,205.236243188339,185.85993764731572,173.64670203573482
0.5338672005338673,42.00199014576955,98.63523810880878,170.96778397144456,127.63422465328703,159.20069716934682,205.0812592942136,185.72883272935127,173.12470492208857
0.5672339005672339,46.94206943131472,109.56290263845368,169.57146034749832,125.75395614311594,159.5250830419815,205.00327691929425,185.59587253786776,172.69961403452606
0.6006006006006006,51.67689007131187,112.25838714949992,169.2705901805461,121.11482404317822,159.9419725088422,205.04028631389968,186.4275280478922,172.9036542227771
0.6339673006339673,56.15245998225431,113.75803012106714,169.25800225645372,118.31064038081142,160.6514850498112,205.09244577869111,187.08203470112585,173.21647752891897
0.6673340006673341,60.31478708063529,115.88365799171298,169.4619476683216,116.8680742367371,162.42450896824516,205.357324846578,187.06041538073885,173.81245963585798
0.7007007007007008,64.10987928294855,117.54398708282532,171.11528942046354,114.29879348498308,164.4051029398752,205.7974394406613,186.7501541392423,174.65593866628703
0.7340674007340674,64.68382040106356,116.694271412138,172.3465982354069,116.94077183952496,166.50903957892018,206.4291773376453,186.45328330209645,175.75451712083597
0.7674341007674341,64.59083118862034,112.52030125973448,175.4582656819579,124.1794139234478,168.7550078000693,207.02197979856527,186.1668456670786,177.05380926213587
0.8008008008008008,62.811442820038486,108.91437566199492,176.16076346486977,130.49763238814927,171.08533986635956,207.81310931291168,185.72240544592705,178.3617674669218
0.8341675008341676,68.48958547394004,107.26909492478296,177.6552553200862,136.98622892682022,173.10556835848172,208.8197152895497,183.42514241443533,180.50393653238345
0.8675342008675342,64.8284766471812,105.58456611772804,179.6059725868505,141.662047235884,174.94098296108922,209.8923703450131,181.7802657768816,183.8573947712661
0.9009009009009008,67.52815951280122,110.25688825553696,181.44061414509432,147.0238573841422,176.92611425441166,210.50190171802524,182.46439047617864,185.18455453926484
0.9342676009342676,64.24899629302708,113.7277851096452,184.3904663274843,152.23491335808205,178.91659915227194,210.69467589836,182.99892635161385,186.87311065503263
0.9676343009676344,62.055388570576056,116.09951212600052,189.6377352909516,151.84443892622284,180.71449966843304,211.32932718725587,181.15489856076528,190.25160514461209
1.001001001001001,61.28251386277943,117.0434934425739,196.8268128378253,157.27769011600023,183.0797076085216,211.1566071084064,180.9020946417509,192.1141447703124
1.0343677010343677,61.2490659588889,116.57287351003498,200.7095387548411,154.50328131836852,184.8595979337701,211.10772696130093,179.1420492674862,194.3762233991592
1.0677344010677343,62.47982945685012,115.49673944556017,200.8754273384905,149.80650463693,186.49034458245208,211.05744362879548,177.77928382989575,197.36217105682056
1.1011011011011012,64.60814873196169,113.17244554654071,200.01792382493,143.80107585935036,187.8387027661008,210.894421135053,176.92217168390735,199.6656140944725
1.1344678011344678,74.924633341097,115.46454474092414,200.94299656869583,143.21427042324487,189.1317550993925,210.24165282573,175.6986227125721,202.2275109501785
1.1678345011678346,83.54097914666808,117.78608828564774,201.4006254725325,142.1383484047326,190.25433925332817,209.456540031155,174.65206602430203,204.534506771021
1.2012012012012012,90.90475861859836,120.03929427495464,201.3437898700253,140.50170011100337,191.19195387788363,208.5443248262552,173.8306545066398,206.5253861820303
1.234567901234568,97.01627782904164,122.12638080308884,200.72546909476097,138.23271584924842,191.9300976230361,207.51024928595933,173.28254104712937,208.13893380823856
1.267934601267935,109.12956629643595,123.94956596429428,199.49864248032665,135.25978592665902,192.45426913876292,206.35955548519624,173.05587853331463,209.3139342746779
1.3013013013013013,121.17308771287183,125.41106785281502,197.61628936030928,131.51130065042636,192.74996707504152,205.09748549889468,173.1988198527396,209.9891722063805
1.334668001334668,132.84185719575603,126.4131045628952,195.03138906829577,126.91565032774167,192.802690081849,203.7292814019836,173.75951789294822,210.1034322283784
1.3680347013680347,143.8308898624962,126.85789418877876,191.6969209378732,121.4012252657962,192.5979368091628,202.2601852693915,174.78612554148444,209.59549896570385
1.4014014014014016,153.8352008304998,126.64765482470976,187.5658643026284,114.89641577178112,192.12120590696009,200.69543917604747,176.3267956858922,208.4041570433889
1.4347681014347682,162.5498052171744,125.6846045649322,182.5911984961484,107.32961215288772,191.35799602521828,199.04028519688012,178.42968121371547,206.46819108646568
1.4681348014681348,169.66971813992765,123.87096150369013,176.72590285202017,98.6292047163072,190.29380581391464,197.2999654068184,181.1429350124982,203.7263857199664
1.5015015015015016,174.8899547161669,121.10894373522754,169.92295670383066,88.72358376923083,188.9141339230265,195.47972188079103,184.51470996978435,200.11752556892304
1.5348682015348682,177.90553006329986,117.3007693537885,162.1353393851669,77.54113961884974,187.20447900253112,193.5847966937268,188.59315897311785,195.5803952583679
1.5682349015682349,178.41145929873386,112.34865645361708,153.31603022961582,65.01026257235527,185.15033970240577,191.6204319205545,193.42643491004267,190.05377941333305
1.6016016016016017,176.10275753987668,106.15482312895716,143.41800857076436,51.059342936938606,182.73721467262783,189.59186963620297,199.0626906681028,183.4764626588506
1.6349683016349683,170.67443990413562,98.62148747405284,132.3942537421995,35.61677101979096,179.95060256317456,187.50435191560092,205.5500791348421,175.7872296199527
1.6683350016683351,161.8215215089185,89.65086758314833,120.19774507750822,18.610937128103583,176.77600202402326,185.36312083367733,212.93675319780465,166.9248649216715
