Time,Left Shoulder Angle,Right Shoulder Angle,Left Elbow Angle,Right Elbow Angle,Left Hip Angle,Right Hip Angle,Left Knee Angle,Right Knee Angle
0.0,7.028098595656201,7.152715731204329,190.22045278285543,191.52110596245305,165.74615297072177,197.8243878282442,178.87053117458274,183.07772623705628
0.0333667000333667,4.949591091400121,5.668138873870049,190.3277482886012,181.71069008873923,165.2126737430411,197.20294501033024,178.60109818700826,182.9123654789663
0.0667334000667334,3.2241482953911307,4.422541081974935,190.3936327363824,173.69028051500294,164.73600303636,196.6576531457372,178.32754604450773,182.7086940447689
0.1001001001001001,1.8357894365158112,3.404676775633176,190.4230245036328,167.3288054867784,164.31363457938448,196.1843497204161,178.0511553544356,182.47051592885188
0.1334668001334668,0.7685337436607407,2.603300374958959,190.42084196778603,162.4951932495999,163.9430621008206,195.77887222031788,177.7732067241463,182.20163512560305
0.1668335001668335,0.0064004457124999,2.007166300066473,190.3920035062757,159.0583720490017,163.62177932937436,195.43705813139343,177.49498076099434,181.90585562941027
0.2002002002002002,-0.4665912284423319,1.6050289710699062,190.3414274965355,156.88727013051803,163.34727999375178,195.15474493959383,177.21775807233416,181.58698143466137
0.2335669002335669,-0.666422049917176,1.385642808083448,190.27403231599897,155.8508157396832,163.11705782265892,194.92777013087,176.94281926552023,181.24881653574417
0.2669336002669336,-0.6090727898254498,1.3377622312212851,190.1947363420998,155.81793712203148,162.9286065448018,194.7519711911728,176.67144494790702,180.8951649270465
0.3003003003003003,-0.3105242192805777,1.3377622312212851,190.1084579522716,156.65756252309714,162.77941988888642,194.62318560645323,176.404915726849,180.52983060295625
0.333667000333667,0.2132428906040226,1.3377622312212851,190.020115523948,158.23862018841442,162.66699158361885,194.53725086266232,176.14451220970062,180.15661755786115
0.3670337003670337,0.2132428906040226,1.3377622312212851,189.93462743456269,160.4300383635176,162.58881535770507,194.49000444575103,175.89151500381632,179.77932978614905
0.4004004004004004,0.2132428906040226,1.3377622312212851,189.8569120615492,163.10074529394095,162.54238493985116,194.47728384167024,175.64720471655062,179.40177128220785
0.4337671004337671,0.2132428906040226,1.3377622312212851,189.7918877823413,166.1196692252188,162.5251940587631,194.49492653637097,175.41286195525797,179.0277460404253
0.4671338004671338,0.2132428906040226,1.3377622312212851,189.74447297437243,169.35573840288535,162.53473644314698,194.53877001580412,175.1897673272928,178.6610580551893
0.5005005005005005,0.2132428906040226,1.3377622312212851,189.7195860150764,172.67788107247483,162.56850582170875,194.6046517659208,174.9792014400096,178.30551132088766
0.5338672005338673,0.2132428906040226,1.3377622312212851,189.72214528188672,175.9550254795216,162.62399592315452,194.68840927267172,174.78244490076284,177.96490983190822
0.5672339005672339,0.2132428906040226,1.3377622312212851,189.75706915223864,179.0560998695614,162.69870047619165,194.78588002200965,174.60077831690833,177.64305758264035
0.6006006006006006,0.2132428906040226,1.3377622312212851,190.0420713763992,181.26027085505976,162.7155267609477,194.80528007738312,174.48655519278037,177.4002175045315
0.6339673006339673,0.2132428906040226,1.3377622312212851,190.42316922412977,182.0568416013324,162.76435469370662,194.8687979265424,174.38335863890265,177.19035812974022
0.6673340006673341,0.2132428906040226,1.3377622312212851,190.9550529335069,182.1331843236628,162.8248910439783,194.95578798399063,174.30727153232436,177.01009280953784
0.7007007007007008,0.2132428906040226,1.3377622312212851,191.466853442114,181.87856170804227,162.90599156360173,195.0736976455582,174.25544736276896,176.85879237047362
0.7340674007340674,0.9462477687149312,1.3377622312212851,191.89120398593127,180.04223667262733,163.00546318148378,195.1738480881184,174.20730693944762,176.72932419740243
0.7674341007674341,0.9462477687149312,1.3377622312212851,192.2460304934366,177.12053582503603,163.1121097672195,195.25838213006872,174.18458519377683,176.61180809548398
0.8008008008008008,0.9462477687149312,1.3377622312212851,192.69324579758043,168.9553340535346,163.24396139146438,195.3592387283712,174.18665979252307,176.53286372417884
0.8341675008341676,0.9462477687149312,1.3377622312212851,193.04539319286488,160.72808129184088,163.41335002859907,195.462789676938,174.1977170615146,176.4838346759037
0.8675342008675342,0.9462477687149312,1.3377622312212851,193.30091345947656,155.81833133337824,163.56552931648162,195.5065054844229,174.2159384131932,176.49968447651787
0.9009009009009008,0.9462477687149312,1.3377622312212851,194.94005996827383,149.5185243091058,163.75889128239498,195.55806573940447,174.15081542018154,176.55893484831145
0.9342676009342676,0.9462477687149312,1.3377622312212851,195.78118340974632,144.9710154780182,163.91109874664883,195.49031441166431,174.11021593755916,176.67844408200932
0.9676343009676344,0.9462477687149312,1.3377622312212851,196.4982721139285,138.82536367417836,164.05231403661645,195.34673730205043,174.0076621247379,176.8297204464728
1.001001001001001,0.9462477687149312,1.3377622312212851,196.7274848066497,131.52256475215145,164.24761488492572,195.210405184078,173.90105081489327,176.92325224191015
1.0343677010343677,0.9462477687149312,1.3377622312212851,196.71448233830685,123.89976523257944,164.47204086611376,194.9963744893496,173.84061849234087,177.03468775575217
1.0677344010677343,0.9462477687149312,1.3377622312212851,196.48932253497136,111.87421774439184,164.64986761762896,194.72389051791612,173.82044836214772,177.1713010655935
1.1011011011011012,0.9462477687149312,1.3377622312212851,196.46339625580515,100.29497693005015,164.7814269128122,194.3747816494674,173.80764742566447,177.2912547338537
1.1344678011344678,0.9462477687149312,1.3377622312212851,196.0697224503465,89.57436573927376,164.93047440905235,194.0024176832856,173.77365485644145,177.39425427189235
1.1678345011678346,0.9462477687149312,1.3377622312212851,195.51061991056864,79.99849454104967,165.1063966461553,193.60340132782332,173.7136623768312,177.48265913980322
1.2012012012012012,0.9462477687149312,1.3377622312212851,195.3859536996463,71.38271838905473,165.3727774615113,193.1875545537592,173.59358187032262,177.55489516629504
1.234567901234568,0.9462477687149312,1.3377622312212851,193.83160551409333,64.1574334032566,165.6976112907283,192.77280926326569,173.37863691951858,177.6300978137342
1.267934601267935,0.9462477687149312,1.3377622312212851,192.1193110161392,58.07190423144623,166.01997599157377,192.33790615265292,173.09860959757177,177.71265171753112
1.3013013013013013,0.9462477687149312,1.3377622312212851,190.21393514692969,53.66910718122871,166.38053062421298,191.8780141606408,172.71253585228402,177.79510964569812
1.334668001334668,0.9462477687149312,1.3377622312212851,188.54713327805,50.78043499743392,166.81831954904803,191.47514113707487,172.18215580332972,177.8920895383599
1.3680347013680347,0.9462477687149312,1.3377622312212851,186.98699630751068,49.62881900928828,167.347348699708,191.12049651393053,171.51037163686644,178.00079660697727
1.4014014014014016,0.9462477687149312,1.4501416605976072,183.0468695989933,50.38517551668426,167.93395211150613,190.8554906870791,170.68948646876666,178.10593331256237
1.4347681014347682,0.9462477687149312,1.4501416605976072,179.3961090728852,54.26074495637408,168.60890312875583,190.68124845233305,169.65810038535636,178.0962781175251
1.4681348014681348,0.9462477687149312,1.4501416605976072,175.64214169685675,55.75526504488762,169.31116509291067,190.71614649475424,168.60840578678025,177.96791134326608
1.5015015015015016,0.9462477687149312,1.4501416605976072,172.01335753673536,64.27013470268541,169.86753372876822,190.6805147428076,167.9664856854548,177.70320571297538
1.5348682015348682,0.9462477687149312,1.4501416605976072,168.44723577410002,70.09844100613765,170.32388389894982,190.6569001993564,167.63410474851793,177.33217496154563
1.5682349015682349,1.8725096439387243,1.4501416605976072,165.55071823847337,76.57507389439652,170.80188408063276,190.8595861451388,167.4961631590388,176.92839725047625
1.6016016016016017,1.8725096439387243,1.7115355163266033,161.55438762133122,84.75040520925931,171.0365309504791,191.13906102648104,167.5629590330984,176.66085586795575
1.6349683016349683,1.8725096439387243,1.7115355163266033,157.84521497938084,94.71135401603983,171.21906901435213,191.4724308801377,167.8313093119723,176.60583908211967
1.6683350016683351,1.8725096439387243,1.7115355163266033,164.86273376336715,99.87112152484848,171.22873831355565,191.94383252533672,168.3839039024774,176.5954854876949
1.7017017017017018,1.8725096439387243,1.7115355163266033,170.5949939953871,105.51506363697696,171.18354749934767,192.52894037347923,169.0872302181822,176.73042029789374
1.7350684017350684,1.8725096439387243,1.7115355163266033,169.2037267228339,110.52181099416433,171.21633736875287,193.2388028027672,169.84637568673466,176.79386205403551
1.7684351017684352,1.8725096439387243,1.7115355163266033,165.71256439031777,113.54273568174544,171.41593841167676,194.1645264311176,170.6329069577999,176.83670367156455
1.8018018018018016,1.8725096439387243,1.7115355163266033,163.87963131383128,117.93025029771756,171.84604960742624,195.1050240219449,171.46575030447278,176.7826424793154
1.8351685018351689,1.8725096439387243,1.7115355163266033,161.72790395826075,121.25667495636968,172.19871471486323,196.1287884864805,172.2818094098505,176.67245843020143
1.8685352018685355,1.8725096439387243,1.7115355163266033,160.67095678162423,123.51069294728654,172.56056813761458,196.8277790985965,173.09264205280726,176.90331970863724
1.901901901901902,1.8725096439387243,1.7115355163266033,162.00286153179746,128.12543123726485,172.9095786580577,197.75560616199385,173.81045532714668,177.04270354209476
1.9352686019352687,1.8725096439387243,2.110698218522459,163.99417544447252,129.9772485837631,172.94626460463388,198.7639049574536,174.56577946246347,177.4141936293521
1.968635301968636,1.8725096439387243,2.110698218522459,166.5943731143631,133.46971369696752,173.006207310086,199.441917838108,175.25594592318123,178.36223582876025
2.002002002002002,1.8725096439387243,2.110698218522459,173.05158585619253,138.67023146482933,173.249604608944,199.8508728682402,175.95320913227482,179.58929320209702
2.035368702035369,1.8725096439387243,2.110698218522459,175.75233922497512,140.96089316623494,173.44806092524976,200.0222254721832,176.87099044428757,181.147272620494
2.0687354020687354,1.8725096439387243,2.110698218522459,179.76747243104765,143.18253726706794,173.6339475950286,200.11392445790472,176.3321236851111,184.37794198510463
2.1021021021021022,1.8725096439387243,2.110698218522459,182.10895663871176,143.76085052871946,173.7709950505249,199.98581458661167,176.8255351636242,186.84702992737456
2.135468802135469,1.8725096439387243,2.110698218522459,177.21402894745594,148.27771790666358,173.73151327042214,199.82995748113228,176.8963321836285,190.04234105415267
2.1688355021688355,1.8725096439387243,2.110698218522459,173.15208337507934,146.71941922581985,173.86064673881714,199.53350669275403,178.5245385594511,191.5750434059301
2.2022022022022023,1.8725096439387243,2.110698218522459,171.9063528949127,144.62703609035856,174.08458441222857,198.8018595203204,180.2863648058286,193.1088935469068
2.235568902235569,1.8725096439387243,2.110698218522459,171.8690685456514,145.86096573794725,174.3385931674234,197.9648815050145,180.9785033891469,195.7245311708212
2.2689356022689355,1.8725096439387243,2.110698218522459,167.3416869283637,146.8280447143638,174.608764823985,197.10903591394813,181.21800863717544,198.6095577601717
2.3023023023023024,2.976047745161986,2.110698218522459,164.08177443037158,147.93619987085418,174.98393167015792,196.1211556757182,182.88312023279627,200.81753345433185
2.335669002335669,4.2408813012712985,2.110698218522459,159.53004957779538,150.04537402181148,175.4295799626318,195.0467818226549,183.5902829108619,202.5385833165056
2.369035702369036,5.65102954115323,2.110698218522459,154.59225043133483,160.49697336449168,175.93434066401915,193.9437580675386,184.9023202767796,203.8905271065209
2.4024024024024024,7.190511693694366,2.636384187299366,149.34521212962682,170.80080699472575,176.51025008437068,192.7709155204977,185.8249708134412,204.5870793649816
2.4357691024357693,8.843346987781278,3.2773478427715075,142.45909671312927,171.40328470408863,177.18149675268032,191.59323849641768,186.97140917098383,204.2482821072277
2.469135802469136,10.155245760093242,4.022343605053081,133.3697030668642,174.0023378564174,177.93173600231248,190.42956777439304,187.77818530748905,203.655487644452
2.5025025025025025,11.616289601845612,4.860125894258262,123.86559674284324,175.92525034693583,178.74326946898307,189.3375494929229,188.250826775555,203.0040677083426
2.5358692025358693,13.110216435214436,5.779449130501253,113.27397598460986,179.6380156101087,179.57002229415806,188.33376306676385,188.54777905197653,202.2598404170201
2.569235902569236,14.790141317719554,6.769067733896239,104.76700314202066,183.2388716424784,180.370784939106,187.47806527006813,188.8036757162158,201.3085318963288
2.6026026026026026,16.66342387169022,7.666767153282479,96.34701595095169,184.11781343922289,180.9359198973933,186.6447517242812,190.24479522592748,199.4495770500246
2.6359693026359694,18.687622100252668,8.609032511952524,88.10226457170064,184.90432960677484,181.4896850788468,185.89372477011392,191.5873681314362,197.5269879730224
2.669336002669336,20.849434303095368,9.604256899172956,80.11934122418643,185.67548066323047,182.03143272737884,185.23547785452595,192.7867854095359,195.60267600119155
2.702702702702702,23.071585574146912,10.73366418170773,72.48483812832906,186.5083271266871,182.56051508690285,184.6805044244785,193.7984380370223,193.73855247040345
2.736069402736069,25.367359316861943,11.802220245336192,65.28534750404864,187.479929515242,183.0762844013322,184.2392979269328,194.5777169906909,191.9965287165292
2.7694361027694363,27.631870648727546,12.972620771328486,58.60746157126522,188.6673483469924,183.5780929145804,183.92235180885007,195.08001324733752,190.43851607544
2.802802802802803,29.83200213722208,13.89324200331152,52.53777254989893,190.14764414003545,184.0652928705609,183.7401595171917,195.26071778375768,189.12642588300707
2.836169502836169,32.154871583544555,14.734300500232196,47.16287265986986,191.9978774124685,184.5372365131872,183.7032144989188,195.07522157674708,188.1221694751017
2.8695362028695364,34.339045397379124,16.227503071967515,42.56935412109803,194.2951086823888,184.99327608637265,183.8220102009925,194.4789156031013,187.48765818759503
2.902902902902903,36.4659511151138,17.75112220836685,38.84380915350354,197.11639846789365,185.4327638340307,184.1070400703743,193.4271908396161,187.28480335635825
2.9362696029362696,38.82640730428446,18.857001158726977,36.072829977006535,200.5388072870802,185.8550520000749,184.5687975540252,191.8754382630869,187.57551631726253
2.9696363029696364,41.28553735037891,18.887584328077843,34.34300881152703,204.63939565804577,186.2594928284186,185.2177760989066,189.7790488503096,188.4217084061792
3.003003003003004,43.54878110235354,19.491274256646086,33.7409378769851,209.4952240988877,186.6454385629753,186.06446915197964,187.09341357807963,189.88529095897923
3.0363697030363697,39.205663590244384,20.49050381632007,34.353209393300915,215.18335312770296,187.01224144765845,187.1193701602056,183.7739234231928,192.0281753115341
3.0697364030697365,43.88903995980717,13.595972152452488,36.26641558039452,221.7808432625891,187.3592537263815,188.3929725705457,179.77596936244456,194.9122727997149
3.103103103103104,41.83249883363169,9.554780716147636,39.56714865818592,229.3647550216432,187.68582764305788,189.8957698299612,175.05494237263068,198.5994947593928
3.1364698031364697,41.939439932955246,8.628137136767236,44.34200084659534,238.01214892296264,187.99131544160105,191.6382553854133,169.5662334305468,203.15175252643908
