Time,Left Shoulder Angle,Right Shoulder Angle,Left Elbow Angle,Right Elbow Angle,Left Hip Angle,Right Hip Angle,Left Knee Angle,Right Knee Angle
0.0,76.21066645790066,68.79452428112053,168.19430986267287,157.8432868910822,158.83971004925058,152.85437259859526,199.30371941186385,197.8154132583477
0.0333667000333667,61.4295765801284,60.87517249553217,169.16766600807404,165.30233991197358,157.98964923638127,152.90994357795483,200.8723613589964,199.0897896893334
0.0667334000667334,48.68154106575428,53.474894591897474,170.0028705604213,171.17210736719804,157.1873247749454,153.01067037743428,202.22975437675572,200.1626679863712
0.1001001001001001,37.90242893099629,46.625104238340974,170.7043852683103,175.5457099679639,156.4312164405527,153.1525939396721,203.387277048624,201.0448594410664
0.1334668001334668,29.028109192072392,40.35721510298721,171.2766718803367,178.51626842547938,155.71980400881282,153.3317552073067,204.356307958083,201.74717534502463
0.1668335001668335,21.994450865200577,34.70264085396073,171.72419214509614,180.1769034509529,155.05156725533547,153.54419512297662,205.1482256886148,202.2804269898513
0.2002002002002002,16.73732296659884,29.692795159386066,172.05140781118436,180.62073575559265,154.42498595573036,153.78595462932023,205.7744088237013,202.65542566715203
0.2335669002335669,13.192594512485115,25.359091687387767,172.26278062719695,179.94088605060705,153.8385398856072,154.05307466897602,206.24623594682447,202.8829826685321
0.2669336002669336,11.29613451907744,21.73294410609036,172.36277234172962,178.2304750472043,153.29070882057567,154.34159618458247,206.5750856414664,202.9739092855972
0.3003003003003003,10.983812002593751,18.8457660836184,172.35584470337804,175.58262345659278,152.77997253624545,154.64756011877802,206.7723364911089,202.93901680995268
0.333667000333667,12.191495979252023,16.72897128809641,172.24645946073784,172.09045198998072,152.3048108082263,154.9670074142011,206.8493670792341,202.78911653320404
0.3670337003670337,14.855055465270276,15.413973387648944,172.0390783624047,167.8470813585765,151.86370341212788,155.29597901349024,206.81755598932384,202.5350197469568
0.4004004004004004,18.91035947686646,14.932186050400546,171.73816315697425,162.94563227358836,151.45513012355988,155.63051585928383,206.6882818048602,202.1875377428164
0.4337671004337671,24.29327703025856,15.315022944475729,171.3481755930422,157.4792254462247,151.07757071813202,155.9666588942204,206.47292310932508,201.7574818123883
0.4671338004671338,30.93967714166457,16.593897737999058,170.87357741920422,151.54098158769366,150.729504971454,156.3004490609383,206.18285848620047,201.25566324727808
0.5005005005005005,38.78542882730243,18.80022409909508,170.31883038405596,145.2240214092037,150.40941265913548,156.62792730207607,205.8294665189684,200.6928933390912
0.5338672005338673,47.766401103390166,21.96541569588831,169.68839623619306,138.62146562196304,150.11577355678622,156.94513456027215,205.4241257911107,200.07998337943303
0.5672339005672339,57.81846298614539,26.12088619650315,168.9867367242126,131.82643493718135,149.84706744001713,157.24811177816628,204.97821488611103,199.42774465991084
0.6006006006006006,68.84225272691098,39.74060033088206,168.74189815467568,126.71145696511196,149.8410605169396,157.72734882867974,204.3992885720133,198.40145335498173
0.6339673006339673,91.79396327546024,53.52323922120635,166.24025623403293,121.1174206573658,149.907544267389,158.15554092255783,203.53149830812896,197.1546243642348
0.6673340006673341,112.02823424171008,66.80923167290234,164.50757565005716,113.15624621783336,149.6665873482577,158.64679621434945,203.2447806283937,196.00333655723733
0.7007007007007008,129.28805191428876,78.39915005127979,164.38664758035412,105.2406106571779,149.5678147527489,159.10958243089985,202.73500648067784,195.11414016297843
0.7340674007340674,144.65976683552066,88.54766922242491,164.8563198308528,98.20017835652828,149.00820340252218,159.19730163382093,202.6622542785625,194.77382656611104
0.7674341007674341,159.81328066007163,96.99743693897736,157.73053004358215,91.77931362039932,148.1629999878038,159.11250472853737,203.42674090712177,194.93909113246383
0.8008008008008008,171.93072440415557,104.8366481998742,157.8028455015008,87.61148766128875,147.5599040401121,158.82544384583392,203.90779996381428,195.158391060708
0.8341675008341676,180.9240072476425,110.81219971136146,156.90241322695206,86.4987156603028,146.93709286651196,158.4592675823129,204.3848221603185,195.4361293391736
0.8675342008675342,188.58789688660804,116.67792941257512,158.23998643447482,85.5781471997152,146.6171306178948,158.14378215040765,204.4763384668564,195.8541443015812
0.9009009009009008,194.36375443568903,120.4138834601317,159.92148711262158,84.74822222127486,146.80336347593794,157.88469120918586,204.0522154123161,196.3899379344602
0.9342676009342676,200.9001220077372,124.04956780175308,165.33891935090836,84.49970830967669,146.99588762159456,157.2366784494452,203.71589757650605,197.31572099208665
0.9676343009676344,197.20737295594228,126.84168676791488,169.31248132356404,84.03999949128219,146.7784550597143,156.4660926192581,204.0415268584618,198.24266195345905
1.001001001001001,193.3545957681196,120.99901056700487,172.17963768944833,78.77536662284959,146.37784078334627,155.6334190981736,204.37235276788152,199.11934159829852
1.0343677010343677,196.01214746145143,117.35514815738856,175.33290828216704,73.6329363978892,145.89374711873398,154.95155373116538,204.6238200745317,199.62893392969983
1.0677344010677343,196.7842556716707,114.96202743315702,177.0092422574351,69.52321760631055,145.3805024486017,154.07719458361288,204.82571225299523,200.1441573157344
1.1011011011011012,187.34814479172968,113.74393963481644,177.50030314696673,66.99780798397721,144.85476734079273,152.97744019919887,204.7423880146784,200.72193373397047
1.1344678011344678,178.4588508130391,112.7605868737242,177.32960374460714,66.55193983748893,144.40959112767513,151.84875123913466,204.3405930333059,201.13917410508952
1.1678345011678346,169.44171238103155,111.76454956513544,176.67044753708586,68.04274997102452,144.08718915848,150.69234971840334,203.4034396124209,201.43104341014808
1.2012012012012012,159.8639201999629,110.77850288774547,174.92230434399704,71.5616851488798,143.72091054568205,149.53723777805212,202.62965397686327,201.4708227238044
1.234567901234568,149.66747455321507,109.9675099553141,173.33571989569725,76.74522602446447,143.23908365358983,148.40802128558363,201.9812230574364,201.31729402450537
1.267934601267935,138.96135753569462,109.08151159667224,163.37320818720883,84.09879423040422,142.73130807610187,147.25218677584795,201.44114483380204,201.03476580291084
1.3013013013013013,128.57457958835843,113.7241230559054,160.947848590121,86.41007711185458,142.36479550066105,146.25003681397965,200.82464027249483,200.61756454168983
1.334668001334668,125.8615164998797,111.18593898564008,155.69164242664448,88.56846302838416,142.05073287032982,145.47764669412882,200.11359946083843,199.95262374721568
1.3680347013680347,120.86311979563555,109.62351954469956,151.35000227735182,91.4820398510774,141.86891490303944,144.94147039277115,199.19233178286407,199.03549072627024
1.4014014014014016,124.42903124338082,108.54909375076768,146.31659025576113,96.75320880464471,142.00640472827658,144.62440719887226,197.7498250702848,197.86978434281068
1.4347681014347682,127.82289978234314,108.17210926004668,140.94460386681547,102.34851550245024,142.3482426816185,144.43855010817893,196.07328691243745,196.4831753929955
1.4681348014681348,131.156356054999,108.16850275087089,135.16685422776231,107.5775149762452,143.01134906354167,144.39216811751024,194.30626551553,194.8935178676365
1.5015015015015016,134.5588576745158,108.28671432127744,128.97919370718736,113.152239492916,143.93156477470788,144.5517877732557,192.43104451074487,193.09613122070184
1.5348682015348682,137.96754393011184,118.301035454899,122.4622815596158,118.2368399161746,145.1630674052791,144.93949966241635,190.3192597573786,190.98955528462963
1.5682349015682349,141.64983901753874,138.37137812337954,115.59820717743672,123.28334559891138,146.56624713076718,145.5250547123574,188.2083189653334,188.79317799831705
1.6016016016016017,145.58941644297232,158.4419668265634,108.44615827395276,128.20200091998657,148.19526479570328,146.32850016965045,186.0037163548361,186.4498020578904
1.6349683016349683,149.97740455417846,178.7524210791228,101.05871566846164,132.6011749435163,150.15119999205763,147.17958489073834,183.9915622019968,183.7543794335474
1.6683350016683351,155.35133735275457,199.55425819201568,93.24635773433548,136.38936239480626,152.2414779399787,148.35229442050118,181.82762694195927,181.07000579025308
1.7017017017017018,161.78882404913253,220.95837348345927,85.47595088065762,139.43896961492106,154.03293429093668,149.82960296760209,180.01746872412835,178.70116184404438
1.7350684017350684,169.56659171589385,225.15061475679283,77.70690795341159,141.62692510058272,155.69202249242582,151.38975595950149,178.38620395410655,176.52185650031026
1.7684351017684352,179.38287823462312,228.539597458852,69.9001976460702,142.32613717040562,157.08543905625686,152.9730267041601,177.18277065978964,174.7082359161355
1.8018018018018016,176.5819364461858,230.5687734294823,65.13383323101279,142.66809845858435,158.15587022711992,154.61289724560507,176.8241510793884,173.48433196587064
1.8351685018351689,169.8001640660528,231.15577404390345,62.54365006823736,146.25084467104932,159.8828339961901,156.1978824898789,176.38314656365972,172.8741382816929
1.8685352018685355,161.85767431003796,230.6863247980188,60.37073504570759,149.54184818296815,161.5781426236445,157.7812296698396,176.05514017102718,172.41420550764468
1.901901901901902,152.9285038648399,229.29298943937764,58.55266244652222,152.46953593739298,163.22200506736436,159.34443007287945,175.8274818152633,172.08811544261724
1.9352686019352687,143.1866894171584,227.10833171553057,57.02700655378106,154.96233487737695,164.79463028523227,160.8689749863919,175.68752141014235,171.8794498855033
1.968635301968636,132.80626765369294,224.2649153740284,55.73134165058392,156.94867194597325,166.2762272351308,162.33635569777047,175.6226088694385,171.77179063519566
2.002002002002002,121.96127526114353,220.8953041624214,54.60324202003051,158.35697408623508,167.6470048749424,163.72806349440862,175.62009410692585,171.74871949058706
2.035368702035369,110.82574892620988,217.1320618282604,53.58028194522083,159.11566824121564,168.88717216254977,165.02558966369986,175.6673270363787,171.79381825057024
2.0687354020687354,99.5737253355916,213.1077521190961,52.600035709254485,159.15318135396808,169.97693805583538,166.21042549303763,175.7516575715712,171.890668714038
2.1021021021021022,88.37924117598861,208.95493878247905,51.60007759523151,158.39794036754563,170.89651151268174,167.26406226981547,175.86043562627754,172.0228526798831
2.135468802135469,77.41633313410064,204.80618556596008,50.51798188625159,156.77837222500136,171.6261014909715,168.16799128142685,175.9810111142719,172.17395194699827
2.1688355021688355,66.8590378966273,200.79405621708955,49.291322865414514,154.2229038693886,172.14591694858717,168.9037038152652,176.10073394932846,172.32754831427627
2.2022022022022023,56.881392150268496,197.05111448341805,47.85767481582019,150.65996224376048,172.4361668434113,169.4526911587241,176.2069540452214,172.46722358060987
2.235568902235569,47.65743258172378,193.70992411249645,46.15461202056841,146.0179742911701,172.47706013332646,169.79644459919697,176.287021315725,172.57655954489184
2.2689356022689355,39.36119587769311,190.90304885187533,44.11970876275902,140.2253669546708,172.24880577621516,169.9164554240773,176.3282856746133,172.63913800601495
2.3023023023023024,32.16671872487625,188.76305244910512,41.69053932549173,133.21056717731565,171.73161272996,169.79421492075858,176.31809703566063,172.63854076287194
2.335669002335669,26.2480378099727,187.4224986517368,38.80467799186644,124.90200190215788,170.90568995244354,169.41121437663432,176.2438053126411,172.55834961435556
2.369035702369036,21.779189819682472,187.01395120732045,35.399699044982924,115.22809807225067,169.7512464015483,168.74894507909795,176.0927604193289,172.3821463593586
