Time,Left Shoulder Angle,Right Shoulder Angle,Left Elbow Angle,Right Elbow Angle,Left Hip Angle,Right Hip Angle,Left Knee Angle,Right Knee Angle
0.0,4.98405399857196,26.03581768705884,155.3219565338886,171.81626518963654,135.46588435513945,127.22372646702152,204.80334562623497,207.46757599739
0.0333667000333667,11.14969324126617,24.517771941499262,157.77708773025626,170.8858535870601,134.11971034163702,128.27548456022274,205.46357312461743,206.9391201673675
0.0667334000667334,16.282529000768164,23.227801944294946,159.81920883320572,168.8126863429112,132.79051689559645,129.24054908583832,206.16303606078355,206.4809541293431
0.1001001001001001,20.45935212412405,22.14960611533656,161.46389341315268,165.71364396474044,131.48624799564246,130.12153617350194,206.89088567915647,206.08740096545424
0.1334668001334668,23.75695345837993,21.266882874514742,162.72671504051277,161.70560696009846,130.21484762039992,130.92106195284728,207.6362732241596,205.75278375783856
0.1668335001668335,26.252123850581903,20.56333064172018,163.62324728570178,156.90545583653588,128.98425974849366,131.6417425535081,208.38834994021616,205.47142558863345
0.2002002002002002,28.02165414777609,20.02264783684352,164.1690637191353,151.43007110160335,127.80242835854844,132.286194105118,209.13626707174947,205.2376495399765
0.2335669002335669,29.14233519700857,19.62853287977543,164.37973791122909,145.39633326285147,126.6772974291891,132.85703273731073,209.8691758631828,205.0457786940052
0.2669336002669336,29.69095784532547,19.364684190406567,164.2708434323988,138.9211228278309,125.61681093904043,133.35687457972,210.5762275589396,204.89013613285704
0.3003003003003003,29.74431293977288,19.214800188627592,163.85795385306014,132.12132030409228,124.62891286672726,133.78833576197945,211.24657340344285,204.7650449386696
0.333667000333667,29.37919132739691,19.16257929432917,163.15664274362877,125.1138061991862,123.7215471908744,134.1540324137228,211.86936464111608,204.6648281935804
0.3670337003670337,28.672383855243663,19.191719927401955,162.18248367452043,118.01546102066332,122.90265789010664,134.45658066458375,212.4337525163825,204.5838089797269
0.4004004004004004,27.700681370359234,19.285920507736613,160.95105021615075,110.94316527607428,122.18018894304882,134.698596644196,212.92888827366545,204.51631037924668
0.4337671004337671,26.54087471978974,19.428879455223807,159.47791593893544,104.0137994729697,121.56208432832572,134.88269648219318,213.3439231573882,204.4566554742772
0.4671338004671338,25.26975475058128,19.6042951897542,157.7786544132902,97.34424411890016,121.05628802456218,135.01149630820908,213.668008411974,204.39916734695603
0.5005005005005005,23.96411230977996,19.795866131218432,155.86883920963075,91.05137972141635,120.67074401038298,135.08761225187737,213.89029528184616,204.33816907942068
0.5338672005338673,22.70073824443188,19.98729069950719,153.7640438983727,85.25208678806894,120.41339626441294,135.11366044283164,213.999935011428,204.26798375380864
0.5672339005672339,21.55642340158316,20.16226731451131,151.47984204993318,80.0632458264092,120.29218876527791,135.09225701070685,213.98607884514456,204.1829344522592
0.6006006006006006,17.055266612027534,11.434416806099724,146.9244999896879,76.58736944443814,120.47451951356388,134.6673415509411,213.76273459571487,204.2410042639129
0.6339673006339673,14.396692442927408,5.3740444414472135,142.6452807649721,74.32674145369509,120.82700414799449,134.3149306222253,213.3713139626414,204.2863552489121
0.6673340006673341,13.489992097037725,1.526698161382095,138.97680566736597,73.51403979402328,121.3736594048458,133.9697564446182,212.79555424742875,204.26883661586223
0.7007007007007008,14.233301822254685,0.1555439981998434,135.70611046394913,73.89896493677169,121.91525387290774,133.40470983990795,212.187202560606,204.3326232398166
0.7340674007340674,16.44675360677289,0.6867666668418382,132.74563255825217,75.64792959710758,122.60632392176046,132.927067986049,211.3340649442005,204.1809955977888
0.7674341007674341,20.09672702544722,0.6867666668418382,130.19166265856575,78.63189167735946,123.59076036867948,132.547870035073,210.0419567035281,203.8800168903917
0.8008008008008008,25.3516520971822,0.6867666668418382,128.14380008583512,83.07719793935507,124.90581847095672,132.38650342157715,208.2722216126304,203.2781651883887
0.8341675008341676,32.36115958173001,0.6867666668418382,127.0251584520334,88.9566328697651,126.42024670510712,132.380476688529,206.3258068835784,202.49957498644372
0.8675342008675342,40.75142951242382,0.6867666668418382,126.33447589238308,96.525452601106,128.0550829856798,132.61954258548096,204.3636043343049,201.4761278005541
0.9009009009009008,50.46531697639311,0.6867666668418382,125.59585785994908,104.94581975145924,129.99263145334567,133.09880797352918,202.1121852051014,200.270228104966
0.9342676009342676,60.82205113303367,0.6867666668418382,125.4649399321999,113.2550439083756,132.0190505371291,133.77430898965304,199.9923814593926,198.89145816505572
0.9676343009676344,80.29661071304463,0.6867666668418382,125.98201398209464,121.40050706369966,134.16382420348006,134.66945842034727,197.7067534866964,197.2107316765501
1.001001001001001,98.60790084604992,0.6867666668418382,126.97136318423225,129.4939858432168,136.3681525320794,135.5959397147176,195.2288457148118,195.50369571372792
1.0343677010343677,115.6918020027804,0.6867666668418382,129.19624215696865,138.23116913127748,138.4763227812044,136.63029241947254,192.8521485136027,193.70219809398915
1.0677344010677343,131.1554374931907,0.6867666668418382,132.24692913023415,146.11562264928045,140.5142521084548,137.74884030137025,190.5047437414877,191.8379813383467
1.1011011011011012,144.19049472860797,0.6867666668418382,130.63121670917133,151.83775235531198,142.53353179033726,138.8880936997289,188.228867984394,189.9640668683593
1.1344678011344678,155.16838667285222,0.6867666668418382,127.61400630680012,156.09275819244476,144.5143018414253,140.1519108896249,186.19281145929625,188.0690143590246
1.1678345011678346,163.84455129963024,0.6867666668418382,123.20898408509476,159.29302378281173,146.39364081329197,141.46129671451013,184.33318307126467,186.14693928484888
1.2012012012012012,171.70307604098358,0.6867666668418382,117.14925707070816,161.2046590052266,148.0965422465594,142.74063966770984,182.78007636881748,184.17130750384203
1.234567901234568,178.29371867224043,0.6867666668418382,111.08812110956588,160.20023139627975,149.66403155594662,144.07026621564137,181.38023200144235,182.1671381046232
1.267934601267935,183.4002562992988,0.6867666668418382,104.63471780624116,157.98878227034598,151.15501254761037,145.4296692599349,180.15408221848085,180.16774282770572
1.3013013013013013,186.6727928438169,0.6867666668418382,97.67982765979082,154.18696050709102,152.51906866313482,146.8083498391716,179.18835975633374,178.1903614958511
1.334668001334668,188.1918335564576,3.3288043117522683,90.30395236144842,148.54529667174938,153.71978307689093,148.17654045243435,178.49250161198395,176.2772988814625
1.3680347013680347,187.6144700373892,7.82835032038878,83.24186626864238,141.74595642666964,154.59765763820835,149.59401739526578,178.07811138903003,174.56248923006711
1.4014014014014016,185.3826765621038,13.819351156175522,76.10781992559248,134.5731160454529,155.36731812451904,150.9450089365222,177.80476988125577,172.95815847860317
1.4347681014347682,181.4842922614702,20.85716972289658,68.97204371561216,127.19668371348524,156.0335075223098,152.21164018743457,177.6627997780904,171.47878644139703
1.4681348014681348,175.90715626635833,29.128899412358617,61.90476802201624,119.78656761615362,156.60096881806868,153.37603625923506,177.6425237689649,170.13885293277662
1.5015015015015016,168.6391077076381,38.89368850641869,54.97622322811927,112.5126759388451,157.0744449982837,154.42032226315584,177.73426454331013,168.95283776706975
1.5348682015348682,159.66798571617966,58.471836234441135,48.256639717236,105.54491686694648,157.45867904944288,155.32662331042908,177.928344790557,167.93522075860437
1.5682349015682349,148.98162942285276,76.30033841570217,41.81624787268101,99.0531985858444,157.75841395803428,156.07706451228688,178.21508720013645,167.10048172170832
1.6016016016016017,136.56787795852765,92.92415654935854,35.72527807776892,93.20742928092608,157.97839271054588,156.65377097996142,178.5848144614793,166.4631004707095
1.6349683016349683,122.41457045407404,108.01621292460705,30.05396071581457,88.17751713757855,158.12335829346574,157.03886782468487,179.02784926401654,166.0375568199358
1.6683350016683351,106.5095460403622,121.6060461968909,24.87252617013248,84.13337034118835,158.19805369328188,157.21448015768937,179.53451429717904,165.8383305837151
1.7017017017017018,88.84064384826192,133.39785646819945,20.25120482403733,81.24489707714267,158.20722189648234,157.16273309020707,180.09513225039768,165.87990157637526
1.7350684017350684,69.39570300864324,144.1403877589244,16.26022706084379,79.6820055308282,158.1556058895551,156.86575173347012,180.70002581310345,166.1767496122442
1.7684351017684352,48.16256265237612,153.37664890886288,12.969823263866488,79.61460388763209,158.04794865898822,156.30566119871068,181.33951767472712,166.7433545056498
1.8018018018018016,25.1290619103305,161.71450496777342,10.450223816420106,81.21260033294101,157.88899319126978,155.46458659716092,182.00393052469968,167.5941960709199
1.8351685018351689,0.2830399133765908,168.82893929269042,8.771659101819381,84.64590305214199,157.6834824728877,154.32465304005297,182.683587052452,168.74375412238243
1.8685352018685355,-26.387664207615845,174.54901946359857,8.004359503378907,90.08442023062192,157.43615949033006,152.86798563861896,183.36880994741503,170.20650847436525
1.901901901901902,-54.89521132177671,178.79495506387633,8.218555404413294,97.69806005376772,157.15176723008494,151.07670950409113,184.04992189901964,171.99693894119622
