Time,Left Shoulder Angle,Right Shoulder Angle,Left Elbow Angle,Right Elbow Angle,Left Hip Angle,Right Hip Angle,Left Knee Angle,Right Knee Angle
0.0,27.21940410411588,37.96372211659549,149.92685553634456,167.21546565988507,142.92886881603172,140.00724474095577,194.8613222808431,196.3840293679177
0.0333667000333667,27.182280733666456,38.98051589239623,151.10961679123128,168.19496054287657,143.09874114872576,139.66554025414897,195.45406374875097,195.99706261354712
0.0667334000667334,27.252618686878662,39.917841140893536,152.28282044761318,169.10188463526208,143.23577872774254,139.34891875958516,195.92877940666773,195.6276421244994
0.1001001001001001,27.421720081600363,40.77659130160737,153.44510312767554,169.9360741506972,143.34111559511882,139.05794231680142,196.2929731450503,195.275234350792
0.1334668001334668,27.680887035679422,41.55765981405763,154.59510145360363,170.69736530283743,143.41588579289146,138.7931729853348,196.5541488543555,194.9393057424421
0.1668335001668335,28.021421666963715,42.261940117764254,155.73145204758276,171.38559430533834,143.4612233630972,138.55517282472232,196.7198104250402,194.61932274946705
0.2002002002002002,28.4346260933011,42.89032565224717,156.85279153179823,172.00059737185546,143.47826234777284,138.3445038945011,196.7974617475613,194.31475182188407
0.2335669002335669,28.911802432539453,43.4437098570263,157.9577565284353,172.54221071604437,143.46813678895515,138.16172825420816,196.79460671237564,194.02505940971056
0.2669336002669336,29.44425280252664,43.92298617162157,159.0449836596793,173.0102705515606,143.43198072868094,138.00740796338053,196.71874920994009,193.74971196296377
0.3003003003003003,30.023279321110508,44.32904803555292,160.1131095477155,173.4046130920597,143.37092820898698,137.88210508155532,196.5773931307116,193.488175931661
0.333667000333667,30.64018410613895,44.66278888834026,161.16077081472918,173.7250745511972,143.2861132719101,137.78638166826957,196.3780423651468,193.2399177658196
0.3670337003670337,31.286269275459823,44.925102169503525,162.18660408290566,173.97149114262868,143.17866995948702,137.72079978306033,196.1282008037028,193.0044039154567
0.4004004004004004,31.952836946921,45.11688131856264,163.1892459744302,174.14369908000967,143.0497323137546,137.68592148546463,195.8353723368364,192.7811008305897
0.4337671004337671,32.631189238370325,45.23901977503753,164.1673331114881,174.24153457699572,142.90043437674956,137.68230883501957,195.5070608550044,192.569474961236
0.4671338004671338,33.3126282676557,45.29241097844812,165.11950211626467,174.26483384724236,142.73191019050876,137.71052389126217,195.1507702486637,192.36899275741268
0.5005005005005005,33.98845615262496,45.277948368314334,166.04438961094516,174.21343310440517,142.54529379706892,137.77112871372952,194.7740044082712,192.1791206691372
0.5338672005338673,34.64997501112599,45.19652538415611,166.9406322177149,174.08716856213968,142.34171923846688,137.86468536195864,194.3842672242837,191.9993251464268
0.5672339005672339,35.28848696100692,45.04903546549372,167.80686655876048,173.88587643410293,142.1223205567405,137.99175589548773,193.98906258715965,191.8290726393003
0.6006006006006006,36.03528666999216,44.80235055921013,168.9435829173862,173.4501751137015,141.77478093476424,138.20253462337226,193.7941245443949,191.72766479492407
0.6339673006339673,36.54195309049883,44.529585677742254,169.9514263742678,172.97076706417286,141.62048255737477,138.44368349166717,193.40613646300852,191.5434166226043
0.6673340006673341,37.02746336542916,44.37097269975047,170.2785546584988,172.64751133803935,141.4897575333715,138.63647664983412,192.98720854619432,191.39839622696985
0.7007007007007008,37.30165722854258,44.10163576689288,170.03276423658895,172.2397064667028,141.33081544731806,138.87800455008056,192.6159688620423,191.2809516685538
0.7340674007340674,37.37662055523548,43.70426794609557,170.42159413190544,171.74812765012044,141.13148171612465,139.20191530793377,192.31084854218244,191.19116901957187
0.7674341007674341,37.64405339735248,43.18096629318867,170.8360749633366,171.13717719234438,140.83887713817188,139.577928000404,192.1124832953412,191.06437797382543
0.8008008008008008,37.93724549237365,42.76109478350191,171.357094463837,170.7577966865082,140.45358587214557,139.9667426757475,192.0567778169641,190.94602273774544
0.8341675008341676,38.13675932834747,42.16287212233335,172.23640297947918,170.16187997576475,140.0417464286644,140.4213076255295,192.0652559505705,190.79377625838893
0.8675342008675342,38.32318495431012,41.447513133312825,173.22595757964663,169.44186506272212,139.64619456242664,140.92460041804372,192.1029479379676,190.64650833251773
0.9009009009009008,38.33311784385115,40.53959013126197,174.1655562866651,168.46411133152804,139.22376317172834,141.45800566526384,192.19324864792392,190.50570799359147
0.9342676009342676,38.19903967646388,39.59734110246056,174.14621750968112,167.31921949355518,138.77702095846956,142.00798079279224,192.33868182712143,190.389693817893
0.9676343009676344,38.01639935403808,38.49332150347024,174.42965147486044,166.05435257256124,138.33166843330082,142.58719953061666,192.50635780821133,190.28434588602784
1.001001001001001,37.98511362336481,37.1889273096182,174.69960476563827,164.52640341342715,137.87729300148598,143.1702623926515,192.7086659046148,190.20346740012184
1.0343677010343677,37.80366060818292,35.70503272768274,175.6185440370068,162.73896005820984,137.38887240901198,143.7362430968125,192.93774893257543,190.13492541748744
1.0677344010677343,37.20689453729448,33.97987551517841,177.0351137014808,159.8011469803628,136.86937517642244,144.28448154272962,193.192073407772,190.08488958455752
1.1011011011011012,36.255150028716926,32.08344764711653,178.5881163209703,156.9604195300509,136.3038810158994,144.82164131961062,193.5023206572748,190.0509251513536
1.1344678011344678,34.859469278755974,30.27487774629275,180.12502022124954,157.54232779164596,135.75435131376514,145.37979808033455,193.8094045386233,189.9892439012448
1.1678345011678346,33.347852816959374,28.430892511437342,181.76170953845264,157.4566470755606,135.2103611808535,145.92372457725196,194.13829948244324,189.92497405992256
1.2012012012012012,31.282050808439383,26.023514644081143,185.5193353617097,157.11226501507025,134.69152244272175,146.44873801412777,194.4770719087627,189.86903715183823
1.234567901234568,29.277015637889136,23.63136724445497,188.77520851122628,156.05422280976902,134.10415987987872,146.9015117526587,194.8679569924648,189.84944486841337
1.267934601267935,27.377332628714296,21.17028980509373,191.0626790885153,153.83936734769978,133.51158834580897,147.33174390540364,195.27653074495248,189.8131697061387
1.3013013013013013,25.69185945381736,18.83399654358083,192.84871143364768,150.12105028964797,132.90399185708858,147.73522910955944,195.7103045700865,189.73521064013292
1.334668001334668,24.184350132005115,16.90511951169745,194.4612805304241,147.60294019629123,132.280782831849,148.0627053824319,196.1787951846417,189.66363547795936
1.3680347013680347,22.81388747554273,15.235709936246325,195.4729787415312,144.73237382656956,131.63076485627278,148.36300130557774,196.64859069814585,189.5679097669485
1.4014014014014016,21.3416382359289,13.690240593022423,195.96840394981515,141.31973018647284,130.99496840491406,148.67924901476923,197.11890341738987,189.43895559224725
1.4347681014347682,20.17661721666004,12.308061468444066,196.1174071206233,137.49917792508444,130.35737268896565,148.94470508663122,197.6151097245541,189.28999023075912
1.4681348014681348,9.736142710246217,11.089439943415268,195.484609401738,133.28829960063126,129.72353269164574,149.09998631367847,198.11088414152988,189.14065396929132
1.5015015015015016,2.601484843013816,10.168428721171388,194.4802454711725,128.9272654294622,129.14172113924178,149.21272746523783,198.5911671525525,188.99362614766463
1.5348682015348682,2.601484843013816,9.2470716375442,193.2184376456334,123.828626735142,128.63807439348793,149.2612555767207,199.02220429912987,188.8686743949948
1.5682349015682349,2.601484843013816,8.385458131743494,191.68184926941387,117.87158194159493,128.10969637915562,149.2573892896677,199.48731198621013,188.7910697529811
1.6016016016016017,-1.294323582635064,7.09844162354819,189.6953185973264,111.48151117025353,127.61833975922276,149.15484624818558,199.9221247496524,188.75380589008543
1.6349683016349683,-2.343401976153733,6.388967821618027,187.3856980902683,105.72834785204884,127.16687494328436,149.02478084958096,200.38976061718984,188.7427131481946
1.6683350016683351,-0.5131323284982496,6.524610376849287,184.89320734324613,98.97942529711418,126.78091822080566,148.82997278421325,200.8471659512448,188.7735589259316
1.7017017017017018,3.732142507700603,7.170039614230518,182.26065705341765,94.8504563300836,126.43207211552011,148.60155125042115,201.34307314620187,188.7925164102003
1.7350684017350684,3.732142507700603,8.222376041633822,179.58056147723087,91.65338044835676,126.1329461077228,148.33269116981097,201.8590019089068,188.8156683593997
1.7684351017684352,3.732142507700603,9.6103630535761,176.70941162088474,88.19955848370834,125.78722032305224,148.0413515417161,202.4696827396445,188.8552162218185
1.8018018018018016,3.732142507700603,11.507054339810518,173.6138091188284,86.99684218388846,125.44538084446154,147.70070281904455,203.12342339090137,188.9083096571133
1.8351685018351689,3.732142507700603,13.626673621804583,170.547430387016,85.84308549874157,125.10183640978016,147.43946218610827,203.8601432620832,188.9308281351045
1.8685352018685355,3.732142507700603,15.9518949260779,167.47249183422514,84.88944496334595,124.75774375165388,147.21779680930376,204.6821626096828,188.92312431126248
1.901901901901902,3.732142507700603,18.502922220537467,164.83542781860015,84.0027612845248,124.42461179741956,146.9938524040955,205.5290099291075,188.91879576212224
1.9352686019352687,3.732142507700603,21.28554802388352,162.5171851921185,83.2312429813334,124.13573001088172,146.7052555820808,206.3763838805117,188.9740206975884
1.968635301968636,3.732142507700603,23.964331886497504,160.3224422910733,82.13479929939908,123.9037619931138,146.42832304784753,207.182896454242,189.05178771665595
2.002002002002002,3.732142507700603,26.70912093900281,158.08329528626004,81.12513086229924,123.72467817718956,146.184754855317,207.9708556980468,189.11167318304692
2.035368702035369,3.732142507700603,29.44697521861169,155.77150849260596,80.1520268601305,123.54616833836596,145.99685856206025,208.7621373724513,189.13954460897932
2.0687354020687354,3.732142507700603,32.04401374239819,153.47297674190213,79.32653257270246,123.3403008191178,145.88068643795248,209.625004587965,189.11796111549427
2.1021021021021022,3.732142507700603,34.52470686700371,152.39878055599524,78.67442047194275,123.1339663077927,145.8133841745005,210.48393519671205,189.09441402050467
2.135468802135469,3.732142507700603,36.89369775670456,151.961415386131,78.12595572694177,122.94170663101649,145.93920105509105,211.29816402564128,188.78685308310423
2.1688355021688355,3.732142507700603,39.14910837840791,152.45439616967226,77.77781631509049,122.76200310795224,146.0864485802748,212.06372630788468,188.54237789990296
2.2022022022022023,3.732142507700603,41.7732331728466,153.3566451473144,78.22194404569254,122.63900924436034,146.36515414491492,212.70426438172257,188.2160787014212
2.235568902235569,3.732142507700603,44.32454797811928,154.45391783795012,80.40324426762609,122.556718129019,146.63670131373516,213.2596899253573,188.01254156368947
2.2689356022689355,3.732142507700603,47.082541284304895,156.0149312903605,83.68517204437372,122.59249193957776,146.9679241485305,213.6787929391909,187.9408819677028
2.3023023023023024,3.732142507700603,49.11287193857215,158.10228439441826,83.3265995643954,122.65112542492372,147.20750839803634,214.0711766066883,188.09149737855367
2.335669002335669,3.732142507700603,51.08002540048044,160.8226516616833,82.7155554474107,122.75807855046672,147.45325992191107,214.44843465018425,188.3083438917205
2.369035702369036,3.732142507700603,53.02956973994849,161.1658633195868,81.17942950581092,122.84247830328916,147.563409187923,214.8370743488356,188.7024608036488
2.4024024024024024,3.732142507700603,54.73541785883617,161.46447164145167,79.33981556619969,122.85274642646364,147.5070459412172,215.24905214425823,189.2808456522669
2.4357691024357693,3.732142507700603,56.15034860601354,161.8609990371807,77.68413732372754,122.8046381496828,147.27175728100576,215.62972305592768,190.0630790926668
2.469135802469136,3.732142507700603,55.90457467840674,161.9756630712847,74.56128742151604,122.68373268272916,146.99011832554675,215.9992861064511,190.99915597700976
2.5025025025025025,3.732142507700603,55.206069129377305,161.37221718591968,71.57954792893645,122.56215905938676,146.6108302819681,216.28600685686533,192.06448208662985
2.5358692025358693,3.732142507700603,55.66063104113666,160.5583236203753,68.84624166145863,122.41833143026008,145.98779775984315,216.4719224758332,193.26268256343047
2.569235902569236,3.732142507700603,55.59292983748235,159.43490324359954,66.08056308345428,122.3020998732496,145.143659182422,216.5628337559409,194.60166779536328
2.6026026026026026,10.3318036256153,55.0480782167343,152.70721568263295,61.907890956023664,122.16124228237952,144.13719529090017,216.51805946373267,196.0498934458451
2.6359693026359694,18.969510047050804,53.83404155212168,147.30413243925832,57.93402793274444,122.09860598096456,143.12430806053723,216.3488891510749,197.5467929769414
2.669336002669336,29.463908485806083,51.810389601732616,145.87742015493532,54.06160200551116,121.9959651264377,142.13169619504228,216.0577221270814,199.07719065289265
2.702702702702702,41.58448676431925,49.56700991252629,144.6808537398201,51.42408046737975,121.97561827930052,141.11782269313144,215.67109270740227,200.61726205510595
2.736069402736069,55.2122158384406,46.75424526991641,143.73598937205972,50.178916104903216,122.00073417738216,140.1573344738554,215.19969594951465,202.19627702319545
2.7694361027694363,70.02638646254545,44.47830301707207,143.13302990736037,50.34815355398154,122.1307176323266,139.25858461686224,214.65572364911188,203.718300460259
2.802802802802803,85.9361972065074,42.09126951596467,142.71611840103753,51.04174141918037,122.3084853395946,138.40980751347115,214.15468067892,205.353968931878
2.836169502836169,102.658077285241,39.41849191285715,142.58083963676972,54.74949473953539,122.78047665661268,137.58353105746056,213.4554104334345,206.8896151287457
2.8695362028695364,120.00137516305392,36.25054187972889,143.75518460684168,57.07148104747275,123.23801364641236,136.65468755567193,212.67934798816452,208.4323340786252
2.902902902902903,137.6357036947652,33.17989482929975,144.8354506732623,59.81632847234568,123.71501564353892,135.8183660345752,211.8686879845181,209.80002998393056
2.9362696029362696,155.47077144099484,29.53932426376035,146.42585639187322,63.43597895595583,124.22167265367764,135.08286537144366,211.06013713539167,211.09375051700547
2.9696363029696364,173.10935777083142,26.11137960484836,148.19629526638573,66.24870401910043,124.8198376094763,134.44004643992048,210.17500649274552,212.1946922116728
3.003003003003004,190.4476713864417,22.83999159860654,149.58675372282067,69.45676639138034,125.48011446477098,133.9982935013404,209.28023778344075,213.1075509647721
3.0363697030363697,207.21912553833704,20.081581619216823,151.02839592248404,73.20742205010953,126.277463061435,133.5800905631191,208.32209816964783,213.82817694742835
3.0697364030697365,223.23009913003324,17.596308596794533,152.457336107496,77.42496087119994,127.10351337640527,133.24387692441758,207.3854800852692,214.33623439555683
3.103103103103104,237.92586034216288,15.597942063425366,153.98735383057465,82.30397161402396,128.0140896859148,133.09334604735346,206.41744639589407,214.53273958623308
3.1364698031364697,251.20296546751385,13.99328607936905,157.03688297633462,88.52688836639021,129.02680548695454,133.15676846407365,205.3686076609129,214.41341557455848
3.169836503169837,263.29171847787313,12.935215793354098,159.69482675704148,94.27655054893292,130.1158152473936,133.36551366310783,204.2782020350761,214.00288386931257
3.2032032032032034,273.8200653293404,12.535367996217712,162.1974620662667,105.72182561854328,131.22769829151596,133.84052024129218,203.14717370087763,213.3606105205996
3.2365699032365702,283.0429412435945,12.891554840961538,164.0402023835438,115.29859827697612,132.43120796499727,134.34485629743313,201.9046521041656,212.4874506538013
3.2699366032699366,290.3079387876488,13.958290127179556,165.44954996235867,123.597485370004,133.71696591354348,134.995714106778,200.59932528606404,211.2877649226328
3.3033033033033035,296.3911234566696,15.658499298753382,166.31367512556463,130.36433678279337,135.06390350440228,135.53852172313535,199.27689517585424,210.212400964261
3.3366700033366703,310.8333004112972,17.630357544375606,166.89370255327657,135.49866374492527,136.48843145547647,136.05760869831755,197.9300009277779,209.05642322747275
3.3700367033700367,320.4938762149976,19.46855789265036,166.67269996453243,138.81115804225203,137.92960511067724,136.42372583874976,196.65006029531972,208.04557187773105
3.4034034034034035,325.4056205150912,22.591360915925563,165.88547074625933,140.04268482190807,139.3111921628546,136.72883961811002,195.5491898825443,207.02697210066745
3.4367701034367704,325.2521531839406,25.46670175629061,164.33959461976548,139.53941959530292,140.58537303899388,136.88157373043776,194.5918055513084,206.003871641344
3.4701368034701368,320.82960256916425,27.93131918184158,162.1885308027595,138.33085538367746,141.77224939380577,137.0072418718183,193.72508213554065,204.8845228238551
3.503503503503504,311.3633696852749,29.459763856009104,159.02824156981234,135.98054702312112,142.8141126498001,136.94483784019394,192.9560230701356,203.9105823846853
3.5368702035368704,295.8184602641346,32.08160387822257,155.50885014345087,130.24424052066578,143.6812623108945,136.7207618437824,192.34591581244536,203.1170643307613
3.5702369035702373,288.01157099111094,33.27227038566261,150.60336459475093,122.73763905556606,144.46082454628365,136.46725201762447,191.7738398785236,202.40655318206896
3.603603603603604,278.39425780150094,26.087807209016024,144.83753196420793,112.1919665256328,145.2206108851261,136.15734348244132,191.0922060397972,201.7565083790325
3.6369703036369705,267.3075014507766,22.888285925929672,137.52163740264524,105.23366568282216,145.95525744727388,135.7122791314266,190.35310725176004,201.15748171424087
3.670337003670337,255.0567190062355,22.854141584125973,128.9282556497467,97.2380010718984,146.48756305597593,135.12495655199874,189.8714607671143,200.6728294518676
3.703703703703704,241.62358211847487,23.308745503902443,112.36637913994046,89.54041488454959,146.9246209986566,134.66639543649805,189.5384435434069,200.20830016703408
3.737070403737071,227.20376597643852,25.44269335795744,101.80778311052606,82.33236946293869,147.1261139845075,134.22548315747713,189.46805661519292,199.8413166564166
3.770437103770437,211.98132413184885,28.750777361420404,98.7414857451436,77.53821078011525,147.32013812029464,133.9482247900635,189.44095707705512,199.5002055936708
3.803803803803804,196.791691904869,33.6439835547702,95.28362486176528,73.36975486796047,147.46090421890122,133.75982765953194,189.40237482985003,199.23096337320084
3.8371705038371706,181.217251418711,39.89026819431552,90.3407348309924,70.3666003183581,147.73511668810517,133.6804175225199,189.3292368116812,199.017715978252
3.8705372038705375,166.51615433592934,47.14532203534516,86.5367009586927,68.65767796281669,147.96003028007098,133.64412647857694,189.3057952635499,199.03428409391904
3.903903903903904,151.43129751668718,55.7593257145744,83.56371340845561,67.31775601056424,148.26848598537563,133.67848342249988,189.2322686287812,199.03033148752536
3.937270603937271,136.5614689624072,65.45080642455191,81.79804015764411,66.49851802022678,148.576115024212,133.76571017438368,189.17832109705665,199.18602575237333
