Time,Left Shoulder Angle,Right Shoulder Angle,Left Elbow Angle,Right Elbow Angle,Left Hip Angle,Right Hip Angle,Left Knee Angle,Right Knee Angle
0.0,24.20710162344483,33.64100678381778,162.3083111550667,160.10939706682552,140.25031713973848,141.01478088130932,207.56444392590555,206.9009068689263
0.0333667000333667,24.87189732022136,33.87648512168068,154.73844566049914,159.48960838486298,139.49199409265842,140.4202388362488,208.22545356830392,207.166106876476
0.0667334000667334,25.465883051988246,34.08015405101595,148.33634469768404,158.97362219512115,138.8373239971322,139.89487844612563,208.7782158468363,207.4117816995331
0.1001001001001001,25.99274091218897,34.25361183270677,143.03404555338477,158.55400816535138,138.28074946243132,139.43529983809728,209.22893866690063,207.6383531404196
0.1334668001334668,26.456152994266983,34.3984567276363,138.76358551436476,158.22333596330506,137.81671309782732,139.03810313932132,209.58382993389483,207.8462430014576
0.1668335001668335,26.859801391665734,34.51628699668775,135.45700186738736,157.97417525673356,137.43965751259168,138.69988847695527,209.8490975532169,208.03587308496893
0.2002002002002002,27.20736819782868,34.60870090074428,133.04633189921603,157.79909571338823,137.14402531599595,138.4172559781567,210.03094943026468,208.20766519327563
0.2335669002335669,27.50253550619928,34.677296700689084,131.4636128966141,157.69066700102047,136.9242591173116,138.18680577008314,210.13559347043625,208.36204112869973
0.2669336002669336,27.74898541022099,34.72367265740534,130.640882146345,157.64145878738165,136.77480152581018,138.0051379798921,210.16923757912943,208.4994226935632
0.3003003003003003,27.950400003337258,34.74942703177623,130.51017693517215,157.6440407402231,136.69009515076317,137.86885273474115,210.13808966174227,208.6202316901879
0.333667000333667,28.11046137899155,34.75615808468493,131.0035345498589,157.69098252729623,136.66458260144208,137.77455016178783,210.04835762367264,208.724889920896
0.3670337003670337,28.23285163062731,34.74546407701462,132.05299227716867,157.77485381635242,136.69270648711844,137.71883038818967,209.90624937031853,208.8138191880093
0.4004004004004004,28.321252851688,34.718943269648484,133.59058740386487,157.888224275143,136.76890941706372,137.6982935411042,209.71797280707787,208.88744129384995
0.4337671004337671,28.37934713561708,34.678193923469706,135.54835721671088,158.02366357141935,136.88763400054947,137.70953974768895,209.48973583934864,208.9461780407398
0.4671338004671338,28.410816575858,34.62481429936147,137.8583390024701,158.17374137293288,137.0433228468472,137.74916913510148,209.2277463725287,208.9904512310009
0.5005005005005005,28.419343265854213,34.56040265820695,140.45257004790597,158.3310273474349,137.2304185652284,137.81378183049932,208.9382123120161,209.02068266695525
0.5338672005338673,28.40860929904918,34.48655726088933,143.2630876397818,158.48809116267682,137.44336376496457,137.89997796104,208.62734156320872,209.0372941509248
0.5672339005672339,28.382296768886576,34.40487636829207,146.22192906486234,158.63750248641134,137.67660105532838,138.0043576538823,208.30134203150624,209.0407074852332
0.6006006006006006,28.368050403238804,34.31766073126225,148.30678386110864,158.73646908676798,137.92536642136977,138.0835852947638,207.9812010838937,209.02961500306043
0.6339673006339673,28.330501732486866,34.232340139895086,150.76610669276783,158.77312173731275,138.1751463551042,138.17129223686928,207.6642511747852,208.99803833834684
0.6673340006673341,28.261612449660795,34.172638053412385,153.40726917685896,158.7741517810144,138.39785504805533,138.23846218568892,207.38053521484983,208.9425438925659
0.7007007007007008,28.199417207562576,34.11808527631032,156.359813164625,158.7216967631345,138.59969601803618,138.32758555623545,207.12712972399507,208.86687196441352
0.7340674007340674,28.111249957200705,34.04082719669843,158.81378433305912,158.556901600989,138.79371172778238,138.45111297667498,206.8756760807483,208.7888137178172
0.7674341007674341,28.035401639420225,33.94020644469009,161.34965236491016,158.302833194954,138.9933155430252,138.582056061731,206.6064869645499,208.71704879629755
0.8008008008008008,27.98291935615696,33.84191192202565,163.45010970330495,158.01657615391858,139.20557001979066,138.71531916210952,206.33245260784904,208.6516494186491
0.8341675008341676,27.978783884112502,33.753533886627565,164.03907490295484,157.72104885926862,139.40596619295076,138.8569212579465,206.0849123929638,208.5860046171703
0.8675342008675342,28.042809403873623,33.68061231797295,164.62090943763383,157.39747973613632,139.5682851056194,138.96628245713333,205.89535433910177,208.55505798034807
0.9009009009009008,28.14897511450605,33.60207223382065,164.8237754606127,157.0360559788615,139.6890506603411,139.07252218380717,205.75515422595748,208.5260081372734
0.9342676009342676,28.30795279645258,33.6441516896995,164.0226527219682,156.8531262581988,139.75449523525603,139.1644289780531,205.6465084741927,208.5269723263938
0.9676343009676344,28.578692139210155,33.70287061602406,162.61078564450466,156.6798959286987,139.7647864391643,139.27563513201156,205.5962365731819,208.50453604808976
1.001001001001001,28.901654336190926,33.83374006030932,162.46094513958175,156.61216088954708,139.76550507608067,139.37160924630209,205.59594223286268,208.50197585579696
1.0343677010343677,29.23918412192202,33.89729330158981,163.48673183639704,156.50425031893067,139.75475354370167,139.52444722603255,205.59568618086595,208.45824642372145
1.0677344010677343,29.66097751205904,33.9563066894391,164.78523504617252,156.62943298152678,139.78485601281662,139.73681772588557,205.5403427171454,208.34968988772192
1.1011011011011012,30.09031000652824,33.929249306169424,166.12682755422674,156.63491952356998,139.8096631104141,140.00342824061,205.4892522893452,208.16836729280564
1.1344678011344678,30.59378315602705,33.843932700993335,166.6668063915656,156.3031344193273,139.72273462088913,140.30036003684688,205.5224667184285,207.9190779385209
1.1678345011678346,31.098622679301663,33.66722482835049,167.51040696752727,155.79290671918216,139.59346616333238,140.64809318292757,205.60119262971128,207.6041135466633
1.2012012012012012,31.56827910124024,33.44524493275182,168.7600414483341,155.23351580441727,139.47484509759337,141.04495924947886,205.7205216963037,207.231269623472
1.234567901234568,31.980171139276266,33.13387298194058,170.33478283665616,154.59026606598067,139.33748620602478,141.48501115541674,205.87989260429737,206.8105350749333
1.267934601267935,32.36925753263463,32.681018733642176,172.14863297037476,153.829309839458,139.17462646633862,141.9550638190953,206.0847691536983,206.3516572399668
1.3013013013013013,32.68494716623773,32.08243781671008,174.1418798137362,152.95293193120455,138.98454195177754,142.45431177538114,206.3342770581979,205.8730328687823
1.334668001334668,32.98694165965007,31.39500249272425,176.1610522340414,152.1884113490738,138.7919209058685,142.97222987211586,206.59076751515627,205.37831343843976
1.3680347013680347,32.96134897974413,30.65726799186266,175.59710381737224,151.38579621951033,138.59419613008257,143.50553407465085,206.89574603428764,204.8683428457892
1.4014014014014016,32.908687334193864,29.90231753175478,176.49485250759625,150.5489015743508,138.38407210603444,144.043372520885,207.24580772996129,204.3433099348415
1.4347681014347682,32.87798967161606,29.09726347330226,178.5178426977585,149.66001060487946,138.19045413991606,144.6010774434771,207.58061399967784,203.8061266795396
1.4681348014681348,32.90069177187383,28.1941080237056,184.8808962336061,148.61996867936836,137.9411772089808,145.14794390088113,207.93612233734177,203.2728007074349
1.5015015015015016,32.50026957094705,27.25993359483643,191.4777997766545,147.63256826595648,137.6909096713732,145.70869657791025,208.31490797592664,202.72704947490092
1.5348682015348682,31.99324352272798,26.29205402752837,194.1319157045532,147.38385820282946,137.42243012554002,146.26396901595754,208.7230563067783,202.19078248026744
1.5682349015682349,31.35138936991351,25.3283640390971,197.81624690714887,146.73961811564695,137.16301598902106,146.78559672622495,209.1474528885596,201.6963441455657
1.6016016016016017,30.71391514353096,24.280571713975707,198.96862704168103,146.8317497600712,136.90478832528362,147.29218465950262,209.550450390553,201.2132893734151
1.6349683016349683,29.850448567193187,23.288282674478296,198.16524413454,146.25770710458252,136.70048641680364,147.80031137469223,209.92521852554972,200.7141939278065
1.6683350016683351,28.121686335074404,22.332512699983464,188.59323154007868,144.58924686729216,136.5946992137313,148.29192746216884,210.30230077195856,200.2207682039568
1.7017017017017018,26.21981712979669,21.308039759496825,180.4158971412095,142.06849344924402,136.51305502069013,148.77475705333666,210.6796857268701,199.73521373968185
1.7350684017350684,23.836274323395724,20.365384292175875,175.38025127191054,139.4195229794272,136.4615777067056,149.24337866223104,211.05807283394967,199.26565497242743
1.7684351017684352,21.684778347269194,19.57114153361095,170.41030234485373,136.5276563989805,136.42919083772088,149.74973662843342,211.43520114786097,198.81238508110297
1.8018018018018016,19.53571549342974,18.894792391266392,165.55084573003154,133.52738868683582,136.408127883626,150.24328374371092,211.80733019785896,198.39168825757812
1.8351685018351689,17.637642288245747,18.378857361492496,160.8236906214822,130.54807878687166,136.36927038746506,150.74540819335112,212.15300709761829,198.02108390068875
1.8685352018685355,15.718927140959837,18.798973813512085,156.17147436192357,128.31258639533544,136.36648349605633,151.19537302710836,212.45869704193387,197.74588072727923
1.901901901901902,14.412622062040764,18.690139465871265,151.86849500641168,125.87224503934868,136.40232240961834,151.59278516686692,212.7634330778321,197.53730462956784
1.9352686019352687,4.945221428167491,18.265843735406087,147.9414876917856,126.21655797517025,136.46809114380525,151.99388867336873,213.0961595176655,197.3738230387042
1.968635301968636,4.945221428167491,17.894721042708962,144.201902815012,125.0024834214762,136.536157208446,152.3514012093928,213.4630468400584,197.24865956339016
2.002002002002002,4.945221428167491,17.583446629568392,140.66954488872832,124.14195800063231,136.64240655588495,152.6553953273385,213.84061161634608,197.17018787779
2.035368702035369,4.945221428167491,17.680774038540246,137.4055400716937,122.65105016027418,136.77981902445975,152.94833542027212,214.20888509352253,197.0848233252092
2.0687354020687354,4.945221428167491,17.795170632363753,134.33732528737585,118.9832605889605,136.94040685559258,153.19117387687206,214.5739271972031,196.99942477747803
2.1021021021021022,4.945221428167491,17.955670052634613,131.67518071096703,114.89270118328665,137.12881772964647,153.41888298130272,214.9612353293051,196.86850498711817
2.135468802135469,4.945221428167491,18.22376188084774,129.3899942560331,110.0135491986508,137.38421651024763,153.60987145630386,215.3517926535888,196.71750653913864
2.1688355021688355,4.945221428167491,18.704284259060906,127.3694384778079,105.0759832509362,137.63986231044862,153.83288159759758,215.73947252932905,196.48776365774387
2.2022022022022023,4.945221428167491,19.014886292811507,125.58077762619672,99.88723447497398,137.87067669256598,154.0366490449164,216.1142920505862,196.2202085200321
2.235568902235569,4.945221428167491,19.42804806349915,123.98999112729524,94.42904978821694,138.0051581866693,154.23405973623946,216.56736592255336,195.9381146844811
2.2689356022689355,4.945221428167491,20.07028374590019,122.40037095417564,88.84985804999641,138.07510853060165,154.42569657988557,217.082942838216,195.6446908251144
2.3023023023023024,4.945221428167491,21.01287666142422,122.38824536398464,83.76407321153681,138.19374770938762,154.64247314304518,217.57574826747603,195.34283198935643
2.335669002335669,4.945221428167491,14.418469072345143,123.2414382472623,78.59376278459939,138.2964501133951,154.86492778440825,218.0688817363529,195.0453440257224
2.369035702369036,4.945221428167491,10.671451923477251,124.86698622843812,73.9492408511255,138.3405116976205,155.08032359600122,218.5495925028522,194.7570823523256
2.4024024024024024,4.945221428167491,9.403601706950443,127.3185144672109,70.0506639072865,138.35959511181247,155.28106211764418,219.01693880287843,194.48395360784272
2.4357691024357693,4.945221428167491,10.50343382490912,130.70462946633765,66.92338982328471,138.36018670332282,155.47616932028336,219.46170364019068,194.22592261021185
2.469135802469136,4.945221428167491,13.8581777603255,135.02585812190893,64.79262035716593,138.33780763579122,155.64561937814815,219.86215722878123,193.9807168678596
2.5025025025025025,4.945221428167491,19.160211224953965,140.50500785680717,63.239034343546365,138.26913170777266,155.80462031896178,220.2584823954244,193.74811951322647
2.5358692025358693,4.945221428167491,26.28395286580916,147.16232183550343,62.263838350771714,138.16357482039476,155.94761282224164,220.6493549669132,193.5318374066575
2.569235902569236,4.945221428167491,34.9704868719624,154.39883453537178,61.90373766004618,138.0200677773271,156.0856788930886,221.0246161361782,193.33546106381056
2.6026026026026026,4.945221428167491,45.06406071768147,162.22682592096834,62.076248020122826,137.84532649500414,156.21141568685016,221.36946117876616,193.1623420324793
2.6359693026359694,-1.2308102968177836,56.47947047602837,165.0524054102053,62.97447831324387,137.7174596922618,156.35650102824712,221.6633969724417,192.99932406911108
2.669336002669336,-4.225189841542031,68.86624173385404,164.8381610200661,64.67529427484953,137.59214962776545,156.50792384365982,221.89836718991523,192.84633736646967
2.702702702702702,-4.477113326818567,82.12007826993562,165.81028564372212,65.98011289017796,137.4842004087864,156.6627657877013,222.07549189263548,192.7039140163733
2.736069402736069,-2.214703664887056,96.09134170738642,162.92757968397856,67.70081516120376,137.34415883843187,156.82916732379067,222.2001241774809,192.5601371575025
2.7694361027694363,2.32842187379165,110.74360437313744,158.9597719550326,68.36740145142366,137.26026053810762,157.00352155075407,222.29990318523485,192.43416067521028
2.802802802802803,2.32842187379165,125.88907721607184,153.5294806193501,69.10277300075657,137.14348579144442,157.18324283751284,222.3962746559971,192.33434099900225
2.836169502836169,2.32842187379165,141.2457501643373,156.1467116675069,70.71329541545052,136.99765613270898,157.38748842287518,222.46974643755308,192.25688958545567
2.8695362028695364,2.32842187379165,156.8132734983826,159.1540220291092,73.16918827788545,136.86401190726326,157.6040331526595,222.5350198473209,192.19441006752743
2.902902902902903,2.32842187379165,172.35236974584922,159.8302011236308,75.90521284888084,136.75378392801167,157.8325449222405,222.57925047176172,192.1577842088154
2.9362696029362696,2.32842187379165,187.6511920352916,160.54677412585278,79.1970430005131,136.6621102735735,158.05589499488084,222.58634033211607,192.1569991530689
2.9696363029696364,2.32842187379165,202.5553497450714,161.18053001813257,82.9735713901926,136.60390515322885,158.29248408382884,222.5624815612544,192.18621981423243
3.003003003003004,2.32842187379165,216.79631306241512,161.7979243316996,87.18856547451276,136.67297423226958,158.5344148367186,222.50313958134976,192.25145957280188
3.0363697030363697,2.32842187379165,229.140720301757,162.41268572299415,90.91890853505676,136.83818640053843,158.82950378274754,222.429160635257,192.2944046519811
3.0697364030697365,9.10152862336994,240.7771100491836,162.9584423800845,95.09071720194004,137.07624912184042,159.15934949107842,222.3385581110132,192.3285924725899
3.103103103103104,17.877249250518947,251.6161504368649,163.31630305112182,95.81801432612014,137.3892603719824,159.46821585062116,222.22481107585185,192.3557114975522
3.1364698031364697,28.53657793273141,261.29226296408274,163.6318928667769,96.74286988709942,137.7767465400947,159.77873084237868,222.10129253672343,192.37271246479708
3.169836503169837,40.728174608430656,269.7573725987179,163.84311244100104,95.9182269061486,138.1924738804348,160.0838705875123,221.9847341741576,192.3705296985273
3.2032032032032034,54.46037065874022,276.52773942158467,163.8812241951412,94.04668537823208,138.65002317376667,160.38774003479745,221.81049476180544,192.33374229744
3.2365699032365702,69.26951559335001,281.8612359342664,163.85513328471032,93.18219568555774,139.14379208962296,160.71469487857976,221.60388890988892,192.28233344525427
3.2699366032699366,85.12731180813869,285.5375142171264,163.60294183691306,91.8404972734637,139.6697694483892,161.06211715965844,221.38349968418927,192.20670197097752
3.3033033033033035,101.68310457012215,287.47080087764704,163.1407533907267,90.78297642965012,140.1555236206787,161.42394844659086,221.1749158577006,192.1415987644625
3.3366700033366703,118.72283473132715,287.3390694721669,162.53722926807865,89.33769561495464,140.60698285365714,161.7832754104805,220.9829743041478,192.0651422340998
3.3700367033700367,135.9437727947624,285.55185700235194,161.90673292360844,87.96751144813939,141.05247151849477,162.15693073473568,220.8350941380573,192.00585976624163
3.4034034034034035,153.30657294448133,281.74114594421604,161.1362421064507,86.51849726557913,141.4894888840195,162.55838834599092,220.7126383108117,191.8961957235716
3.4367701034367704,170.4686448437189,275.7785331611201,160.6372794251286,85.21969209234582,141.89035596907598,162.95996475266892,220.63126155224504,191.7966688088441
3.4701368034701368,187.2722326974254,267.31287418946454,160.19263989374804,83.88490069152644,142.2836606187903,163.3970501226101,220.6069806748952,191.6267373497656
3.503503503503504,203.37465571624364,266.764418853208,159.80624692565635,83.20841093595966,142.66691055406176,163.80201791835455,220.629964196175,191.49842623010585
3.5368702035368704,218.65917000944523,266.15740351568775,159.45421336044166,82.67926808763406,143.03755461063136,164.20135515853391,220.6866834744592,191.3785557183331
3.5702369035702373,232.75916216132143,265.6669522428418,159.19368081926237,82.18084084362353,143.35012062926532,164.53077395814586,220.8066867796264,191.35908449066764
3.603603603603604,245.9164781557528,265.3146065807314,158.81119802005784,81.675751821371,143.5998402825626,164.85444560571491,220.9818981545237,191.3277467408233
3.6369703036369705,257.7145483448239,264.94141242592593,158.43842989073912,81.09878505648479,143.8053224432793,165.1254705466874,221.21052221615903,191.4015516550644
3.670337003670337,268.10796766290406,264.7131072971279,158.05895487496397,80.33818022984329,143.9650666446295,165.33947951654412,221.4867984453275,191.52671636597472
3.703703703703704,276.51503365266194,264.48840320200054,157.74344434405538,79.75553804044198,144.06817990234367,165.45622656779852,221.80714579474372,191.81374215101212
3.737070403737071,283.0653718199728,271.36613279135946,157.74787212561245,77.79648882017628,144.06565725562174,165.4927565642078,222.10789390736085,192.177737385364
3.770437103770437,288.2631342358839,276.1955859088323,157.74934288998847,76.58322692127356,144.00065294071405,165.421460953966,222.4313923747449,192.70028984122936
3.803803803803804,291.5493943101417,279.99501553441183,157.57714535240737,76.71947026339238,143.85855462948368,165.3997261313177,222.79079152680947,193.16707268101263
3.8371705038371706,293.2715382584706,281.80217733747986,157.37236779247897,77.30792304120016,143.67834690471105,165.27470272383124,223.18585625753823,193.78569575911345
3.8705372038705375,292.71913924053626,280.84440222859234,157.07947376259304,76.81600474008195,143.47253916470552,164.953526421627,223.6399530147672,194.6135343011236
3.903903903903904,290.0836993560743,278.1399506353516,156.8833662980586,76.99828243843473,143.26856800431457,164.50430097143183,224.1206893840939,195.63668977527465
3.937270603937271,285.08439496682126,274.60951946611937,153.75222430989675,79.85963340675238,142.80142224439416,163.95827365291666,224.62044186359253,196.77013064098333
