Time,Left Shoulder Angle,Right Shoulder Angle,Left Elbow Angle,Right Elbow Angle,Left Hip Angle,Right Hip Angle,Left Knee Angle,Right Knee Angle
0.0,9.69308317572163,-6.959852498564792,185.4810954397481,170.70008193529304,163.73585563531955,200.6255761229889,180.8470106242027,180.9471474314037
0.0333667000333667,6.707882175565226,-1.002542333270681,182.3998367079932,169.18347271478314,162.8480798539917,201.5131164644552,181.3499191464592,180.74702996435235
0.0667334000667334,4.38396222463689,-1.002542333270681,180.08323317772818,168.30828072961987,162.08598844385665,202.27491334792288,181.7880214025145,180.51761592047964
0.1001001001001001,2.6890148583171944,-1.002542333270681,178.46362449324673,168.01323320965844,161.44411312585746,202.91644006269848,182.16338472037432,180.26185715386467
0.1334668001334668,1.5907316119867063,-1.002542333270681,177.47335029884226,168.2370573847541,160.9169856209371,203.4431698980886,182.478076428044,179.9827055185865
0.1668335001668335,1.056804021026,-1.002542333270681,177.04475023880832,168.91848048476209,160.4991376500386,203.86057614339973,182.7341638535289,179.68311286872424
0.2002002002002002,1.054923620815643,-1.002542333270681,177.11016395743837,169.9962297395376,160.1851009341049,204.17413208793843,182.9337143248347,179.36603105835698
0.2335669002335669,1.054923620815643,-1.002542333270681,177.60193109902582,171.40903237893588,159.96940719407905,204.38931102101128,183.0787951699667,179.03441194156375
0.2669336002669336,1.054923620815643,-1.002542333270681,178.45239130786427,173.09561563281216,159.84658815090398,204.5115862319248,183.1714737169304,178.6912073724237
0.3003003003003003,1.054923620815643,-1.002542333270681,179.59388422824716,174.9947067310217,159.81117552552274,204.5464310099855,183.21381729373127,178.33936920501586
0.333667000333667,1.054923620815643,-1.002542333270681,180.958749504468,177.04503290341967,159.85770103887833,204.4993186445,183.2078932283748,177.98184929341934
0.3670337003670337,1.054923620815643,-1.002542333270681,182.4793267808203,179.18532137986136,159.9806964119137,204.37572242477472,183.1557688488664,177.62159949171323
0.4004004004004004,1.054923620815643,3.589316999287808,184.08795570159748,181.354299390202,160.1746933655719,204.1811156401164,183.0595114832115,177.2615716539766
0.4337671004337671,1.054923620815643,6.953643712255745,185.71697591109307,183.4906941642968,160.43422362079588,203.9209715798313,182.92118845941565,176.90471763428857
0.4671338004671338,1.054923620815643,9.22835601877819,187.29872705360057,185.5332329320009,160.75381889852864,203.60076353322623,182.7428671054843,176.55398928672813
0.5005005005005005,1.054923620815643,10.551372132000214,188.76554877341343,187.4206429231697,161.1280109197132,203.2259647896076,182.5266147494228,176.21233846537444
0.5338672005338673,1.054923620815643,11.060610265066876,190.04978071482523,189.0916513676584,161.55133140529253,202.802048638282,182.2744987192368,175.88271702430657
0.5672339005672339,1.054923620815643,10.89398863112325,191.0837625221312,190.48498549532377,162.01831207621098,202.3344883685576,181.9885863429331,175.56807681760503
0.6006006006006006,1.054923620815643,10.189425443314398,190.3477321717196,189.69339768031463,162.5220298901421,201.9224913264761,181.64405944438667,175.2316861470637
0.6339673006339673,1.054923620815643,9.084838914785388,189.4073559464606,189.5387507206305,163.07964216407578,201.4574400639048,181.29621709064355,174.90927982548038
0.6673340006673341,1.054923620815643,7.718147258681271,188.07348825575136,188.67644373043973,163.63757843908226,200.9706262034902,180.9377232616387,174.60143808312554
0.7007007007007008,1.054923620815643,6.227268688147126,186.28800490846007,186.6952848344229,164.22937678513307,200.4219150821861,180.53956894575683,174.32625488911594
0.7340674007340674,1.054923620815643,4.750121416328022,183.60817373628865,182.75377137475184,164.92372272820123,199.7968578806445,180.13536125087026,174.10285917739353
0.7674341007674341,1.054923620815643,3.424623656369012,180.2990329639891,181.1100353070684,165.4612178128208,199.10728908441047,179.70790204751594,173.93024248166432
0.8008008008008008,1.054923620815643,2.388693621415176,176.66103919538332,182.8086955386486,166.10319676338403,198.38377271265324,179.08719025155443,173.78728134194105
0.8341675008341676,1.054923620815643,1.7802495246115653,172.62370372678387,181.5719377655396,166.6448046819642,197.7027087784997,178.25584034908806,173.6590831974633
0.8675342008675342,1.054923620815643,1.737209579103259,167.68460303047505,178.68438363551456,167.2624261046785,197.02268237464065,177.31089103310555,173.3998754731921
0.9009009009009008,1.054923620815643,1.737209579103259,159.78899991446738,167.9727551331881,167.90512400184298,196.4271545909975,176.55120999867344,172.94069826085436
0.9342676009342676,1.054923620815643,1.737209579103259,152.86340439678403,160.33569452675775,168.37995810319924,195.62269891538512,176.06286747369063,172.63570373247708
0.9676343009676344,1.054923620815643,1.737209579103259,146.78157038091967,154.68499103921684,168.54696215690532,194.5999057259667,175.8923268738209,172.7297418426977
1.001001001001001,1.054923620815643,1.737209579103259,142.55813257266993,150.12356144393286,168.64333080257427,193.76792052294573,175.85690045812012,173.03015423394345
1.0343677010343677,1.054923620815643,1.737209579103259,139.16107954956817,145.96357583337652,168.53777141251555,192.9638606595074,176.00343134117372,173.6825575301321
1.0677344010677343,1.054923620815643,1.737209579103259,137.26055893759172,141.69441020455508,168.22217770936933,192.32833961365324,176.2675020260176,174.67120968175644
1.1011011011011012,1.054923620815643,1.737209579103259,139.4184946110955,137.667310677091,167.83158545046817,191.8889800356104,176.64648781067672,175.8818993563621
1.1344678011344678,1.054923620815643,1.737209579103259,141.0115822254342,133.8111178592375,167.5244995835579,191.8492645925504,177.11182242476883,177.19541533477886
1.1678345011678346,1.5527819467362036,1.737209579103259,136.45755987723825,129.25800777839052,167.31398952765394,192.03202386694,177.5502489556834,178.6325963679346
1.2012012012012012,2.5180705341682543,1.737209579103259,128.42706307516423,125.36627621841455,167.17897568918545,192.25019646573568,178.04777877282288,180.255745990686
1.234567901234568,3.918480918492362,1.737209579103259,125.71874429919212,122.7600259030747,167.17115779934713,192.6245521296032,178.555835980209,181.89193799721383
1.267934601267935,5.721704635089098,1.737209579103259,123.74641995414564,120.81765419893914,167.4249935705312,193.06251502140577,179.02181575498545,183.54391050856748
1.3013013013013013,7.895433219339035,1.737209579103259,122.91550125717572,118.42451076921267,167.88614073738682,193.5613705197075,179.56728141657968,185.15467490210096
1.334668001334668,10.40735820662274,1.737209579103259,124.0959445666976,118.09427235469651,168.42796566364524,194.1535607855592,180.0901438540166,186.78852148446109
1.3680347013680347,13.22517113232078,1.737209579103259,126.12680088629408,120.1954687975526,169.06916145159673,194.8909137395705,180.45811909915707,188.39967947774983
1.4014014014014016,16.316563531813728,1.737209579103259,135.09051360714346,123.69850464834772,169.82255875262751,195.51051185867829,180.70575544809577,190.05303653583013
1.4347681014347682,19.64922694048217,1.737209579103259,141.62204175388368,129.93024603099684,170.74502138369937,196.34555825471955,180.8554896834609,191.68777677094968
1.4681348014681348,23.19085289370664,1.737209579103259,147.0537560902614,136.34135952939604,171.8979262564682,197.53264644874545,180.7183249925796,193.12971434857067
1.5015015015015016,26.90913292686774,2.397491998034729,147.56579670245472,147.8917868977099,173.55725219528318,198.637205554142,180.7413731354439,194.36444730361472
1.5348682015348682,30.39961632621585,7.12942670242237,150.95441905897107,156.31537396348074,175.0557589797636,199.5046470382238,180.70565190509052,195.53434822057167
1.5682349015682349,34.25927525158383,13.038825937358514,157.21313430899852,165.92882307216055,176.76749706230984,200.267807809584,180.59537584103865,196.52792433656631
1.6016016016016017,38.243151339035386,28.40845930636062,161.41290848319454,173.45361748539128,178.2881014473321,201.00326409497669,180.45529340693,197.4975038478528
1.6349683016349683,42.45511386035998,35.0531112502544,163.09674715420726,180.870184673092,179.74544147654194,201.7985922429445,180.17262711520488,198.3646908859995
1.6683350016683351,46.680125568410446,44.37097391026458,170.38034250306455,187.13072179432,181.00213684114652,202.7809114579877,179.8725408043207,198.95420498678368
1.7017017017017018,51.02928430469777,51.71163703122004,173.64488224388765,191.7456368393668,182.26225136140343,203.713471263646,179.29946412990557,199.52673664111808
1.7350684017350684,55.29399874700726,68.69874095814151,176.62512373622437,195.6396403753957,183.44887418392688,204.47370524752736,178.47528611321383,200.19350656165292
1.7684351017684352,59.27990150471744,82.8941000957133,179.75968727432078,198.4803159580247,184.5687636167032,205.0658891324656,177.4664469700339,200.8438657920924
1.8018018018018016,63.51611184690588,95.01902904468956,176.35486901509515,198.779183699561,185.6022425902396,205.4491838764056,176.2471227322858,201.52677037613176
1.8351685018351689,67.93053101450442,107.32496554246536,175.56989570228333,200.25361003283103,186.53124994107105,205.57736043693012,174.88346342181472,201.47112108603812
1.8685352018685355,72.57622389686271,118.16803852520474,174.45333604420375,200.52294721555296,187.3381057487168,205.58756257679423,173.43937231172316,201.44497181564944
1.901901901901902,77.11845672765547,127.49499157063488,173.05522584394072,199.4749914081208,188.01131130637808,205.4781894388043,171.92714285201268,201.48284321485772
1.9352686019352687,80.83931228231764,135.27394140790528,171.4256009045798,196.9975387709303,188.5393679072577,205.24764016576844,170.35906849268645,201.61925593355704
1.968635301968636,83.17612791844823,140.87472654681787,169.61449702920658,192.97838546437737,188.9107768445584,204.8943139004949,168.74744268374752,201.88873062164103
2.002002002002002,84.2207079025763,144.09233150139207,167.67195002090662,187.30532764885777,189.1140394114828,204.4166097857916,167.10455887519907,202.3257879290036
2.035368702035369,83.94178126509145,145.18113289880736,165.6479956827655,179.86616148476725,189.13765690123367,203.81292696446675,165.44271051704416,202.9649485055384
2.0687354020687354,82.2575015317578,144.29122214657278,163.59266981786885,170.54868313250165,188.9701306070137,203.0816645793284,163.77419105928595,203.84073300113943
2.1021021021021022,79.19656807221061,141.95909922488048,161.55600822930208,159.24068875245672,188.5999618220257,202.22122177318468,162.11129395192754,204.9876620657004
2.135468802135469,76.11439881025161,138.4134770783641,159.58804672015094,145.82997450502833,188.0156518394723,201.2299976888437,160.46631264497205,206.44025634911503
2.1688355021688355,72.5217713458189,133.9598975619351,157.73882109350092,130.20433655061214,187.2057019525562,200.1063914691136,158.85154058842264,208.23303650127733
2.2022022022022023,68.61135264218383,129.0366819360859,156.0583671524376,112.25157104960412,186.1586134544802,198.8488022568024,157.27927123228233,210.40052317208097
2.235568902235569,64.82000134012124,124.31485572734788,154.59672070004655,91.85947416239996,184.8628876384469,197.45562919471817,155.76179802655437,212.9772370114198
2.2689356022689355,65.60535468628925,118.42592828821684,153.40391753941327,68.9158420493954,183.3070257976592,195.9252714256692,154.31141442124175,215.9976986691876
2.3023023023023024,66.10503130836251,110.74277085762286,152.52999347362345,43.30847087098641,181.47952922531968,194.2561280924633,152.94041386634768,219.4964287952781
2.335669002335669,66.3170951931377,102.6003536799018,152.02498430576264,14.925156787568696,179.36889921463109,192.44659833790888,151.66108981187523,223.5079480395853
2.369035702369036,65.55821870600843,92.4411679591527,151.9389258389163,-16.346304040462115,176.96363705879614,190.49508130481385,150.48573570782753,228.0667770520029
