Time,Left Shoulder Angle,Right Shoulder Angle,Left Elbow Angle,Right Elbow Angle,Left Hip Angle,Right Hip Angle,Left Knee Angle,Right Knee Angle
0.0,23.203906615413647,31.227289175013524,168.73059911070985,155.9668430281848,149.96807022380648,144.79456710568147,185.07976674591777,182.18955925111624
0.0333667000333667,23.24747726663625,30.087902161925445,168.3758928155424,155.04083702105953,150.48529228283346,144.8457574529442,184.6420710933848,182.6606549289613
0.0667334000667334,23.35009207899124,29.17321300947271,168.13176137851806,154.32313777409294,150.93356591276435,144.8652292174216,184.2356223219132,183.046840597514
0.1001001001001001,23.507151587469554,28.467749668745952,167.991087705228,153.7969151002261,151.31681919704846,144.8565317100051,183.85936724293907,183.3529455760787
0.1334668001334668,23.714056327062146,27.9560400908358,167.9467547012635,153.44533881240008,151.638980219135,144.82321424158624,183.5122526678989,183.58379918395968
0.1668335001668335,23.96620683275995,27.62261222683287,167.99164527221575,153.251578723556,151.90397706247322,144.76882612305647,183.19322540822893,183.7442307404612
0.2002002002002002,24.25900363955392,27.4519940278278,168.11864232367594,153.19880464663493,152.1157378105124,144.6969166653073,182.9012322753656,183.8390695648875
0.2335669002335669,24.587847282435,27.42871344491122,168.32062876123535,153.27018639457793,152.27819054670178,144.61103517923024,182.6352200807449,183.87314497654285
0.2669336002669336,24.94813829639412,27.53729842917376,168.59048749048517,153.4488937803261,152.3952633544906,144.51473097571673,182.39413563580337,183.85128629473152
0.3003003003003003,25.335277216422227,27.76227693170604,168.9211014170166,153.71809661682053,152.47088431732809,144.41155336565828,182.1769257519772,183.7783228387578
0.333667000333667,25.74466457751027,28.08817690359868,169.3053534464209,154.0609647170023,152.50898151866352,144.30505165994637,181.9825372407028,183.6590839279259
0.3670337003670337,26.1717009146492,28.499526295942324,169.73612648428923,154.46066789381248,152.51348304194616,144.19877516947253,181.8099169134164,183.4983988815401
0.4004004004004004,26.611786762829947,28.980853059827595,170.2063034362129,154.90037596019215,152.48831697062522,144.0962732051282,181.6580115815542,183.3010970189048
0.4337671004337671,27.060322657043464,29.516685146345125,170.70876720778304,155.36325872908242,152.43741138815,144.00109507780488,181.52576805655264,183.072007659324
0.4671338004671338,27.512709132280687,30.091550506585538,171.23640070459095,155.83248601342436,152.3646943779697,143.91679009839407,181.412133149848,182.81596012210213
0.5005005005005005,27.964346723532568,30.68997709163946,171.78208683222778,156.291227626159,152.2740940235336,143.84690757778728,181.3160536728765,182.53778372654352
0.5338672005338673,28.410635965790043,31.29649285259752,172.33870849628477,156.7226533802275,152.16953840829092,143.79499682687594,181.23647643707457,182.2423077919524
0.5672339005672339,28.84697739404428,31.89562574055064,172.8991486023546,157.1099330885722,152.05495561569205,143.7646071565526,181.17234825388,181.9343616376343
0.6006006006006006,29.3066241550646,33.03174617368966,173.62912244997585,158.29718956679667,152.05271754123143,143.7680833938828,181.13833015927648,181.5924156407744
0.6339673006339673,29.75245870192004,33.6127096191012,174.34615369140994,158.5536694522654,152.03862559222338,143.84228517909042,181.0745775738247,181.272308909752
0.6673340006673341,30.15972201988741,33.93210929608257,174.9956800379998,158.42284684502312,151.9913469183737,143.97023053789127,181.0112116553183,180.976339923365
0.7007007007007008,30.49282832088804,34.212879858660244,175.55855197468549,158.2671233502756,151.8976599518227,144.11089244587225,180.99588031260475,180.7037217199712
0.7340674007340674,30.743649037684733,34.70734783047141,175.98906427877387,158.47669787439656,151.78250784428815,144.29269529183043,181.0047637073936,180.4496216138696
0.7674341007674341,30.86097642660643,34.31635986912706,176.17781724263503,157.14496978435002,151.70786323135025,144.53932129727892,181.0399609394296,180.2176863244973
0.8008008008008008,30.907217599662403,33.43007593386214,176.23119532679675,155.18844985898278,151.65344531234462,144.85344753376006,181.06760068158457,180.0121205354683
0.8341675008341676,30.831897120372705,32.62682030186018,176.06147010479447,153.3240816741507,151.6596310813983,145.22512819014244,180.99373756934057,179.82586620627748
0.8675342008675342,30.69979115370045,31.76051945434776,175.78116907858083,151.49619208043623,151.68399914321606,145.64405624168435,180.8985500685857,179.67000000828455
0.9009009009009008,30.55297074646862,30.696434444511542,175.46582595030273,149.4980636056748,151.67558834991306,146.0978037465411,180.8542487146664,179.54770684299484
0.9342676009342676,30.44842380797937,29.854742435008337,175.17982793167062,147.9790766249853,151.62011846782954,146.5311295208752,180.86296477281937,179.46600008830063
0.9676343009676344,30.42208264603024,28.83210919719372,174.97367629607848,146.29141012340486,151.58833467174742,146.95572001165473,180.81297066416147,179.41521549162744
1.001001001001001,30.43742600852784,27.734837635766667,174.79009970477352,144.65049240863212,151.49538291438972,147.37820936511582,180.79723285525725,179.39887451587563
1.0343677010343677,30.47136899670532,26.59856487097187,174.5717162951399,143.0878422037516,151.3098136072906,147.81044594703943,180.88737233007743,179.4171349138237
1.0677344010677343,30.53495942279113,25.71034190653954,174.34037731780575,142.23847840064138,151.10081749637658,148.2151660760267,181.0197198473716,179.45701304735053
1.1011011011011012,30.61341280366836,25.026739103738983,174.04470149599723,141.9004339393381,150.8512380688465,148.5844255140168,181.29361058443948,179.52325573998283
1.1344678011344678,30.67964391658538,24.40782231724304,173.711670908464,141.78858546410197,150.55940648676147,148.93931276690364,181.63589050783585,179.61085848744787
1.1678345011678346,30.75633494802133,23.96932248788904,173.3342203426109,142.0920161201563,150.23387893015854,149.2665332164805,182.10692286211324,179.72576752008246
1.2012012012012012,30.806380790322702,23.428804824794952,172.9412033835005,142.1990464726522,149.83508101204023,149.60041281939468,182.59667357608663,179.8615104599213
1.234567901234568,30.81054680812277,22.92188785548912,172.59335081729665,142.4534264749501,149.65770873203468,150.00614573598634,182.6621573851133,179.92013135757466
1.267934601267935,30.87965631151712,22.37340722221128,172.44184491700864,142.6648900737687,149.43614494810927,150.43089741069045,182.71470462503555,179.95868586538938
1.3013013013013013,30.984723801528613,21.8292756741776,172.3990390070922,142.83510538017546,149.02395534011606,150.79779378300626,182.9700948500733,180.05112153204715
1.334668001334668,31.06662736638376,21.392157592308862,172.3800070222783,143.1391348541589,148.5078776509067,151.08373397309782,183.4001994230276,180.17915778465488
1.3680347013680347,31.102065745882964,21.28885412511765,172.33274992000025,143.95056782174052,147.85597126948275,151.47942517357927,184.0723915842972,179.88833592525071
1.4014014014014016,31.13698176956104,21.24145966677532,172.3259135430862,144.78354447911366,147.09744524987246,151.82987527093522,184.8975459400814,179.5890319176412
1.4347681014347682,31.29197842940093,21.26901803792598,172.20108963393832,145.4233204082427,146.15921119534372,151.84801585157177,185.6783790591314,179.71798386261935
1.4681348014681348,31.493715598489747,21.28817778676172,172.18230174655315,145.91244923555428,145.24512247986797,151.69649535878534,186.4126997140349,180.09797563245309
1.5015015015015016,31.810266816432467,21.45699549016892,172.1662754129085,146.8111899613758,144.3917147397705,151.34504139379493,187.1048417161496,180.70496639183023
1.5348682015348682,32.134495045366634,21.4465350142188,172.4122913064828,147.70280907732118,143.66204682902858,150.93395171808493,187.71139542780315,181.3768769552609
1.5682349015682349,32.46491647953251,21.24918412645484,172.59998652815017,148.59313872046704,143.08580263565264,150.4725816452264,188.15874730081308,182.084997133919
1.6016016016016017,32.79109750303996,21.1001627695772,173.1103985703156,149.23666350842672,142.6267917845486,150.04745623657607,188.5457237229115,182.82476544987972
1.6349683016349683,33.11623860431849,20.851665530134404,173.73661349195126,149.2490017104395,142.2783089676661,149.59098156734382,188.8783874040289,183.6569190509828
1.6683350016683351,33.34538885631664,20.647924158429177,174.71152915097065,149.0268284682717,142.02701621066004,149.16120857311785,189.16735925176144,184.5299610193032
1.7017017017017018,33.85192029374667,20.526304318401188,176.06953400338827,148.3519149103286,142.10828832526843,148.80590423250305,189.3416570484571,185.3542815704556
1.7350684017350684,34.05267357760086,19.898280359831,177.4630872944474,146.57736201963866,142.23526043216216,148.53953533697498,189.4627151487925,186.1258748583801
1.7684351017684352,34.2019943279771,18.999722033888933,179.2122468520602,144.84926838270954,142.28353037348737,148.2894671494549,189.6464247444968,186.8648804109361
1.8018018018018016,34.13274906256567,18.231012726137248,181.1123676956557,143.20266625932908,142.27168797322796,148.04559042938604,189.8764684989673,187.5873726691387
1.8351685018351689,33.71608205368615,17.570214314585048,182.27634388661707,141.1037410249677,142.11788352708018,147.79394388275705,190.29865232233044,188.2387622876641
1.8685352018685355,33.01237353273705,16.730313606848398,183.2825622180733,138.61606403861532,141.9552750180069,147.59911557253253,190.70216924677723,188.8183085824625
1.901901901901902,32.06165881779435,15.256028026140877,187.5957563987787,135.06335995295694,141.73411299098083,147.4475371810734,191.0371938600099,189.3322418179869
1.9352686019352687,30.85987271479208,14.340558188555542,191.07467953803183,132.73919104367272,141.43470838204198,147.31540883496052,191.30412985778048,189.76571455597576
1.968635301968636,29.274387729587247,13.911559743184506,193.58867233413991,130.51852569640877,141.01595744569497,147.18390391354745,191.5185698391648,190.1193246919605
2.002002002002002,27.916147100676863,13.449008304494525,195.94781220057885,128.63774030748405,140.60220835154888,147.08220276510752,191.6566529919791,190.37852079589788
2.035368702035369,26.37630318089339,12.752699858635554,197.4669029955215,128.15704552643552,140.1934471976262,147.08872725393465,191.940654853069,190.48469388946447
2.0687354020687354,24.864232827144203,12.10530700662767,198.29765513301163,127.4787611373474,139.96370999214676,147.2055492605429,192.0361699893316,190.44054113511115
2.1021021021021022,23.75952444950417,11.204868983063554,196.04174623764115,124.8236320161858,139.9226633705849,147.4301321510798,191.95577564585105,190.2726857889755
2.135468802135469,22.339110326765663,10.561004537997666,193.705100818146,122.44386698027893,139.82199645016084,147.72409830520633,192.02441888918923,190.04136216663943
2.1688355021688355,20.95793351478921,10.17570117088965,195.09068359788068,120.4592434317705,139.69756662405956,148.0471034866992,192.2025949784578,189.7355928183491
2.2022022022022023,19.433041981115387,10.122573860503088,190.69854217032068,118.92865809656566,139.55580168935103,148.3761815994968,192.48461926464284,189.37830714508752
2.235568902235569,18.258827273559465,10.327999583691224,191.90834333124832,117.64387952947112,139.2896642700545,148.7449153403489,192.88752981093248,188.9931166985352
2.2689356022689355,17.0170048695483,10.67299986240154,192.0457654876559,116.52447056915992,138.98722665921397,149.13070432990756,193.290465514029,188.56485720366456
2.3023023023023024,14.142203276019842,11.291565266649265,189.50718437784,118.6462859166261,138.64051697338977,149.51366920050012,193.7345468729985,188.10534452511857
2.335669002335669,12.337023200083143,12.110378585211768,187.20810456656503,119.43481350298973,138.31987050907983,149.9035986791571,194.0968215421664,187.6048785339715
2.369035702369036,1.5288154258539552,13.032314917958786,183.5945572671524,119.3215185012903,137.98706537498077,150.26964694695016,194.420529365556,187.05259177859816
2.4024024024024024,-5.816107489600507,14.108785864949088,179.86058083338582,118.53133488872068,137.32984628202206,150.52335218620985,195.2400112917428,186.57532022444047
2.4357691024357693,-9.705597854259288,15.221412304174082,175.92669330006046,117.34628836170155,136.50705217185126,150.69093832353775,196.28361819542863,186.119874600134
2.469135802469136,-10.87500439697758,16.543912969659896,172.12104338348982,115.66711857130726,135.70394377673804,150.82016476636934,197.33536403957893,185.6465325873353
2.5025025025025025,-9.397063303345996,18.01150003985787,168.33121223599363,113.420313026006,134.87475448967177,150.94639331010958,198.36248043113247,185.12344870205865
2.5358692025358693,-5.258654880062852,19.425827127398414,164.42037393216668,110.4481267715184,134.16700460485734,150.80010098552117,199.2027297502448,185.16962146215377
2.569235902569236,1.6137136995211812,20.78869737120528,160.1832299607268,107.16950052078326,133.5714831067097,150.41664307195924,199.91445469022372,185.63367896250463
2.6026026026026026,1.6137136995211812,22.10862113287064,156.26452216563013,103.73839179440854,133.37201344824078,150.13359499008106,200.61223426335232,186.05755854157223
2.6359693026359694,1.6137136995211812,23.42260252790279,152.4307972753645,100.07593903814968,133.39045778822558,149.86735882320298,201.3150084844044,186.5064930982829
2.669336002669336,1.6137136995211812,24.675969128151337,149.112556828024,95.65879024705843,133.60316309431312,149.71501250762526,201.99533252011744,186.94648208037265
2.702702702702702,1.6137136995211812,25.98657852682165,145.9505632855752,90.6169508440536,133.90831676807153,149.63289164916844,202.7182181000603,187.44758224770865
2.736069402736069,10.4195427592755,27.5659925918142,143.53986671046945,85.05589670625841,134.30346584745698,149.59806446146928,203.48686564855169,188.01867351502503
2.7694361027694363,21.162128934914968,29.32336502595553,141.76354144657708,79.32413505475031,134.5884332688062,149.6104943251016,204.85757976123327,188.6404230597067
2.802802802802803,33.38668099828335,31.49642627162681,140.81944434614798,74.03643604937434,135.11715989244644,149.7155504229761,205.97924929054847,189.2281604419653
2.836169502836169,47.16387447188187,33.853422450594245,140.3926088581521,68.86604175465794,135.9820362248304,149.9135963077858,206.63695895219928,189.7398109220472
2.8695362028695364,62.09955714697215,36.35524130878816,140.47449941744773,64.24538126444808,136.7658153978874,150.10332747477128,207.1842491850344,190.25952263574848
2.902902902902903,77.92678699945003,38.873319048154016,141.0602119596865,60.13072737661705,137.390105951755,150.2747741261687,207.78518629635968,190.8014956522614
2.9362696029362696,94.3968048540658,41.498096980644746,141.95830133414867,55.88174047992348,137.97523547398933,150.45658121973065,208.3364135486289,191.3563493479072
2.9696363029696364,111.41597758048438,44.03998269224672,143.1975343651551,51.74772101059301,138.47437028088643,150.6513579757511,208.7629816941169,191.8495037332304
3.003003003003004,128.28244168661234,46.46131193147618,145.89408849949422,48.25956093318535,139.0164169643109,150.8515740184215,208.9441327645301,192.35596070212387
3.0363697030363697,145.42685122706175,49.03194522754247,149.66558462397316,45.35905950848179,139.5723019883082,151.0396346673524,209.01640671594856,192.8621881565896
3.0697364030697365,162.2706980660367,51.55263786205444,150.11157729662338,42.95486186991358,140.18083607380655,151.24596833433975,209.0145708674754,193.354019513288
3.103103103103104,178.64688292111688,53.936661571239455,150.5766804378707,40.761458196706734,140.94835072905963,151.43813612913152,208.7686438325981,193.8326765868615
3.1364698031364697,194.5187023545471,56.09890211681757,151.1520232004227,39.70534651952466,141.91045598471632,151.6821646430224,208.4234393059781,194.27459963456565
3.169836503169837,209.7016111499153,58.2830940061997,151.18233631897834,39.24196292834153,143.05879941544308,152.03135791700657,208.1047642173017,194.65793003720427
3.2032032032032034,224.02248636941883,60.41267253502452,151.12521399147775,37.32339214724644,144.28741227802408,152.43868264036652,207.59832689115865,195.0421054631501
3.2365699032365702,237.24354666972724,62.516229806336256,152.824376489338,35.681133924257495,145.40603676924468,152.9265430490344,207.175439162134,195.41145885628623
3.2699366032699366,249.6560794360641,64.3700418327596,156.95560289473372,35.677816146664426,146.25428258085205,153.37500297290586,206.9910101340956,195.80731518291395
3.3033033033033035,260.1182944023424,65.96119795067338,157.4593503562948,34.91380736172308,146.78661223860615,153.79178583783778,206.99951274792576,196.25104349846688
3.3366700033366703,269.5208973272217,67.02991089767663,154.46943196527704,34.71086644863839,147.05918844904423,154.13528210173115,207.1195705832665,196.72791171528644
3.3700367033700367,287.18914418928193,67.86881949904266,160.65276911815053,33.65954210288646,146.97661629022969,154.31410662821867,207.37847831184703,197.2398573046057
3.4034034034034035,299.8600528741448,68.13134764583894,160.51747421585793,32.80609954966893,146.73648417393196,154.3530384987779,207.67908079475288,197.7099715175501
3.4367701034367704,308.8913203953463,68.52655118901423,155.6427511768915,34.91008553347775,146.51190608054097,154.28408349037633,208.00509831170223,198.1076819351015
3.4701368034701368,312.9326338057244,68.30310051014224,153.38797653045353,34.2089558242492,146.08334713708012,154.3133676367716,208.4386483818384,198.2376342839347
3.503503503503504,312.13716032339005,67.38472548413249,151.7858212461412,33.55618849251676,145.1997621303429,154.06493211602924,208.86772604303025,198.5434842231452
3.5368702035368704,306.02865506214715,65.9593400760301,151.51074474236657,33.689269630904136,144.11030692752155,153.64829457089513,209.28514436621404,198.93869288415627
3.5702369035702373,295.178251882419,63.882933185958485,152.9983421171012,34.33353037329855,142.75903251327836,153.82062155248013,209.8598495719717,198.5835462643496
3.603603603603604,281.5190503578315,61.507905680911584,154.48185576073325,35.37507299452642,141.42621452977795,153.7923946146954,210.3673709122934,198.3558423371333
3.6369703036369705,262.2354868887789,59.0708996618604,156.02579534773648,36.63213727551431,140.20049046101906,152.7912409421917,210.6840439591765,199.1742246772696
3.670337003670337,251.0396901386892,56.38025074781045,157.2361001405483,38.47545267563287,139.12756583109163,151.62732571588532,210.95118076879007,200.1877922366344
3.703703703703704,238.4995244920024,53.343817627678405,158.35227048448533,40.514418737212274,138.07640469069153,150.49426431160904,211.2276205285484,201.20962679281635
3.737070403737071,224.6277240172506,50.174510671602526,159.71212791428624,43.03629310739138,137.18594137930737,149.40789456196205,211.4384649402093,202.1992450953481
3.770437103770437,209.9684187839041,46.62972433024928,161.21696504287954,45.97592630943451,136.31323107239055,148.32783634856068,211.7129055742347,203.1717972341179
3.803803803803804,194.88796161228208,42.82514102389678,162.8360501517421,49.20557173258162,135.55825307549406,147.33116930650732,211.92194384667192,204.10988290859848
3.8371705038371706,179.45813812178812,38.76236339767408,164.21315751052154,52.45672803794714,134.81576190996503,146.43605354353411,212.13900011278577,205.01644313791223
3.8705372038705375,163.5107212042492,35.08345877622617,165.69874187694288,56.516057767355385,134.2868308170148,145.59898743210147,212.2851096669252,205.87085214706568
3.903903903903904,147.6607989915243,31.83696430978246,167.7207723960405,61.56413835085955,133.88854790294008,144.85834449779065,212.2746128715216,206.670647942484
3.937270603937271,131.79226628667843,28.933047682786427,170.12005152090163,67.08127116466069,133.96091215100523,144.17794290792162,211.4940016221333,207.4372257702128
