Time,Left Shoulder Angle,Right Shoulder Angle,Left Elbow Angle,Right Elbow Angle,Left Hip Angle,Right Hip Angle,Left Knee Angle,Right Knee Angle
0.0,28.984634713430427,37.50719941180217,153.04241399082412,167.22164468872128,136.93688930983762,132.7445922951596,190.72146308265172,196.77971618410297
0.0333667000333667,29.07355913889195,36.33956345784648,154.4871466497154,166.8148180889804,137.49436331959643,133.36892256135684,190.33579213078087,196.67612890823656
0.0667334000667334,29.206566277134183,35.307871009296385,155.81032345485588,166.39671508797412,137.99097695913483,133.92191168286936,189.97398610944663,196.50746757826363
0.1001001001001001,29.38015746335799,34.4025147871372,157.0230439580983,165.96555742742683,138.4283214315205,134.40890848367485,189.63716150791453,196.27733851941548
0.1334668001334668,29.590834032764228,33.61388751235424,158.13640771129545,165.5195668490629,138.80798793982106,134.83526178775097,189.32643481545003,195.98934805692343
0.1668335001668335,29.83509732055375,32.932381905932814,159.16151426630014,165.0569650946067,139.13156768710422,135.20632041907538,189.04292252131856,195.6471025160188
0.2002002002002002,30.109448661927427,32.348390688858245,160.10946317496513,164.57597390578266,139.40065187643765,135.52743320162577,188.78774111478563,195.25420822193288
0.2335669002335669,30.41038939208612,31.85230658211585,160.99135398914322,164.07481502431511,139.616831710889,135.8039489593798,188.5620070851167,194.81427149989705
0.2669336002669336,30.734420846230663,31.43452230669093,161.8182862606872,163.5517101919285,139.7816983935259,136.04121651631513,188.36683692157723,194.3308986751425
0.3003003003003003,31.07804435956195,31.08543058356881,162.60135954144985,163.0048811503471,139.89684312741605,136.24458469640945,188.2033471134327,193.80769607290063
0.333667000333667,31.43776126728082,30.7954241337348,163.35167338328398,162.4325496412954,139.96385711562712,136.41940232364044,188.07265414994856,193.2482700184027
0.3670337003670337,31.810072904588143,30.55489567817422,164.08032733804237,161.8329374064977,139.98433156122675,136.57101822198572,187.9758745203903,192.6562268368801
0.4004004004004004,32.19148060668477,30.35423793787238,164.79842095757778,161.20426618767846,139.95985766728262,136.704781215423,187.91412471402336,192.0351728535641
0.4337671004337671,32.57848570877157,30.1838436338146,165.51705379374303,160.54475772656198,139.8920266368624,136.82604012792996,187.88852122011323,191.388714393686
0.4671338004671338,32.9675895460494,30.03410548698618,166.24732539839087,159.8526337648727,139.78242967303373,136.94014378348425,187.9001805279254,190.7204577824771
0.5005005005005005,33.355293453719106,29.895416218372453,167.00033532337414,159.126116044335,139.6326579788643,137.05244100606353,187.95021912672527,190.0340093451688
0.5338672005338673,33.738098766981565,29.758168548958725,167.7871831205456,158.3634263066732,139.44430275742175,137.1682806196455,188.0397535057784,189.33297540699223
0.5672339005672339,34.1125068210379,29.61275519973058,168.61896834175923,157.56278629361307,139.21895521177495,137.29301144820883,188.1699001543516,188.62096229318053
0.6006006006006006,34.53310044472964,29.782980479417496,169.50424463573623,156.97547946128944,138.85358418309625,137.39581152789577,188.40749300066315,187.9832630297849
0.6339673006339673,34.909007512884244,29.79032784582316,170.453242599224,156.26150522705086,138.40533316685014,137.54756403004288,188.7111873178863,187.3393235037979
0.6673340006673341,35.26843663722347,29.64698274419248,171.3955898643846,155.59851600288388,137.90006399160552,137.77237632608177,189.05085004409293,186.61910796478168
0.7007007007007008,35.5987946011525,29.30716881914632,172.70045271968894,154.7595905155368,137.47317375243784,138.070987061413,189.3886106392154,185.8636534702021
0.7340674007340674,35.910466675866495,28.774010265294823,174.15167282136662,153.9713166507413,137.0725238567339,138.39984341346698,189.755895493322,185.10121050056537
0.7674341007674341,36.226814096553824,28.00646696217456,175.92024410459086,152.91889474891977,136.62314868665584,138.79354655474896,190.25661828880328,184.3432459376156
0.8008008008008008,36.526718007713626,27.04489654705885,177.16127547507148,152.1476930880457,136.2004858770162,139.25015389446506,190.83822043478403,183.576932333799
0.8341675008341676,36.88107505587428,26.027460357676823,178.9453092454548,150.86246148920304,135.8355087138753,139.7708381156284,191.490373855609,182.81377445349565
0.8675342008675342,37.19007801832012,24.70049389779092,180.9283760687552,149.46605396490966,135.54502103060096,140.34233869852673,192.1776844497853,182.079851301591
0.9009009009009008,37.38254099016101,23.21599732814304,183.21617901327664,147.06425728680802,135.30785609849846,140.94833639365294,192.85002884494924,181.3981310130373
0.9342676009342676,37.33431829068126,21.5695531170787,185.04865600842365,145.90573727943004,135.0590012261304,141.58093535260585,193.4905980128076,180.79839418756185
0.9676343009676344,37.08668013740241,20.01231974703244,187.1326922734335,144.27768799156675,134.79267300166276,142.2249570835438,194.118285834132,180.25276994520635
1.001001001001001,37.21640083081231,18.68843771809131,194.06480145500856,142.32052591091923,134.56578969147503,142.84421543054253,194.6539413708216,179.7688085709922
1.0343677010343677,36.93483196630466,17.445667347195165,199.8392100560443,139.9347125118158,134.35239024506654,143.48194761310234,195.1334198912136,179.31533195609427
1.0677344010677343,36.34603541292712,16.117284708571965,205.06092718151825,137.3852217535497,134.1539398030954,144.12882128965518,195.57337190081603,178.9347614392076
1.1011011011011012,35.48285278890117,14.86335998205653,209.27752471984945,134.45903265520144,134.0096870075693,144.7955565083707,195.8909060453498,178.6101588977847
1.1344678011344678,34.494994778251645,13.497442417169232,212.46265698576627,131.226318872693,133.91062308546503,145.48419630509895,196.0980411546497,178.35380101573253
1.1678345011678346,33.39677535597004,12.263687838566376,214.4164723542785,127.64524327924744,133.7985678112483,146.1180286573797,196.3589899963831,178.1784621350011
1.2012012012012012,31.750450590356945,11.009301584749236,213.952332044768,119.99818857514823,133.76874637327637,146.7016646734515,196.4853020416981,178.02099611196454
1.234567901234568,29.838541640721417,9.929133383799153,212.3458679597732,111.32014816073512,133.59657503511,147.19102431252531,196.98549659090955,177.9285204468154
1.267934601267935,27.62569417823945,9.157447816929142,209.8773796316437,110.05680381429784,133.4243924798307,147.63577512966998,197.6001013493596,177.90802467833643
1.3013013013013013,25.44653429204796,8.756391928483314,206.6348211095594,108.50769052875032,133.27782902322244,148.0157194375534,197.93857598285308,177.89915952679888
1.334668001334668,23.02668483476656,8.638687112915745,202.559817265966,103.94686049081098,133.0759351250091,148.3229598424753,198.2170334823507,177.95068103113212
1.3680347013680347,20.86053713079104,8.717483020703405,198.0525698526565,101.77902015715831,132.79972237418932,148.56628496110346,198.48542713886172,178.05028947672938
1.4014014014014016,18.668477473000493,8.787333280853359,192.94761635313068,99.71433633628172,132.45628953249707,148.76246596713486,198.74628331848504,178.20522986822894
1.4347681014347682,16.695348129151665,9.057599023724078,187.4976244302036,97.53473449392256,132.1874558589153,148.9452783366032,198.84551543946412,178.36189723207326
1.4681348014681348,15.567752731068836,9.793142418685033,182.56624713287445,95.67551028216737,131.83836610545993,149.0690147989528,198.97952788910013,178.52415149231453
1.5015015015015016,14.866481232778764,10.827027610727717,177.44726201144127,93.76862929590744,131.4831737668146,149.1511840492219,199.15867758298296,178.74732289687313
1.5348682015348682,13.996209872449665,12.122782512118022,171.7717889143141,92.03163438028494,131.1766671171655,149.17426805704497,199.3338733672581,179.00751395520226
1.5682349015682349,13.30614952999762,13.642159394736838,165.82179755293328,90.42609453443792,130.89049042212525,149.1803505224247,199.5521461551697,179.23522696577305
1.6016016016016017,13.504996700573718,15.71507579567968,160.633016233929,89.43930815530875,130.5892490103071,149.14516838733238,199.7643084790442,179.46406463882929
1.6349683016349683,14.398543232671187,17.95923274022454,156.12438211570674,88.58189973561063,130.30795463229785,149.02707634168743,199.91808846560264,179.7123294676406
1.6683350016683351,5.183086809917213,20.199353878148948,149.1680469508589,87.93256037118611,130.10494166506072,148.81111914891153,200.03163570375244,179.98473034850915
1.7017017017017018,-0.5114539638334819,22.338007698824125,142.0588978037473,87.24856034096351,129.76851340800138,148.57274682402448,200.3865042584441,180.2522603029988
1.7350684017350684,-0.5114539638334819,24.42366600518213,136.47967892562392,86.61339294219749,129.39659014921014,148.30713781767224,200.7793235652373,180.4733420714333
1.7684351017684352,-0.5114539638334819,26.18675297545624,132.3170779791372,85.76385237678375,129.16574998311674,148.09106879627416,201.1130273695824,180.62334632005457
1.8018018018018016,-0.5114539638334819,27.760098063482094,128.54866039144508,84.9253932432937,129.0490581413727,147.95871264977973,201.4066648156365,180.6808595922898
1.8351685018351689,-0.5114539638334819,29.14687219520148,125.06016509750172,83.897540648082,129.02405606212884,147.86659131403408,201.7448276714164,180.71354671808612
1.8685352018685355,-0.5114539638334819,30.28209301015509,120.99496669200312,82.77786554221599,129.0489896492945,147.79970451277956,202.1358557325684,180.7168213355265
1.901901901901902,-0.5114539638334819,31.27198174526045,116.8798772931811,81.4532950882882,129.1181721977043,147.78019394195607,202.6169761759947,180.69663904933336
1.9352686019352687,-0.5114539638334819,32.20821307316968,113.60147219434144,80.37680403892861,129.35364991674922,147.8408891565944,203.02152272582367,180.58651578059025
1.968635301968636,-0.5114539638334819,33.06266390526319,111.93154024012074,78.82352794627317,129.65982618666692,147.93052886487354,203.3787587653973,180.48990761479865
2.002002002002002,-0.5114539638334819,33.71198550809241,111.29006611401492,77.40361182280338,129.9510302484007,148.05965186028695,203.74262762315345,180.38678085011205
2.035368702035369,-0.5114539638334819,34.437540839508365,111.52454554771349,75.79680544852154,130.17695901662455,148.17467545879143,204.1117501531658,180.3561830960328
2.0687354020687354,-0.5114539638334819,35.20339882773479,112.87828276481363,74.84828506537654,130.19823000936535,148.41268328346484,204.5173434508983,180.3714611483457
2.1021021021021022,-0.5114539638334819,36.01646387764621,116.26924946577674,72.53489640954666,130.22534248548314,148.5696479741328,204.91289369666012,180.4567907283757
2.135468802135469,5.61276671061237,37.63266028090573,121.13205204275484,71.1598293355718,130.18092420156574,148.75071038033266,205.33873851265977,180.5373798943067
2.1688355021688355,12.33166249728708,38.99451023157371,121.49646207883912,69.47394484470655,130.13344505255148,148.87199339477942,205.80595944047096,180.70333859122485
2.2022022022022023,19.33608024249133,39.72871073709183,122.72252761842223,67.7362770166143,130.12426334853004,148.90649492209323,206.3206817699693,180.88405741919271
2.235568902235569,26.131622584298693,40.04478290014142,123.16128829331228,64.80159727115972,130.19538445359498,148.82502305573254,206.8548703467058,181.17014429322097
2.2689356022689355,32.42347522855177,39.297159464271104,123.09985641037473,60.31339966130186,130.30223297306833,148.57198812350146,207.4275619708298,181.5470795933652
2.3023023023023024,38.32839764552839,38.38568369086673,123.04134818859964,55.37123411798132,130.3916613365523,148.20996323720377,207.94742030844176,182.0401939659049
2.335669002335669,43.5279403378015,37.56511116516516,121.13838126132418,49.361475509220384,130.30934687715225,147.79950720426112,208.6412856895284,182.5427869823304
2.369035702369036,48.33260634309418,36.77749223491435,120.14978935581678,48.82043395274169,130.118059684292,147.33082884139765,209.3318240899099,183.1975905058641
2.4024024024024024,52.17333935035263,35.90684748565931,113.36750071020332,51.65875524604419,129.8268513678814,146.87432270492735,210.0143916544578,183.83927006839383
2.4357691024357693,55.3519285708507,34.84835923112672,108.24716978361796,49.30858608528695,129.5285213063584,146.3651155089149,210.6011196442518,184.6223411717909
2.469135802469136,58.299750295489545,33.309428628374114,106.4401994891823,46.932199774634114,129.08639079200978,145.8586552269468,211.1178590781335,185.50519766653952
2.5025025025025025,61.08327739913928,31.62592887239005,105.72029212574596,48.60517919596453,128.6624475867106,145.31733068137416,211.48241636086595,186.5027976280927
2.5358692025358693,63.59352471793468,29.868065557423613,105.75872146033738,48.94731055932675,128.25034846048752,144.68984339313786,211.7200782003629,187.6312927585704
2.569235902569236,65.20699425602857,28.414480870915085,106.91409818194006,49.85435641182006,127.9502948368881,143.97950515951968,211.8015912741934,188.8872904968096
2.6026026026026026,66.93244809299165,27.26592152531521,109.36514025445558,51.56237928669741,127.77796927693548,143.17761519921658,211.6151228995553,190.25027998101783
2.6359693026359694,68.164264771785,26.13633470414762,111.76509486293612,53.77043078928556,127.8077196144416,142.37354009941143,211.26356379937897,191.70775983880387
2.669336002669336,69.2707387280474,24.83768343545101,114.70239539430575,56.25942889559872,127.9683141374647,141.56883464320302,210.7150018277896,193.25369386886288
2.702702702702702,69.13073449115933,23.62080536159408,118.37219069291014,59.11156387433904,128.23604799342627,140.77685131145924,210.07888388228287,194.8350468381386
2.736069402736069,67.97210701809476,22.20393527220828,123.02316546233423,61.78506764433102,128.5407000887331,139.9626757300895,209.6488687169079,196.4545027590428
2.7694361027694363,66.62301306156274,20.558461905235674,126.89252768896836,64.3047118173595,128.99836399790934,139.14863980902038,209.1561543342988,198.02996479413105
2.802802802802803,64.25142648716034,19.176161524991777,129.59616833929567,67.73007781710743,129.71037659044626,138.31566601310118,208.4465885564848,199.7048004246352
2.836169502836169,61.77646773589089,18.042581948559448,134.90320796457004,71.39654763783109,130.49378388381257,137.4304922339183,207.53732312134403,201.7249350973485
2.8695362028695364,58.99357040579338,17.14443122085809,140.56364974465538,75.43788755123218,131.43001480126105,136.85571201292433,206.3080521343946,203.32416379548687
2.902902902902903,56.31370447864646,16.106023384383704,144.85901480797105,79.19466143532657,132.3342555451462,136.77263744877007,205.2298612592584,204.48635692174187
2.9362696029362696,53.38446657100967,14.48678296323894,149.02939625602474,81.26365120850676,133.06268336743432,136.85008601398297,204.61660868871155,205.12668701724124
2.9696363029696364,50.65594886295248,13.357524519681402,152.2756446699791,83.86554176202617,133.82223984596428,136.9815664922753,203.9834483952609,205.64700716521995
3.003003003003004,48.13480953459299,13.675947157596568,150.71953920604454,88.54871796219085,134.99815356417406,136.54750128233096,202.69903868503664,206.55400353166127
3.0363697030363697,44.97264224707243,14.646852283016386,158.01446734148678,94.00130539362978,136.06958546155178,136.2483685324824,201.4106652020528,207.47187990149487
3.0697364030697365,41.4848390550973,15.708537507406716,166.92237759107363,99.8448724764954,137.13862266088452,136.18178776070707,200.1239535202657,208.15134212216373
3.103103103103104,38.23005754844878,17.060665214769134,173.07106105629197,105.1682138668048,138.00321522947652,136.24701192741162,199.077892586578,208.62476761823527
3.1364698031364697,35.05270240007971,19.07120840763498,177.20173163673846,110.182191937667,138.34130861920502,136.61916408266885,198.71304124215104,208.899609765797
3.169836503169837,31.038622039042725,20.14350509061781,180.5587840190863,115.19097633161957,138.71358283089083,136.76060361777814,198.33496949328,209.0840983721777
3.2032032032032034,25.89948084858542,21.50631313043683,180.47096173322848,117.79397925238564,138.61902576609023,137.29624554493677,198.5936909223416,208.33925002685223
3.2365699032365702,33.804279974851354,23.711861592856472,178.78131640128635,115.78692725905526,138.58940728097124,137.77521809996173,198.91858103414583,207.45155092669472
3.2699366032699366,44.05673636418609,26.462000438356306,173.22903419946246,117.94448154116522,138.54527627093697,138.34320550429032,199.13921778309432,206.9478337506312
3.3033033033033035,45.48070154492938,27.897542023620066,167.9486703853272,118.56700664721232,138.60540938190942,138.85743969277632,199.3909418554117,206.3269542180577
3.3366700033366703,47.92696369418902,28.38149526293674,163.91582809698642,123.80608239395865,138.67734834943005,139.20322293150184,199.779965782689,205.42460066161777
3.3700367033700367,49.24894518872051,28.639117632051978,160.76242130352304,125.6675871433432,138.9075649111838,139.3782520137238,200.11973720231487,204.48069482364224
3.4034034034034035,48.98332671102626,28.043751750956297,156.7830093869837,126.38195332812356,138.6129737374266,139.54455997179926,201.02350732139573,203.43831439035176
3.4367701034367704,48.27055953726616,27.87350631645944,150.5731103536315,126.34426618252594,138.2765349182351,139.8508725770523,201.78010062185865,202.36744311177364
3.4701368034701368,46.539554992793576,27.880609008441983,142.14897172013497,126.12262670247726,137.8938447095311,140.1973546162858,202.50123307367105,201.2198888299577
3.503503503503504,44.9057818595965,26.390659417308083,132.566504958452,125.29372853676983,137.71345671648908,140.64333867825823,202.84287470571755,200.0881559053522
3.5368702035368704,44.43458520358061,25.424586875685865,121.6442945452578,123.53719988387611,137.58619425746468,141.09626975921293,203.0776001672008,199.03511198271715
3.5702369035702373,44.61980515389467,24.64167624794042,116.87770279203126,121.03992756081864,137.564799055395,141.49963034605204,203.08391641662507,198.21080240004065
3.603603603603604,44.340479686535225,24.586023465651422,113.33126420243826,115.4103982798383,137.62186868632855,141.85910752592392,202.90905629528035,197.6092002703536
3.6369703036369705,43.90611930966093,24.388191985488152,108.15475355582088,109.3088729962422,137.92597241901916,142.18205424997424,202.5201811172776,197.1371113532967
3.670337003670337,43.79921779647652,23.929261005639933,103.25427946695947,101.61660793339712,138.3804987551827,142.4686689282395,201.9809505374088,196.781510386167
3.703703703703704,43.47555649956364,23.281697125904955,98.95150985018896,90.62628285673884,139.03950805701103,142.765567274284,201.24031672946364,196.5426611825972
3.737070403737071,42.81768160321904,22.238440586651112,92.08517764574128,86.4938310880481,139.85382977052652,143.02343022388922,200.3173208122168,196.45507496542643
3.770437103770437,41.351089550170784,20.577765284239195,85.15174393902339,81.97658184524683,140.84295832754174,143.34618919657976,199.3320618088809,196.44428974437065
3.803803803803804,39.24187090313909,9.096125931140508,77.72996174867458,76.25666684506287,141.96562612625667,143.66191037562194,198.3623700493382,196.52799412107245
3.8371705038371706,36.09163226155826,0.983810596374278,71.19679241811532,71.40757842595188,143.21433237407643,143.98939637115922,197.44295736399053,196.65919250611705
3.8705372038705375,33.259482230785515,4.261497226681603,65.75030741060908,67.77642883341164,144.57378553341383,144.3515856912926,196.52171241274195,196.8394059318186
3.903903903903904,30.71889931671305,4.261497226681603,61.15613280498906,65.63765289397108,146.08948801936083,144.77478085837,195.2320010416529,197.0599971880189
3.937270603937271,27.420918177356544,4.261497226681603,57.90014701560308,64.68452114076744,147.6848501823048,145.23310086983722,193.73792146462523,197.44132584059764
