Time,Left Shoulder Angle,Right Shoulder Angle,Left Elbow Angle,Right Elbow Angle,Left Hip Angle,Right Hip Angle,Left Knee Angle,Right Knee Angle
0.0,26.351117552511315,25.0531650329124,157.5750482884928,150.04551384625233,133.95517872062985,133.88070648833153,203.97911895878283,206.04147332574613
0.0333667000333667,26.76520599005979,25.01864811105991,158.42078066683789,150.12119694643522,134.23063255533543,133.7864278197078,203.2597112583276,206.69513470592148
0.0667334000667334,27.14455423968344,24.974259636036606,159.19172804614513,150.14678343217852,134.47979856560596,133.71166946713174,202.63953711472084,207.27954335230763
0.1001001001001001,27.489687665695868,24.919532996185705,159.89210197515706,150.12543013913773,134.70418870721238,133.65595118136284,202.11261777138785,207.79662678230736
0.1334668001334668,27.801131632410687,24.85400157985044,160.52611400261634,150.06029390296837,134.9053149359256,133.61879271316053,201.6729744717537,208.24831251332336
0.1668335001668335,28.07941150414151,24.777198775374025,161.09797567726554,149.95453155932597,135.0846892075166,133.5997138132843,201.3146284592435,208.6365280627584
0.2002002002002002,28.32505264520194,24.688657971099698,161.61189854784726,149.811299943866,135.24382347775628,133.59823423249358,201.0316009772824,208.96320094801507
0.2335669002335669,28.5385804199056,24.58791255537068,162.07209416310403,149.63375589224398,135.3842297024156,133.61387372154783,200.8179132692955,209.23025868649617
0.2669336002669336,28.72052019256607,24.47449591653021,162.48277407177852,149.42505624011545,135.50741983726553,133.64615203120655,200.667586578708,209.43962879560445
0.3003003003003003,28.87139732749699,24.34794144292149,162.8481498226133,149.1883578231359,135.61490583807696,133.69458891222916,200.5746421489449,209.5932387927425
0.333667000333667,28.99173718901196,24.207782522887765,163.17243296435092,148.92681747696082,135.7081996606209,133.75870411537514,200.5331012234315,209.6930161953132
0.3670337003670337,29.08206514142457,24.05355254477226,163.45983504573402,148.64359203724575,135.78881326066823,133.83801739140392,200.5369850455928,209.74088852071912
0.4004004004004004,29.142906549048465,23.884784896918195,163.71456761550516,148.3418383396462,135.85825859398992,133.93204849107502,200.580314858854,209.73878328636303
0.4337671004337671,29.174786776197227,23.7010129676688,163.94084222240696,148.02471321981764,135.9180476163569,134.04031716514783,200.65711190664007,209.6886280096477
0.4671338004671338,29.17823118718448,23.501770145367303,164.14287041518196,147.6953735134156,135.96969228354013,134.16234316438187,200.7613974323764,209.59235020797567
0.5005005005005005,29.15376514632382,23.28658981835693,164.32486374257283,147.35697605609562,136.01470455131053,134.29764623953656,200.88719267948787,209.45187739874984
0.5338672005338673,29.10191401792887,23.055005374980905,164.49103375332209,147.01267768351315,136.05459637543908,134.44574614137142,201.02851889139976,209.2691370993728
0.5672339005672339,29.02320316631348,22.80655020358267,164.64559199617372,146.665635231325,136.0908797116978,134.60616262064687,201.1793973115388,209.04605682724903
0.6006006006006006,28.946148336615213,22.54444113200818,164.88779953492656,146.43950958794298,136.12041697467546,134.7367433695083,201.32644722387928,208.7977357977892
0.6339673006339673,28.799964793108504,22.2152729196694,165.01502304319737,146.13387551715726,136.09925601800433,134.885929781317,201.4811030193401,208.52019604644
0.6673340006673341,28.58571558848968,21.812272141771977,165.07725744858092,145.73791415162873,136.08924377943268,135.0431122998512,201.59395045825687,208.1724747102884
0.7007007007007008,28.31839327290434,21.34145110639468,165.11588827066177,145.26404237928853,136.1295538398845,135.2218484172103,201.6663974880392,207.773794417789
0.7340674007340674,28.08462241137352,20.845882125133432,165.18904028455268,144.76621255813495,136.13437546137848,135.41223535331952,201.748722920248,207.3170940780431
0.7674341007674341,27.87834641121989,20.356710076128973,165.33190380865778,144.29276988632185,136.0909221085005,135.6199787025174,201.84060910364684,206.83077286933408
0.8008008008008008,27.66458049196653,19.885847327035705,165.53986400413368,143.9074637022808,136.08495020970136,135.85532116402555,201.8707203654876,206.3238737055998
0.8341675008341676,27.40216238226468,19.444269249909745,165.80542981577403,143.6014190704273,136.14374087705224,136.115130159537,201.8420439236601,205.8047572030337
0.8675342008675342,27.078100066883604,19.07514265954897,166.12712452152837,143.4411628942182,136.3002077736365,136.39743724429195,201.71991087353507,205.30147437545395
0.9009009009009008,26.742866034894952,18.802770576231435,166.53856896139814,143.45937639897082,136.51923920885707,136.70311526031423,201.52963104562684,204.7910097307951
0.9342676009342676,26.40639206222589,18.61976851576171,167.03073866617535,143.6284950007121,136.79767829266072,137.07089093620002,201.26245885547652,204.26477776629508
0.9676343009676344,26.096196968910903,18.44860226934599,167.6116337293064,143.85886296117647,137.14331258938046,137.47940480707533,200.9106334543046,203.73525949600412
1.001001001001001,25.772057414801257,18.316280773915604,168.2599265302234,144.14387101262864,137.57077801808015,137.91884058983408,200.4459850860871,203.2104445281296
1.0343677010343677,25.444896258665537,18.141917471302968,169.00211037913238,144.34159080136905,138.0195816975199,138.3787939456098,199.9865843102184,202.69365205701703
1.0677344010677343,25.10219476171057,17.973736947597125,169.7998557485659,144.5517272514803,138.49730706495498,138.85149320911924,199.5129435638308,202.1923683376857
1.1011011011011012,24.74460214118452,17.821912432885004,170.6311231854253,144.798620476631,138.9782231883574,139.34322401787065,199.0916357747246,201.6957951086731
1.1344678011344678,24.41219269150432,17.70448134580703,171.46237134267463,145.0535980573536,139.53343812656237,139.85540034836785,198.6555226324964,201.23131392282653
1.1678345011678346,24.10737038425405,17.52768417881594,172.35923174456315,145.16574955669776,140.0395877912022,140.39867257290788,198.32479650904648,200.7806049617483
1.2012012012012012,23.76346579014168,17.35490841251312,173.28512330354897,145.26514088295477,140.60706886538028,140.97031181097245,197.9548348362368,200.34351313273856
1.234567901234568,23.45885684633096,17.151372859237018,174.14638699992588,145.35790146391585,141.1433205021618,141.54116974363995,197.57989489152632,199.94979656897792
1.267934601267935,23.2006032162725,16.922459982965062,174.9686769460344,145.4530121793956,141.58039793043778,142.11526792293492,197.28580812361457,199.61443937613643
1.3013013013013013,22.972759931212213,16.880547106196,175.8535797185949,145.31339294271473,141.90896689748826,142.67916462437967,197.0646195047632,199.3194052933281
1.334668001334668,22.758541004095765,16.67326133733929,176.70768024972494,145.37444383684905,142.15674264207792,143.246668013906,196.8902100189713,199.03436091149743
1.3680347013680347,22.586634044813213,16.39892708112006,177.62517572484194,145.5900357485626,142.3244190370457,143.82456833178395,196.7635413252276,198.7537742752278
1.4014014014014016,22.42012084787504,16.178637867815645,178.58325581372142,145.98083143606007,142.42667253490148,144.4146719628116,196.7041224488642,198.48474725437543
1.4347681014347682,22.25154586395429,15.911668941062064,179.46628433659697,146.19714558959626,142.47303118695964,145.00801656502026,196.71793043080245,198.2127524893461
1.4681348014681348,22.089560067110373,15.471774284035266,180.2109829190634,146.2634859731319,142.47491390210592,145.61270714254536,196.81891954304817,197.9402035179833
1.5015015015015016,22.09628325734897,14.874831866460775,181.3703194210797,146.19398263856024,142.4105576314194,146.2053236742364,196.9762858307873,197.6634520048399
1.5348682015348682,22.10669097890128,14.09460073815976,182.59033186012715,146.15162389624996,142.2747666438366,146.78049078281032,197.20581326779995,197.390879934104
1.5682349015682349,21.993209977271057,13.057587922831988,183.75980003437297,146.2097416766593,142.06263491157344,147.35054566975154,197.51936425902323,197.1380544568785
1.6016016016016017,21.757532669377497,12.124863428912391,185.097341802082,145.8711699015554,141.76702031187727,147.8744618826256,197.91522804086208,196.91647379463453
1.6349683016349683,21.35676822044111,11.088421662391491,185.29819309321465,145.51165321563025,141.3781320074212,148.3884901306788,198.39978575885192,196.69910579559948
1.6683350016683351,20.55884358221859,10.076218766111054,184.84363851233525,145.11717078028295,140.9535863590962,148.89547189528292,198.9411865317624,196.474101744454
1.7017017017017018,19.622606097657,9.0211494754222,183.98173985290475,144.7986604918382,140.45537716246145,149.41222897957616,199.5424631055369,196.235027456796
1.7350684017350684,18.485337739946345,8.145783361456244,183.21855365877423,144.19009808526596,139.888967321083,149.89683212119627,200.1863483110418,196.00435592228652
1.7684351017684352,17.42862823800921,7.449216935243523,182.47683391428205,143.2139286272332,139.2897927624919,150.33454290238743,200.8582264107674,195.77932349227697
1.8018018018018016,16.30000946783647,6.982651565037383,181.12989884971185,142.07454053562833,138.7674073780021,150.76797082718466,201.4860734357437,195.5024451105401
1.8351685018351689,15.077082033021366,6.777680324279818,179.7659495697507,140.9293405634335,138.22481232089416,151.1874411473055,202.1189670179583,195.2254314215589
1.8685352018685355,13.861378606968978,6.716212730865736,179.27528300216753,139.7367114665661,137.6415474905036,151.58822797172496,202.7560613195388,194.9644849898734
1.901901901901902,12.506451618122778,7.089884084079522,176.79706293385524,137.53270818830072,137.1020053176768,151.99795125743924,203.3370776111429,194.72199397905635
1.9352686019352687,11.081427872743506,7.378600596338052,177.2374504843883,134.27800400322104,136.77224608747915,152.394925293507,203.7657997329606,194.5074534511594
1.968635301968636,9.970563406772238,7.56682063541249,176.62206132509291,132.81851574377683,136.54167098015756,152.76407684814637,204.1127745329848,194.3122994123609
2.002002002002002,8.967733706141711,7.763608401480352,175.7508991633295,132.81362253893604,136.39462114747755,153.12727460964533,204.3987820557733,194.13271706841908
2.035368702035369,8.448363973692798,7.712014829177369,174.56722098164417,134.20788425354914,136.29240617198045,153.48557136246586,204.6649605384893,193.9489426844817
2.0687354020687354,8.16658703202742,7.457957882976359,173.25245590738797,136.75086137665318,136.23190625281646,153.86361481149248,204.90396539820048,193.78000893343776
2.1021021021021022,8.16658703202742,7.480191532013949,171.9387435242515,142.65329579383285,136.217145300455,154.17713311649933,205.11456886265995,193.63004654990056
2.135468802135469,8.16658703202742,7.871034008233938,170.5633268444433,147.06152602385,136.2276565739256,154.42751782713287,205.33206856278173,193.5064388564004
2.1688355021688355,8.16658703202742,8.396925761878279,169.2013871031648,150.35206243753325,136.19519445936365,154.62685583494678,205.63282023950973,193.4090940078972
2.2022022022022023,8.16658703202742,9.354419953567264,167.72519800060678,152.03560947001588,136.182028247788,154.75836323328784,205.9297321023502,193.3343344738664
2.235568902235569,8.48523905763631,10.585235048553834,165.95897219875846,152.75325325926013,136.1951483311433,154.8368518016563,206.21897835971217,193.2706734170833
2.2689356022689355,9.159600313162308,11.814931502860446,163.86439200280168,152.39587651158973,136.25072333472343,154.86086396108809,206.4567225094966,193.23500600787887
2.3023023023023024,10.367061142842314,13.323550608512427,161.86612636612327,151.41300485304134,136.26720174968668,154.8342693409294,206.7035393299279,193.2248711469144
2.335669002335669,11.901582859937877,14.805893828999992,159.6923059164467,149.8306850135325,136.32279111827248,154.76258202669936,206.82345415756583,193.2226919743396
2.369035702369036,13.532658669427496,16.176989849494465,157.36445551191284,147.415768145524,136.27667513533297,154.64295313831374,206.9884843122717,193.26890150321748
2.4024024024024024,15.330856390963538,17.580109791166368,154.79975719434458,144.20836040250626,136.20336554073984,154.50333700270508,207.2097197892897,193.3452468688688
2.4357691024357693,17.068362805522863,18.944070790948143,152.22255931180365,140.19485731013228,136.15848545506523,154.34975987349935,207.4303690303618,193.42942589087176
2.469135802469136,18.972895249985097,20.01637696674076,149.9391810888838,135.6443709683235,136.12014286876007,154.19668640383966,207.64649144502263,193.5246594950705
2.5025025025025025,20.9845252662158,21.123946353750554,147.81963648742618,130.48722046353998,136.10166866329988,154.043281763521,207.89147460333749,193.6513365189537
2.5358692025358693,14.154803365360555,22.24868848695163,145.86401386980054,124.82138652527038,136.1322063391731,153.88052720170424,208.14079196840737,193.810190680024
2.569235902569236,10.611738082220274,23.20615586992598,144.21093734880336,118.63466571804666,136.1926015596407,153.70491854854052,208.3984418488949,194.00390906552363
2.6026026026026026,9.84292807776659,24.20848695197775,142.80285590467196,112.47248300319272,136.27473578110627,153.53838981974857,208.65552563958383,194.2276337762829
2.6359693026359694,11.80529406838384,25.29816911881939,141.85240252632937,106.22305436953934,136.36452362481174,153.3605884262821,208.9042996342405,194.47512839510568
2.669336002669336,16.152383629817702,26.46159707154036,140.74140228419753,99.97625396290348,136.46607996008748,153.18948687957877,209.17203749528423,194.74163147711948
2.702702702702702,22.46613299628757,27.79974488783059,139.6641498342356,93.615401492098,136.57464326693594,153.02614375727913,209.4545005059745,195.0288800211869
2.736069402736069,30.698815314525064,29.48425619141289,138.5709878733114,87.1108330320962,136.68832808693065,152.85944281271222,209.7451303650025,195.33286006359924
2.7694361027694363,40.50436942161902,31.20173119617589,137.0957632370524,80.95044612115092,136.8164353551888,152.718987443409,210.03389862698168,195.65485038950183
2.802802802802803,51.40072677920563,33.14496567932377,136.59386882447427,74.82827675232065,136.96821096087507,152.58122205384294,210.29781704220645,195.9885535682008
2.836169502836169,63.22999777708873,35.25880046740727,136.74812636531345,68.80270630027907,137.13207481130726,152.4571170559791,210.5256778065188,196.3200586077528
2.8695362028695364,75.82991275530581,37.64423005972134,137.55795026361855,62.80737533740904,137.3040358206622,152.32365772080735,210.7245133648944,196.6485004336222
2.902902902902903,88.92297102759343,40.08267613590067,138.56014300029898,57.22695446673385,137.50231222408823,152.19586412403538,210.9104576562568,196.97189035216303
2.9362696029362696,102.41670549044026,42.54102326345579,139.73304077852603,52.238890098958365,137.72088373941222,152.08053474880188,211.09178424169684,197.2854538555229
2.9696363029696364,116.38884880995334,44.94949464989136,141.85528854590305,47.927279956795445,137.9201619394568,151.979860665867,211.25608739924112,197.58903282254948
3.003003003003004,130.48317021763376,47.177166614117446,144.51753962948774,44.30074054393162,138.15217184174915,151.91071320384174,211.38633841956533,197.86651304591385
3.0363697030363697,144.7003647484459,49.231337773883375,146.50981595232076,41.46658363897733,138.4065197426933,151.86985789656725,211.5078743538341,198.12201908579007
3.0697364030697365,158.61240475019108,50.68988824555411,150.94514448886633,40.97684893380497,138.69779630819983,151.8300157433211,211.5565039597301,198.3664458774272
3.103103103103104,172.21313334482187,52.005883719671786,152.64765269510156,43.89630973085416,138.90986886158555,151.8020191075156,211.65439901775187,198.58044201300467
3.1364698031364697,185.4979535392192,45.562067778541255,154.94089812862697,47.71575627029724,139.08392234554188,151.79392230195427,211.77789499049072,198.7887226685481
3.169836503169837,198.3456313094038,41.52075996994806,157.21223919637788,52.406846479004784,139.20144363494924,151.78774400901267,211.94847678675927,198.9818997648171
3.2032032032032034,210.95024733094067,40.023578305293576,159.45334421383083,57.49054867537156,139.2594448163577,151.77753409637165,212.16744628473705,199.15155803875268
3.2365699032365702,223.1694082185938,41.07614244238884,161.72594074319187,62.53834771320161,139.27925189159336,151.72147357405342,212.43156439748483,199.2784569013309
3.2699366032699366,234.55532126397,44.12266110663938,163.8726987683851,63.82187421143316,139.25003890576872,151.66947240216766,212.72208740811732,199.3760112416649
3.3033033033033035,245.23751478940767,48.900029923817264,165.8918319714541,65.09259807921356,139.19308997516316,151.6114095599038,212.994923437536,199.4531852365987
3.3366700033366703,254.84323542360133,55.40186329358647,167.5633917169487,66.0766826428324,139.1016996986506,151.53713248689476,213.305375814094,199.4935360556531
3.3700367033700367,263.3761850911937,63.177995586696014,168.6938970473739,67.48186728623021,138.94634006954058,151.46567529518134,213.6691531708355,199.51111118997608
3.4034034034034035,270.2940728872556,72.08868389248377,169.58778204232482,68.81035974565248,138.7305523633597,151.39661207619298,214.08093255028555,199.51840917965387
3.4367701034367704,275.5747614660864,82.09619541513835,170.42057246041637,70.15640022877757,138.53297010661197,151.34272615379112,214.51234495084407,199.4904792161213
3.4701368034701368,278.8767437498011,100.69988970148742,170.8727307724469,71.2185066355189,138.3123217345608,151.34106075389357,214.9539491142565,199.35379314427897
3.503503503503504,280.2205652184676,109.78091698184518,170.95532140393786,71.73296238286635,138.0650904258145,151.41795899248362,215.42634350248983,199.1020472794711
3.5368702035368704,279.56448460323486,119.7760989993442,170.6721696384095,71.96634750640811,137.80674474641702,151.47651229938336,215.9020136472987,198.9081116748172
3.5702369035702373,276.6047599050811,130.38537846264947,170.2240272681613,72.0018702953237,137.43250635805913,151.50936900619453,216.3778016252472,198.77790373506588
3.603603603603604,271.39307921132985,141.5919922077157,169.4630890016253,71.88379686578428,136.97823658250948,151.50934976083394,216.88368964755392,198.7664964997969
3.6369703036369705,263.7982868164294,161.46450226679056,169.3468019251264,72.13670054396293,136.50157809807905,151.47886758793115,217.43404446842524,198.80300488034467
3.670337003670337,253.90741784085972,179.53922910894224,169.85012509272983,73.08504997732314,135.93761876675867,151.31837834473447,218.09542028207707,198.97395389306104
3.703703703703704,253.69602910637,195.4108892054913,169.7563608417985,73.83556692910439,135.40093191321716,151.11576479597167,218.8046800817931,199.29360050862348
3.737070403737071,253.62854383195472,209.16689751447075,169.85398634919326,73.95688162809229,134.85251373975754,150.81767161786658,219.6399938988969,199.8185973214597
3.770437103770437,253.0956390653772,221.0893280701783,170.87846243182818,74.13515601710303,134.3211961837292,150.45292795640174,220.4929884144164,200.4719176538948
3.803803803803804,252.409040403162,230.9355188857637,169.0531821432253,74.27655564032523,133.79275640321046,150.023455977089,221.41245888601225,201.20240700236707
3.8371705038371706,261.1677626182927,238.61645850733933,174.31795110724946,75.19616938459745,133.2753766121048,149.43489768468953,222.3327660933608,202.1148420293383
3.8705372038705375,267.34452934680667,243.8269524983249,175.72613517505394,74.80768408755222,132.8432621223331,148.7341386460331,223.11757249294448,203.20978305010212
3.903903903903904,269.462777163302,246.19988164853183,173.7174029356474,73.45713224255657,132.4350482591847,147.8967932792328,223.82844231599145,204.46019290209995
3.937270603937271,269.53154314055183,246.50773726031,174.60811840910912,72.95373228323872,131.99873217059357,146.99093756707478,224.48694828673584,205.84087716434183
