Time,Left Shoulder Angle,Right Shoulder Angle,Left Elbow Angle,Right Elbow Angle,Left Hip Angle,Right Hip Angle,Left Knee Angle,Right Knee Angle
0.0,23.006888823819835,29.34031848605916,178.80815922612038,197.0282506258659,139.48366272739597,123.51823186091733,192.03429644586345,210.88939658995167
0.0333667000333667,16.865614250369084,26.327646073090182,173.71753016928767,185.0199258430592,140.24047364557282,127.86639125551618,191.00937697951304,206.4053026976677
0.0667334000667334,13.286363887000991,24.22141268034624,169.47042457971975,173.84049353846143,140.68068379963057,131.68911958514747,190.39375469668204,202.55643938399533
0.1001001001001001,12.05890466511422,22.94890579498372,165.99170644123907,163.45787731610525,140.83255828519057,135.0132338732507,190.15234709114893,199.3063914581097
0.1334668001334668,12.973003516107443,22.43741290415902,163.20623973766806,153.84000078002308,140.72436219787411,137.86555114326535,190.2500716566924,196.61874372918572
0.1668335001668335,15.818427371379338,22.61422149502856,161.03888845282913,144.95478753424737,140.38436063330255,140.27288841863097,190.65184588709067,194.4570810063988
0.2002002002002002,20.38494316232857,23.40661905474872,159.41451657054478,136.77016118281068,139.84081868709717,142.26206272278705,191.3225872761224,192.78498809892392
0.2335669002335669,26.462317820353828,24.74189307047593,158.25798807463744,129.2540453297454,139.1220014548793,143.8598910791731,192.22721331756603,191.56604981593625
0.2669336002669336,33.84031827685377,26.54733102936657,157.49416694892952,122.37436357908402,138.25617403227025,145.0931905112286,193.33064150520005,190.7638509666108
0.3003003003003003,42.30871146322705,28.75022041857705,157.0479171772435,116.09903953485905,137.2716015148914,145.9887780423931,194.597789332803,190.34197636012289
0.333667000333667,51.65726431087241,31.2778487252638,156.8441027434018,110.39599680110295,136.19654899836402,146.57347069610609,195.9935742941533,190.26401080564744
0.3670337003670337,61.67574375118843,34.05750343658318,156.8075876312269,105.23315898184823,135.05928157830945,146.8740854958071,197.48291388302948,190.4935391123597
0.4004004004004004,72.15391671557384,37.016472039691614,156.86323582454122,100.57844968112734,133.888064350349,146.9174394649355,199.03072559321004,190.9941460894348
0.4337671004337671,82.88155013542729,40.08204202174551,156.93591130716715,96.39979250297272,132.71116241010398,146.730349626931,200.60192691847345,191.7294165460478
0.4671338004671338,93.64841094214748,43.18150086990126,156.95047806292726,92.66511105141694,131.55684085319578,146.33963300523297,202.16143535259823,192.66293529137383
0.5005005005005005,104.24426606713304,46.24213607131528,156.83180007564386,89.34232893049243,130.45336477524563,145.77210662328096,203.6741683893629,193.75828713458813
0.5338672005338673,114.45888244178268,49.191235113143975,156.5047413291395,86.39936974423165,129.42899927187491,145.05458750451447,205.10504352254588,194.97905688486568
0.5672339005672339,124.082026997496,51.95608548254422,155.8941658072383,83.80415709666813,128.51200943870597,144.21389267237416,206.4189782459273,196.28882935138336
0.6006006006006006,130.09744572234396,43.27035830286897,154.0378705985136,77.31282347811288,127.72768032555209,143.63078563179027,207.1972513319038,197.30471581646933
0.6339673006339673,134.52159552996253,39.03599339102486,150.4824152207503,70.51697838008764,127.268519065583,143.01468146664698,207.76453274423983,198.2451603072552
0.6673340006673341,128.96001666864578,37.25368458038608,143.9390552655002,65.07139158633389,127.3536549724759,142.20000955374832,208.01918469188888,199.3337347537464
0.7007007007007008,125.57250611469924,37.02189763737734,137.56344738238892,61.50187041628048,127.60405618182688,141.1359520321383,207.95236561522017,200.569167327315
0.7340674007340674,123.6205192632054,38.460881305232384,131.10433261495146,59.55856732187774,128.0101762712706,139.85517880430902,207.5494646129169,201.856881628988
0.7674341007674341,122.59855060300804,41.27705852196045,125.04077850843302,59.6862184521619,128.75255236486717,138.69932293637623,206.76436888499805,202.7918831084957
0.8008008008008008,122.43307643661542,45.49747886253024,119.22824479562756,61.4149818433867,129.72118835431803,137.63848272383356,205.87563503372093,203.4960539870829
0.8341675008341676,122.78174043685496,50.9016565882067,113.70771185784844,64.72378537083395,131.039514200529,136.72905583410343,204.6222072391868,203.97180483957257
0.8675342008675342,123.34896268517032,57.11458386116339,108.67564038251052,69.12728121018344,132.6678925722622,136.12282622817042,203.1525124196898,204.10309253528555
0.9009009009009008,124.08343101313092,63.670985174928376,104.31844607169953,74.42777479553551,134.72617655144015,135.73347056022908,201.40158963139933,204.00478376216503
0.9342676009342676,124.87696169301503,70.64504105681566,101.46430477719792,80.47551404292794,136.98432093735775,135.60240466305098,199.52932861527563,203.6243022702353
0.9676343009676344,125.09250997687464,79.03965435599984,100.29979998065122,87.71470058607898,139.32273007947012,135.69619314299914,197.5931773757952,202.9893712538301
1.001001001001001,131.47539138491263,88.42365195558543,95.44788294730408,95.19001637785692,141.88747613194545,136.06980484339115,195.52148348463285,202.00324593953465
1.0343677010343677,135.19163693368648,98.58696529344488,90.68661694676165,103.10917931635372,144.64794213869283,136.64064143046133,193.27834427638348,200.66867386328903
1.0677344010677343,136.33478910733433,108.64652295686663,85.14560185331896,110.22714379262491,147.5255634969176,137.39265010673537,190.92005518562377,199.02662582537383
1.1011011011011012,135.4290758317426,120.25106096128152,79.83034586976628,116.60893645500995,150.41108910315845,138.28696334880547,188.6338158344222,197.1270403154896
1.1344678011344678,133.1426601503391,132.25077917039113,75.70256848774261,122.43677760090232,153.12518621931747,139.30764197304757,186.5847384499133,194.99169614090303
1.1678345011678346,140.7835921738354,143.97793559815872,72.23341505779332,126.48639447966688,155.77697817038387,140.4140009024721,184.70131227217428,192.6674593012288
1.2012012012012012,148.7754730672724,155.55827134771073,69.30037542049082,131.21758808349247,158.41026804520456,141.69464608092244,183.00201255589863,190.16917206371176
1.234567901234568,156.60837163603958,167.98847520795076,67.48422611991211,136.68719686638374,161.00106492319583,143.20093400393807,181.59091378234945,187.5455027522764
1.267934601267935,164.74242877198907,190.90940829921755,66.36032876231555,142.6323410576079,163.48926133562756,144.82824545485477,180.4981971142151,184.8746887388305
1.3013013013013013,173.46791762651603,205.0395276688108,66.00480216586162,146.94445766155113,165.79336156467195,146.61186410644154,179.78185352630513,182.2328915635185
1.334668001334668,183.37651000998525,219.03868279920627,66.22505273092506,148.86685950064418,167.773099752452,148.26188060023503,179.3256036261992,179.89020165157226
1.3680347013680347,195.0477469280052,232.45735419412364,67.1184061888242,149.38919423293555,169.29439398297285,149.80375146384822,179.0481581425464,177.76090614806233
1.4014014014014016,195.1078750096466,244.4391241273176,66.24757527256493,149.895272347361,170.68081629476615,151.15495212263684,178.62407674565762,176.03190180460874
1.4347681014347682,193.1883262047416,252.7835164582686,68.89153066641353,153.5057779524303,172.13618435745104,152.2395444308638,178.3732319418,174.58719575824765
1.4681348014681348,189.95907413315,260.1122056146692,71.64033620292764,156.88471293947504,173.4632961998794,153.2567665481735,178.20508086189213,173.29580682815757
1.5015015015015016,185.48175382716565,266.4104687766909,74.37829951985731,159.98028106407466,174.65976346327582,154.20186161061193,178.10988195735067,172.16438016838532
1.5348682015348682,179.8180003190839,271.6635831245069,76.98972825495343,162.74068608180977,175.72319778886612,155.07007275422637,178.07789367959376,171.1995609329793
1.5682349015682349,173.02944864119965,275.85682583829004,79.35893004596676,165.11413174826092,176.65121081787603,155.8566431150639,178.09937448003956,170.40799427598785
1.6016016016016017,165.177733825808,278.9754740982132,81.37021253064829,167.0488218190087,177.44141419153138,156.55681582917185,178.16458281010628,169.7963253514594
1.6349683016349683,156.32449090520402,281.00480508444934,82.9078833467488,168.49296004963367,178.09141955105795,157.16583403259736,178.26377712121206,169.37119931344228
1.6683350016683351,146.53135491168277,281.9300959771716,83.8562501320192,169.39475019571643,178.59883853768156,157.67894086138767,178.38721586477504,169.13926131598487
1.7017017017017018,135.8599608775393,281.7366239565528,84.09962052421031,169.7023960128376,178.96128279262797,158.09137945158997,178.52515749221345,169.10715651313558
1.7350684017350684,124.3719438350688,280.4096662027658,83.52230216107296,169.36410125657764,179.176363957123,158.3983929392515,178.6678604549454,169.2815300589428
1.7684351017684352,112.12893881656598,277.9344998959836,82.00860268035791,168.32806968251725,179.24169367239242,158.59522446041944,178.80558320438908,169.66902710745484
1.8018018018018016,99.19258085432652,274.2964022163792,79.44282971981627,166.54250504623693,179.15488357966206,158.67711715114103,178.92858419196267,170.2762928127201
1.8351685018351689,85.62450498064476,269.48065034412554,75.70929091719876,163.95561110331727,178.91354532015765,158.63931414746344,179.0271218690843,171.109972328787
1.8685352018685355,71.48634622781651,263.4725214593954,70.69229391025623,160.5155916093389,178.51529053510507,158.47705858543392,179.0914546871722,172.17671080970388
1.901901901901902,56.83973962813612,256.25729274236204,64.27614633673952,156.17065031988236,177.95773086573004,158.18559360109964,179.11184109764446,173.4831534095191
1.9352686019352687,41.74632021389926,247.8202413731981,56.34515583439949,150.86899099052823,177.23847795325838,157.76016233050785,179.0785395519193,175.0359452822811
1.968635301968636,26.267723017400503,238.1466445320768,46.78363004098706,144.55881737685706,176.3551434389159,157.1960079097057,178.98180850141486,176.8417315820382
