Time,Left Shoulder Angle,Right Shoulder Angle,Left Elbow Angle,Right Elbow Angle,Left Hip Angle,Right Hip Angle,Left Knee Angle,Right Knee Angle
0.0,28.306151018426657,41.231328317216175,165.24241616586,164.2536389925197,142.15213173805225,137.45805707180642,198.70562833925447,206.14594766282
0.0333667000333667,27.97835188439122,41.3703204040702,164.7797932358812,164.53283823904798,141.99208272660852,137.49630720751802,199.39585722257,206.1255073922876
0.0667334000667334,27.70218390739008,41.48318292594086,164.37411879838143,164.76484393988548,141.829064538289,137.52274429449514,200.0114530654942,206.11491074033447
0.1001001001001001,27.47603237240013,41.571205167784086,164.024310387155,164.95274025242594,141.6633455955078,137.5384857181927,200.55601509707512,206.11347158940217
0.1334668001334668,27.29828256439829,41.6356764145558,163.72928553599604,165.09961133406304,141.49519432067896,137.5446488640655,201.03314254636064,206.1205038219317
0.1668335001668335,27.16731976836145,41.67788595121195,163.48796177869883,165.20854134219047,141.3248791362166,137.54235111756836,201.44643464239888,206.1353213203644
0.2002002002002002,27.08152926926652,41.699123062708445,163.29925664905755,165.28261443420195,141.1526684645347,137.53270986415615,201.79949061423773,206.15723796714147
0.2335669002335669,27.0392963520904,41.70067703400122,163.16208768086645,165.32491476749115,140.97883072804743,137.51684248928376,202.09590969092528,206.18556764470432
0.2669336002669336,27.03900630180999,41.68383715004621,163.0753724079197,165.33852649945177,140.80363434916882,137.495866378406,202.33929110150945,206.2196242354942
0.3003003003003003,27.0790444034022,41.64989269579934,163.03802836401158,165.32653378747756,140.6273477503129,137.4708989169777,202.53323407503825,206.2587216219523
0.333667000333667,27.15779594184392,41.60013295621654,163.04897308293627,165.29202078896216,140.45023935389378,137.44305749045373,202.6813378405596,206.30217368652
0.3670337003670337,27.273646202112072,41.535847216253735,163.107124098488,165.23807166129927,140.27257758232554,137.4134594842889,202.7872016271216,206.3492943116385
0.4004004004004004,27.424980469183545,41.45832476086686,163.21139894446097,165.16777056188263,140.09463085802224,137.3832222839381,202.85442466377225,206.3993973797491
0.4337671004337671,27.61018402803525,41.36885487501184,163.36071515464943,165.08420164810593,139.9166676033979,137.35346327485615,202.8866061795594,206.45179677329307
0.4671338004671338,27.827642163644075,41.2687268436446,163.55399026284758,164.99044907736285,139.73895624086668,137.3252998424979,202.8873454035312,206.50580637471168
0.5005005005005005,28.07574016098694,41.15922995172108,163.79014180284963,164.88959700704706,139.5617651928426,137.29984937231825,202.8602415647356,206.5607400664462
0.5338672005338673,28.35286330504074,41.041653484197205,164.06808730844983,164.7847295945523,139.38536288173972,137.27822924977195,202.8088938922204,206.615911730938
0.5672339005672339,28.657396880782592,40.91728672602925,164.38674431344373,164.67893099727354,139.21001772997332,137.261556860315,202.73690161503552,206.67063525062989
0.6006006006006006,28.950163940400337,40.85137673451254,164.6944458196347,164.66234753951537,139.0782865570381,137.23233101011948,202.61746038676733,206.74091726847345
0.6339673006339673,29.28215302577821,40.74870092275783,165.05881294477882,164.65337496710725,138.95200927237937,137.23964390316874,202.5103526325404,206.77784904639995
0.6673340006673341,29.716818880836545,40.62517716368031,165.57273732658143,164.6088300824575,138.81413029437374,137.23643720555378,202.4226901019657,206.8136059876352
0.7007007007007008,30.171796610627144,40.48092028622828,166.13056068725064,164.5542721741944,138.67151603668316,137.25674536037326,202.319990715106,206.83840699109223
0.7340674007340674,30.63693489514158,40.32189868114928,166.69489641769192,164.46634230251652,138.50450060050247,137.2904685517802,202.21356015345623,206.86585293548697
0.7674341007674341,31.114663653366403,40.15808616411567,167.28797826673005,164.38745084785046,138.32138114637266,137.3477810264108,202.1095751243915,206.8921559982562
0.8008008008008008,31.60785595508968,40.00224607994016,167.91969508647608,164.35383665614,138.1217211526623,137.44741457735975,202.0202917198341,206.9174245334772
0.8341675008341676,32.08920980076659,39.84410477528946,168.54378270736845,164.34101662478065,137.91074916157476,137.57441641217298,201.94209331173064,206.9401170601332
0.8675342008675342,32.5606141207494,39.702335546337686,169.16056942511273,164.34972909227943,137.6964483375533,137.679782442858,201.8781138950717,206.9816418450725
0.9009009009009008,33.027310030220804,39.555201246100445,169.81738125985947,164.35993939389135,137.48194855419737,137.78672203501475,201.82992490275475,207.02872253111644
0.9342676009342676,33.51037268305043,39.49472328097114,170.51689268878397,164.4798792765744,137.31541149402744,137.8973041250995,201.7933714708743,207.06829371007487
0.9676343009676344,33.98337526030069,39.42134651391306,171.2150989886523,164.56394197750686,137.15375726006266,138.01784192774934,201.7713095462772,207.10282998549712
1.001001001001001,34.41534582244037,39.35677114200447,171.74259324249203,164.652028190339,136.97061072652528,138.14779018451964,201.77724095370988,207.15372535853564
1.0343677010343677,34.756502506235954,39.26621082349512,172.1363516280495,164.7229263757389,136.78228875483342,138.2980337445777,201.7962898056036,207.19328486522863
1.0677344010677343,35.03909778831478,39.134453523752086,172.48914561071973,164.70849612849585,136.5894622795071,138.40308366079103,201.8059396256476,207.27563619162868
1.1011011011011012,35.32767366120704,38.99905929839348,172.90526212344793,164.67792565904304,136.3395025543752,138.4355638714237,201.8541835619744,207.39628549737225
1.1344678011344678,35.57698271953861,38.93151555491304,173.28855749503123,164.61799372827102,136.1295599216693,138.4279961192944,201.8834424049964,207.51355882083848
1.1678345011678346,35.76957094437774,38.82509142840415,173.70363717737757,164.5380226857399,135.94465999997888,138.4551708474425,201.8965118460879,207.56910669231607
1.2012012012012012,35.94975647423,38.728197721807305,174.0632591598703,164.52558104539756,135.7711565149454,138.49514368692445,201.91176714572515,207.57128634035087
1.234567901234568,36.08480549614568,38.56402053751079,174.48963720321277,164.49570897533638,135.60547913452197,138.60143787742118,201.9180557667498,207.48824394143588
1.267934601267935,36.18130469759233,38.37208637451378,174.91058083885966,164.39073976216207,135.5477730477377,138.80285789169525,201.76321548362148,207.30793096074248
1.3013013013013013,36.1976013956231,38.0724524636488,175.34102162543988,164.21689201742996,135.51036778504292,139.08122814532922,201.59933422376872,207.033487335917
1.334668001334668,36.1374507487033,37.767223641707375,175.75549383304303,164.05111696290336,135.43864152498708,139.39953591855942,201.5368108619172,206.7053741245088
1.3680347013680347,36.012287103281004,37.35338690539606,176.22986966296108,163.84339758751693,135.3494717082401,139.77536296717602,201.5439390593628,206.3116495534289
1.4014014014014016,35.93867466507501,36.959696007076,176.93727119885634,163.58520101417488,135.33811341791204,140.2187840683494,201.5003179777133,205.8341009789282
1.4347681014347682,35.79553935979452,36.46822178445258,177.70342616887064,163.33629999243223,135.32984738054168,140.72500457305827,201.4831681643162,205.2857263383249
1.4681348014681348,35.61617503477053,36.02248470822001,178.18670140891206,163.2677460521868,135.21450455911406,141.18896740705466,201.573227497648,204.8198613815724
1.5015015015015016,35.42070281481773,35.46993679460029,178.74659769437713,163.2058439472454,135.03485162215807,141.68067833424476,201.75794643703904,204.31756867133933
1.5348682015348682,35.08300668377788,34.95252594671326,179.04226477151408,163.23505925082523,134.8676861003747,142.23239823538538,201.91164205186857,203.737670414666
1.5682349015682349,34.604420378409294,34.179288305457376,179.3963494791084,163.1267167498787,134.67147795538,142.85458204952658,202.08713175628688,203.0857255847241
1.6016016016016017,34.06056637727264,33.07102410604112,179.69952885839905,162.96158518714728,134.59832128049706,143.5764195065927,202.1915578786465,202.35081817499875
1.6349683016349683,33.40273807102367,31.773747436594807,180.19469221769208,162.61089843402237,134.5079124138418,144.3525852195144,202.3197422676152,201.5623525460372
1.6683350016683351,32.7002934858232,30.20779180833622,180.76897461831112,162.03502577178128,134.3761744904234,145.1909896882259,202.5012396121672,200.73657671697657
1.7017017017017018,31.866304774834465,28.56256927032026,181.4888819242284,161.37473555739425,134.17396230818204,146.0795331435417,202.74963171310253,199.8866513827001
1.7350684017350684,31.13131652930833,26.84896578714648,182.27498007549,160.47257339404766,133.8951272908413,146.9935000580876,203.0688984140545,199.0148969076256
1.7684351017684352,30.26251333701084,25.053935353923983,183.46392780198468,159.31343691954118,133.5079270651668,147.89709666141056,203.4587462250652,198.148373125666
1.8018018018018016,28.94651714693198,22.95014418486909,184.2133229913009,157.7947004468717,133.01041806950144,148.74664725509322,203.92351822988869,197.3157156540668
1.8351685018351689,27.45706478800801,20.885917441373632,185.0436299743372,156.31780756168143,132.40587328287336,149.57546785953082,204.4448849414182,196.5186279482511
1.8685352018685355,25.746539020294044,18.948566717148065,185.6396732834745,154.6765038713671,131.68620949534045,150.34164565869244,205.02965219078305,195.7890079305399
1.901901901901902,24.00029376667937,17.09473043836261,186.4054389559805,153.34619069048787,130.89469876254125,151.0481074073398,205.64085387920875,195.11980518846275
1.9352686019352687,22.243121761345154,15.349052525794562,187.055498562656,154.81721999132748,130.07071766570974,151.70161231337866,206.23691970302383,194.4887233043861
1.968635301968636,20.556902680124303,13.844507124809535,187.821581679912,155.67261258284253,129.2230523883552,152.26529421048596,206.85652060279148,193.9151531457765
2.002002002002002,18.895112843579497,12.602689577158232,191.3546670127588,156.18020043650478,128.33541898319973,152.7107205737791,207.535446560531,193.41829814982776
2.035368702035369,17.389029307091814,11.64106427081781,194.16366502448284,155.93624075640878,127.41905257232854,153.08538125784435,208.2665236287872,192.98381218996028
2.0687354020687354,15.99215211524191,10.94277143452599,196.37758527470567,155.0425633678496,126.50006004521558,153.37873104836274,209.03158259821183,192.6336047504697
2.1021021021021022,14.75229637255648,10.408018357879824,197.8089812152362,153.27126410225782,125.5277105173367,153.59499098076546,209.8263499647722,192.364623259587
2.135468802135469,13.409903733884908,10.093633820675452,198.338153236004,151.0400084549183,124.54404142967977,153.71098098643617,210.6353786793605,192.18912169467657
2.1688355021688355,12.331269131692794,9.975384235566969,198.4114598460621,148.2512738725219,123.58757070645927,153.73148494956123,211.4328091819727,192.0742224429934
2.2022022022022023,11.468720690987826,10.060389251562905,197.97235878970884,143.4736099432926,122.67333615498488,153.63617427158593,212.2057456161713,192.04972101438068
2.235568902235569,10.97274613464829,10.39314189735424,197.1314372416908,138.62253669509187,121.80364038427447,153.48769007069183,212.9727925982343,192.0468879795765
2.2689356022689355,10.782092715075292,10.828624336871108,196.04125226875888,133.91761555401,121.05589765804804,153.3421865920352,213.67186891258285,192.0347554926045
2.3023023023023024,10.834686189901747,11.374794131793635,194.44641040277017,129.1868778323476,120.3734783109647,153.23203734508658,214.3341703136881,191.9874962362189
2.335669002335669,10.96115472901976,11.994337687220677,192.3629678512929,124.55357943008434,119.7698991126203,153.10576308449777,214.9351106445924,191.9331204676208
2.369035702369036,11.501217752939215,12.826400981189993,190.14167713493907,119.67559985316277,119.2528145924596,153.0245175336949,215.4527362645026,191.8620691306168
2.4024024024024024,12.407622625824365,13.821398361773422,187.620243867873,114.6112794929105,118.82695219855106,152.94282809612332,215.88045576445447,191.8043822033738
2.4357691024357693,13.687181512509053,14.965782702884503,184.90680725623568,109.47775457665703,118.38392548887256,152.83229850116842,216.43432307507496,191.77830624665447
2.469135802469136,6.200937084342687,16.27941667553784,182.13334596639177,104.33619608991523,117.99451460624944,152.7141938439656,217.0458419122332,191.79558619650564
2.5025025025025025,1.962410074862409,17.694491617039123,179.24546923873788,99.20586982988598,117.71187674801996,152.61883961591548,217.5977047619924,191.82096548787035
2.5358692025358693,0.8213539341276501,19.291208717765016,176.1895860685906,94.22705799811702,117.54195806849532,152.52447892650008,218.088434958084,191.88612168984096
2.569235902569236,2.3505254231453616,20.9144513176638,172.78799243270126,89.50920056352594,117.35342689903348,152.41236286726482,218.64087741465724,192.0082453846232
2.6026026026026026,2.3505254231453616,22.50367319476648,169.21718232842045,84.96327009606462,117.16683342776182,152.29447403578737,219.22077239055903,192.1880901754964
2.6359693026359694,2.3505254231453616,23.9725243265539,165.85518828218156,80.55469410019755,117.10239740315076,152.26651538352365,219.7167616450189,192.23805612472256
2.669336002669336,2.3505254231453616,25.38644562297212,162.28586311364614,76.43567849422418,117.16189984961382,152.29599120338517,220.0874252198425,192.2374081641551
2.702702702702702,2.3505254231453616,26.521338335694104,159.1373776656043,72.45790973631902,117.2756299995182,152.35682728558797,220.45259727718167,192.22610539657805
2.736069402736069,2.3505254231453616,27.56250524781396,156.22605747281517,68.80961689705138,117.4679031609076,152.4595701535717,220.7681393358296,192.19252401483257
2.7694361027694363,2.3505254231453616,28.64084566981796,153.73597703418858,65.45482293025415,117.54351871677304,152.5476421034102,221.15925586381528,192.1571495429771
2.802802802802803,2.3505254231453616,29.65148929708784,151.516906890383,62.58223813758305,117.56928936672912,152.6276825821064,221.5570435249699,192.11063473436585
2.836169502836169,2.3505254231453616,30.712700124509,149.67235935545082,60.27149380861818,117.54945517169986,152.66798661996083,221.95687272620947,192.0523807530824
2.8695362028695364,2.3505254231453616,31.67427006316631,148.09535087724484,58.453804183411634,117.51279053618154,152.67196906583882,222.3263575251052,191.97426287044988
2.902902902902903,2.3505254231453616,32.58294985077838,146.8733794982553,57.44327237922615,117.45634212037372,152.6292112718168,222.6690338995616,191.8959486179982
2.9362696029362696,2.3505254231453616,33.3705938868914,145.6322335685241,57.19579362089439,117.37994038232168,152.5413407431369,222.9932779416581,191.8161203365096
2.9696363029696364,2.3505254231453616,34.375762217587166,145.2381836614956,58.00573081361609,117.28602407368368,152.43423846032832,223.28651107552884,191.7202976286729
3.003003003003004,2.3505254231453616,35.39595308501888,145.30760734463482,59.748525192385486,117.1418589282253,152.28652532378013,223.5648087696023,191.6158544002824
3.0363697030363697,2.3505254231453616,36.38691529569639,146.24276903799947,62.7501648950982,117.0060839051164,152.1335255191001,223.8096704202862,191.47658587287475
3.0697364030697365,2.3505254231453616,37.44301070981983,147.72558386508078,66.44862162225915,116.90461076490418,151.99025812116065,224.04453950562268,191.30635973206543
3.103103103103104,2.3505254231453616,38.682814149416814,150.15486420120277,67.79129438612031,116.81378305385822,151.85700802187512,224.30544545938656,191.1324208823852
3.1364698031364697,2.3505254231453616,40.00936540302616,153.43583790293494,69.3838653000463,116.68538842504468,151.68389261215498,224.6095154507263,190.9593167511969
3.169836503169837,2.3505254231453616,41.23341278257096,154.0676761749743,70.51107718825531,116.56194675430402,151.5242946150379,224.9048680971996,190.78756759813905
3.2032032032032034,2.3505254231453616,42.45537368502249,155.0442509983806,71.59112106291786,116.47733008594776,151.3993664578497,225.16107409628984,190.60264048868703
3.2365699032365702,2.3505254231453616,43.48313275688836,155.80732998894655,72.3044327052548,116.4174736399975,151.31732650916845,225.37851352759523,190.39839261885572
3.2699366032699366,2.3505254231453616,44.28108017746693,156.47908363030368,72.80936083409443,116.35091037058342,151.3035714233572,225.588243751501,190.10465635190684
3.3033033033033035,2.3505254231453616,44.822134706819895,157.24132309048483,72.74199064117367,116.28777933749411,151.33384603676282,225.7770235734542,189.81512092287045
3.3366700033366703,2.3505254231453616,45.14564274096115,157.78126148352078,71.07704328741161,116.27247669903517,151.32185043183148,225.9229705746261,189.5750964151062
3.3700367033700367,2.3505254231453616,45.220237698535634,158.2468172408149,70.20684633322038,116.26775452482626,151.33270935203598,226.0511900275407,189.36786933934405
3.4034034034034035,2.3505254231453616,45.11496901203631,158.23260792012312,67.3156314411626,116.2228756876756,151.398844406047,226.20685189057104,189.1651844725013
3.4367701034367704,2.3505254231453616,44.89869859938315,157.8310905949654,65.6175908910836,116.1755454125509,151.53971383672027,226.36154577552088,188.9740575233004
3.4701368034701368,2.3505254231453616,44.733636949677255,155.2415387333346,65.18856437139985,116.0398178347968,151.7559673152008,226.58481326459983,188.7308737427879
3.503503503503504,2.3505254231453616,44.505195740015616,153.34899361072786,65.00070512836082,115.92888722527016,152.06134071612885,226.7782710155145,188.5376518540108
3.5368702035368704,6.336621631110417,44.38642664467943,151.686375253115,64.03706808270753,115.8807261420358,152.4800737494471,226.991187847056,188.32394456337025
3.5702369035702373,12.535278124352104,43.99160839055681,150.67356461613755,64.19655384693738,115.93468220237202,152.98068061395608,227.1509922596221,188.18666685629984
3.603603603603604,20.79755492591046,43.152331294812,151.0624187981374,66.93229739953283,115.74923640810168,153.41759798020504,227.5385030676653,188.14466801064768
3.6369703036369705,30.88818988027529,41.93735576676748,151.81746690431245,70.37899409124755,115.5716161941646,153.86143400476985,227.8935266398776,188.20693494754747
3.670337003670337,42.602838750099416,40.44768050611415,152.91855899632557,74.48752484087693,115.47878693646491,154.4286762041221,228.07195189947464,188.23334091313168
3.703703703703704,55.647140194807655,38.71066976479096,154.155302971574,78.57888799721691,115.6530045115338,155.03898157476692,228.0026405655533,188.37777581875056
3.737070403737071,69.8271527845733,36.71809524260952,155.6783753567223,82.31460949009188,115.90835718063994,155.60485929136544,227.91712384041367,188.6368560301376
3.770437103770437,84.87211382830206,34.621400524176,157.18347860175888,86.16580452915171,116.35778521124084,156.15788604988563,227.6431842486653,189.0336331780306
3.803803803803804,100.64347060554462,32.398058067320896,158.71862656421553,90.22261396409844,116.92443640175756,156.76004925451178,227.176968481788,189.5536769737716
3.8371705038371706,116.61724081594048,30.16971561954936,160.50425199331394,94.35788133101448,117.7141825377781,157.35429733488542,226.50901179312888,190.1607170516997
3.8705372038705375,132.74719249366913,27.55906765968075,162.40607070905722,97.98429337399692,118.53297038069392,157.8400374549798,225.84189666412868,190.92456693506588
3.903903903903904,149.2510442971805,25.06240870833874,164.27367062739924,101.69404619188968,119.5241893470468,158.2661724210665,224.86340373263363,191.7626769742033
3.937270603937271,165.77381920777373,22.423233353975267,165.8730041828758,105.09450482076768,120.9489222813826,158.70445584874503,223.3287430582768,192.59612843743463
