Time,Left Shoulder Angle,Right Shoulder Angle,Left Elbow Angle,Right Elbow Angle,Left Hip Angle,Right Hip Angle,Left Knee Angle,Right Knee Angle
0.0,-26.98184560652957,-43.14160725405958,199.89537917696973,157.99730567444598,164.64717000888837,211.73827882034664,198.90962762725647,178.69589636005756
0.0333667000333667,-16.713007699635984,-25.164830264264776,199.5396735128909,165.44344925621138,164.2232714338311,211.18383888570688,197.52664189172776,178.18124323258854
0.0667334000667334,-7.233422226282716,-9.290959208184582,198.70379901558692,171.13805589382045,163.9641520484715,210.6504088849488,196.20415023341823,177.60293659622874
0.1001001001001001,1.484309657185996,4.594780251909384,197.4384950658107,175.21796527282666,163.86111641993884,210.1370583158342,194.9432299626337,176.97821327523278
0.1334668001334668,9.467586794425898,16.60716245374553,195.7945010443148,177.82001707878354,163.9054691153623,209.6428566761249,193.74495838967988,176.3243100938551
0.1668335001668335,16.74380802909276,26.86096173505223,193.82255633185164,179.08105099724463,164.0885147018711,209.16687346358268,192.6104128248625,175.65846387635034
0.2002002002002002,23.34037220484233,35.4709524335579,191.57340030917405,179.13790671376344,164.40155774659448,208.7081781759693,191.54067057848744,174.99791144697298
0.2335669002335669,29.284678165330384,42.5519088869909,189.0977723570346,178.1274239138935,164.83590281666167,208.26584031104665,190.5368089608604,174.35988962997754
0.2669336002669336,34.60412475421266,48.21860543307966,186.446411856186,176.18644228318828,165.38285447920185,207.8389293665764,189.5999052822872,173.76163524961865
0.3003003003003003,39.32611081514493,52.58581640955255,183.67005818738068,173.45180150720137,166.0337173013443,207.4265148403204,188.7310368530736,173.22038513015076
0.333667000333667,43.47803519178295,55.76831615413798,180.8194507313714,170.0603412714862,166.7797958502182,207.0276662300405,187.93128098352528,172.7533760958285
0.3670337003670337,47.08729672778247,57.88087900456431,177.9453288689108,166.1489012615964,167.61239469295276,206.6414530334984,187.20171498394808,172.3778449709063
0.4004004004004004,50.18129426679924,59.03827929855996,175.09843198075146,161.85432116308536,168.52281839667725,206.266944748456,186.5434161646478,172.1110285796388
0.4337671004337671,52.78742665248906,59.35529137385332,172.329499447646,157.31344066150666,169.50237152852085,205.90321087267492,185.9574618359302,171.9701637462805
0.4671338004671338,54.93309272850768,58.94668956817276,169.68927065034703,152.66309944241385,170.5423586556128,205.5493209039172,185.444929308101,171.97248729508593
0.5005005005005005,56.6456913385108,57.927248219246735,167.22848496960725,148.04013719136043,171.63408434508233,205.2043443399445,185.00689589146603,172.13523605030966
0.5338672005338673,57.95262132615423,56.41174166480354,164.99788178617922,143.5813935938999,172.76885316405864,204.8673506785186,184.64443889633105,172.4756468362062
0.5672339005672339,58.88128153509396,54.51494424257182,163.0482004808169,139.4237083355868,173.9379696796723,204.537409417403,184.3586356330033,173.0109564770315
0.6006006006006006,57.27842594572888,52.99224038532212,162.8494361243598,138.03950040084266,175.33442523977223,204.75915171793864,184.18556337241665,173.6671921593631
0.6339673006339673,55.72844400846264,52.10125260980233,162.44992416236914,136.83966889763295,177.00337247309844,204.77573326637247,184.1221335695789,174.8500998006594
0.6673340006673341,54.43668591163226,50.43318511155102,162.27116361710668,137.58018887416782,178.65658722634137,204.5983272741455,184.1568081236889,176.59653363807897
0.7007007007007008,53.40758521122216,49.03016522247573,162.69804054362038,138.6704739602701,180.04933573573317,204.28517231944048,184.3694641477151,178.80633240041917
0.7340674007340674,53.70833713464152,47.87642279077943,163.6405531232723,142.75236458456808,181.32987432976472,203.8802367787757,184.6251356195673,181.3755999462924
0.7674341007674341,53.74526732958981,46.79260115680448,165.6326352481876,145.783282783351,182.4170072294792,203.26724654819293,185.0212413108612,184.25165262532187
0.8008008008008008,53.85481632363968,47.47658549386677,169.25709149309117,147.21406799288175,183.12177608533585,202.5100410577648,185.5060324364116,187.3981876465635
0.8341675008341676,60.42931052854991,47.23506609940818,171.99506985353742,152.81564140169698,183.7328271868178,201.68411940310924,186.03274205923708,190.67459940874232
0.8675342008675342,60.63657669354927,48.75653595796391,173.18048570706378,155.16570644415503,184.1246790831647,200.7785224969473,186.60953939218936,194.06714757746764
0.9009009009009008,68.36123543446857,57.03646413336087,174.59104564499003,158.74858863781947,184.39331107552124,199.92277427617643,187.16816585838544,197.4766895297746
0.9342676009342676,70.66588479205636,59.88350770119612,179.5504238745381,167.0805058286381,184.78097283041268,199.12448491903044,187.7314591520784,201.52692398093976
0.9676343009676344,73.31691542405014,63.24524615515216,184.4441614158457,175.29860214035472,185.10050245977737,198.29801754265296,188.1979134623734,205.52398537219463
1.001001001001001,76.34568818946767,67.13750416723246,189.1332386625168,183.16913423154648,185.3537638251969,197.44627025058892,188.5417782231873,209.40545525429835
1.0343677010343677,79.78356394732697,71.57610640944077,193.47863600815623,190.45835876079232,185.5426207882542,196.5721411463849,188.7373028684385,213.10891517801147
1.0677344010677343,83.66190355664605,76.57687755378076,197.34133384636888,196.9325323866715,185.6689372105324,195.67852833358737,188.75873683204543,216.57194669409472
1.1011011011011012,88.01206787644296,82.15564227225613,200.58231257076,202.35791176776323,185.7345769536143,194.7683299157428,188.5803295479264,219.7321313533087
1.1344678011344678,92.86541776573571,88.32822523687061,203.0625525749343,206.50075356264625,185.74140387908304,193.84444399639776,188.17633044999965,222.5270507064141
1.1678345011678346,98.25331408354234,95.11045111962788,204.6430342524969,209.12731442990008,185.6912818485216,192.90976867909885,187.5209889721837,224.89428630417152
1.2012012012012012,104.20711768888086,102.51814459253166,205.1847379970529,210.00385102810327,185.58607472351292,191.9672020673925,186.588554548397,226.77141969734163
1.234567901234568,110.75818944076931,110.56713032758566,204.54864420220707,208.8966200158353,185.4276463656402,191.0196422648252,185.35327661255783,228.09603243668505
1.267934601267935,117.93789019822572,119.27323299679357,202.5957332615648,205.571878051675,185.21786063648625,190.0699873749436,183.78940459858453,228.8057060729625
1.3013013013013013,125.77758082026808,128.65227727215907,199.1869855687305,199.7958817942017,184.95858139763408,189.12113550129413,181.8711879403956,228.83802215693453
1.334668001334668,134.30862216591447,138.72008782568594,194.1833815173097,191.33488790199416,184.6516725106668,188.1759847474234,179.57287607190923,228.1305622393618
1.3680347013680347,143.56237509418287,149.4924893293778,187.445901500907,179.95515303363177,184.2989978371673,187.23743321687783,176.86871842704397,226.62090787100504
1.4014014014014016,153.5702004640914,160.98530645523846,178.83552591312775,165.42293384769326,183.9024212387186,186.30837901320407,173.73296443971813,224.2466406026248
1.4347681014347682,164.3634591346579,173.2143638752715,168.2132351475768,147.5044870027579,183.46380657690372,185.39172023994857,170.1398635438501,220.94534198498167
1.4681348014681348,175.97351196490058,186.19548626148068,155.44000959785893,125.96606915740504,182.98501771330567,184.49035500065784,166.06366517335823,216.65459356883665
