Time,Left Shoulder Angle,Right Shoulder Angle,Left Elbow Angle,Right Elbow Angle,Left Hip Angle,Right Hip Angle,Left Knee Angle,Right Knee Angle
0.0,87.01405579779033,106.58735361655263,160.74961589318883,164.5683843491179,134.56768021643265,128.16038569571108,207.1405484362523,203.9504140006311
0.0333667000333667,54.78896971617383,76.88313280012434,161.89904349018082,172.7721280247771,134.7774102593965,128.51906856576952,206.3829837467625,204.66011923198928
0.0667334000667334,29.29779198913139,52.16374268392666,162.92950728420686,178.6468244822415,134.85828701950894,129.00485463007738,205.79251645506253,205.18181581134675
0.1001001001001001,10.084292225293254,32.125687252392524,163.8500842842354,182.3550355568132,134.81970229083697,129.6032386193428,205.35890429489223,205.53228553987725
0.1334668001334668,-3.30775996671035,16.465470489954924,164.66985149923494,184.05932308379417,134.67104786744767,130.29971526427389,205.07190499999143,205.7283102187544
0.1668335001668335,-11.334594978249172,4.879596381046838,165.39788593817386,183.92224889848663,134.42171554340803,131.07977929557885,204.9212763040999,205.786671649152
0.2002002002002002,-14.452443200692969,-2.9354310898987706,166.04326461002069,182.10637483619263,134.08109711278507,131.92892544396574,204.89677594095755,205.72415163224355
0.2335669002335669,-13.117535025411527,-7.2831079384489215,166.61506452374385,178.77426273221425,133.65858436964584,132.83264844014275,204.9881616443041,205.5575319692029
0.2669336002669336,-7.786100843774577,-8.466930180170664,167.12236268831177,174.0884744218535,133.16356910805737,133.776443014818,205.18519114787944,205.3035944612037
0.3003003003003003,1.0856289528480971,-6.790393830631004,167.57423611269297,168.21157174041255,132.60544312208668,134.74580389869962,205.47762218542343,204.9791209094196
0.333667000333667,1.0856289528480971,-2.5569949053969765,167.97976180585584,161.30611652319345,131.9935982058008,135.7262258224957,205.85521249067585,204.6008931150243
0.3670337003670337,1.0856289528480971,-2.5569949053969765,168.3480167767689,153.5346706054983,131.33742615326676,136.70320351691453,206.3077197973765,204.1856928791915
0.4004004004004004,1.0856289528480971,-2.5569949053969765,168.68807803440058,145.05979582262916,130.6463187585516,137.66223171266407,206.82490183926527,203.75030200309487
0.4337671004337671,1.0856289528480971,-2.5569949053969765,169.00902258771933,136.0440540098881,129.9296678157223,138.58880514045254,207.39651635008204,203.31150228790816
0.4671338004671338,13.041423973086763,-2.5569949053969765,169.31992744569362,126.6500070025772,129.19686511884595,139.46841853098806,208.01232106356647,202.88607553480497
0.5005005005005005,27.625053825571623,3.929770579964384,169.6298696172919,117.04021663599865,128.45730246198954,140.28656661497877,208.6620737134585,202.49080354495905
0.5338672005338673,44.38028811893294,12.3664066098861,169.9479261114826,107.37724474545436,127.7203716392201,141.02874412313278,209.335532033498,202.14246811954408
0.5672339005672339,62.85089646180094,22.449417168801062,170.28317393723552,97.82365316624768,126.99546444460572,141.68044578615945,210.02245375742632,201.85785105973525
0.6006006006006006,82.58064846280593,33.87530624114228,172.25889662967154,88.59254287561564,126.0728416677288,141.91878912966013,210.9805145142416,202.1090988066531
0.6339673006339673,103.11331373057791,46.34057781134273,174.42268131853476,79.22058860269209,125.23412427430983,141.97341290211253,212.1083322899139,202.8163619437529
0.6673340006673341,123.99266187374748,59.541735863835385,175.10069611246013,70.9355929071879,124.3614660389038,141.85076960878206,213.2360660739107,203.77308929804911
0.7007007007007008,144.76246250094587,73.17528438305403,174.903419655299,64.65700814786179,123.53748907771823,141.66155506383427,214.33569606823505,204.7495027705539
0.7340674007340674,160.5658889334376,84.78893169021637,175.04087310442432,59.46989559890709,122.91702776123806,141.33342401195756,215.1464039545996,205.7464530073044
0.7674341007674341,174.5654394301863,94.97363186589882,177.18242100653205,55.7033781052487,122.60129542554382,140.70919475952556,215.51903058686312,206.82986264538053
0.8008008008008008,185.93714232482577,103.97211125790244,178.37126039468933,56.13934212678566,122.41908061492158,139.8855650960864,215.78093829072475,207.890016920634
0.8341675008341676,194.8983903504426,112.29999715607664,178.2320134183995,58.01078801737191,122.42073140997364,138.89752319043114,215.8034197910714,208.8189489054352
0.8675342008675342,201.40501911773367,119.29281949886236,177.38156871139688,61.61750647600218,122.62041408619662,137.7554309374269,215.46638303460907,209.5370361054491
0.9009009009009008,204.5520640337459,124.5675451300363,176.13260381152358,65.91649993553898,123.05492882335946,136.6297297635355,214.7412513849941,209.9303335712696
0.9342676009342676,196.4757442088093,118.71582804341426,172.49224309105898,69.85885227628602,123.51702301042084,135.51150078902725,213.8498588869589,210.10297437941256
0.9676343009676344,189.5833864630515,114.7493339749224,169.75227383877754,75.17503323155857,124.2239082537973,134.5714330188573,212.78946354769548,209.8891813904312
1.001001001001001,183.62313544563307,111.9279468605024,168.5456392298101,83.57269651802677,125.10900143360622,133.96294603079252,211.4848506879899,209.3521411270948
1.0343677010343677,178.56733460535017,111.06483766055015,168.36076805965328,93.1511595085392,126.16293319639044,133.63263897704329,209.91472524375115,208.5600248146996
1.0677344010677343,175.00568465353587,114.40654559529752,169.07010239609522,100.17317500509677,127.38022392098452,133.620875775836,208.1535864316979,207.4870819448179
1.1011011011011012,171.20224644086693,118.13258386633927,173.14152977294518,109.45530008693912,128.90113634770182,133.8756652461673,206.1390938089723,206.09278688544225
1.1344678011344678,166.55384340218902,120.90401811622527,168.91671995307163,119.43260090081088,130.57758624162136,134.34125210875476,204.07545384598484,204.39494358115627
1.1678345011678346,161.2646629606914,123.51545875910254,164.60513991245702,131.13077258006683,132.5476534172712,135.002107074434,201.8710737843362,202.48093475008235
1.2012012012012012,155.715021907458,127.88605645295334,159.80832035349732,139.6908852279823,134.659397429105,135.64997583699048,199.31545940893287,200.05362140671232
1.234567901234568,148.6208066558408,129.6533274218114,154.64208955533502,147.63873883070775,136.8865647961855,136.4930877845387,196.6968001821067,197.46076280416057
1.267934601267935,139.9131408225717,130.8861519407763,149.15087783834437,154.80898081201724,139.2145790651952,137.5402324313658,194.04361430871367,194.72929483602155
1.3013013013013013,137.55088890159516,140.25005103293057,143.379115522901,161.03625859568618,141.62886378281763,138.80019929176,191.3844199936116,191.8861533958915
1.334668001334668,134.9380495481579,140.24393743965334,137.37123292938054,166.1552196054899,144.1148424957363,140.28177788000949,188.74773544165805,188.9582743773667
1.3680347013680347,133.332616892092,140.45689869663852,131.1716603781587,170.00051126520356,146.6579387506346,141.99375771040235,186.162078857711,185.97259367404345
1.4014014014014016,132.8093661130195,141.00083735521696,124.8248281896111,172.40678099860258,149.24357609419604,143.94492829722682,183.6559684466281,182.9560471795179
1.4347681014347682,133.44307239056366,141.98765596672013,118.37516668411337,173.20867622946236,151.85717807310417,146.14407915477105,181.2579224132671,179.93557078738635
1.4681348014681348,135.3085109043478,143.52925708247955,111.8671061820412,172.24084438155802,154.4841682340424,148.59999979732316,178.99645896248578,176.93810039124511
1.5015015015015016,138.4804568339951,145.73754325382671,105.34507700377029,169.33793287866496,157.1099701236942,151.3214797391714,176.90009629914184,173.99057188469033
1.5348682015348682,143.03368535912884,148.72441703209313,98.85350946967613,164.33458914455858,159.72000728874312,154.31730849460388,174.9973526280931,171.1199211613183
1.5682349015682349,149.0429716593723,152.6017809686103,92.43683390013456,157.06546060301403,162.29970327587256,157.59627557790876,173.3167461541973,168.3530841147253
1.6016016016016017,156.5830909143488,157.48153761470974,86.1394806155211,147.36519467780664,164.83448163176604,161.16717050337422,171.88679508231212,165.71699663850757
1.6349683016349683,165.72881830368146,163.47558952172284,80.00587993621151,135.06843879271193,167.30976590310704,165.03878278528845,170.73601761729535,163.23859462626132
1.6683350016683351,176.5549290069936,170.6958392409813,74.08046218258139,120.0098403715049,169.71097963657903,169.21990193793957,169.89293196400484,160.94481397158285
1.7017017017017018,189.13619820390852,179.2541893238165,68.40765767500638,102.024046837961,172.0235463788655,173.7193174756158,169.38605632729823,158.86259056806838
1.7350684017350684,203.5474010740496,189.26254232155983,63.03189673386221,80.94570561585573,174.23288967664988,178.54581891260526,169.2439089120333,157.0188603093142
