Time,Left Shoulder Angle,Right Shoulder Angle,Left Elbow Angle,Right Elbow Angle,Left Hip Angle,Right Hip Angle,Left Knee Angle,Right Knee Angle
0.0,3.38129562816966,11.493313988764276,195.72450865478547,166.308348834385,175.24636597630928,217.62727582107337,186.0411503056278,175.04656084247546
0.0333667000333667,2.5445597076167425,11.05092959379706,196.5412156320901,165.83551389463958,174.80329624201335,217.39411926148145,186.41778850868425,175.3220044425234
0.0667334000667334,1.8516354210751285,10.691012946349677,197.25769487310475,165.42325613792775,174.39003868249392,217.17680659452773,186.8192233057123,175.56173605953776
0.1001001001001001,1.2974325962608244,10.411037725921553,197.8798526146345,165.0715811193428,174.0064594135317,216.97618422372443,187.24159507565025,175.7661553645967
0.1334668001334668,0.8768610608898344,10.208477612012135,198.4135950934848,164.78049439397782,173.65242455090748,216.79309855258376,187.68104419743605,175.9356620287783
0.1668335001668335,0.5848306426781651,10.080806284120865,198.8648285464607,164.55000151692602,173.32780021040202,216.628395984618,188.1337110500079,176.07065572316066
0.2002002002002002,0.4162511693418209,10.025497421747176,199.2394592103677,164.3801080432806,173.03245250779605,216.4829229233393,188.5957360123039,176.1715361188219
0.2335669002335669,0.3660324685968077,10.04002470439051,199.54339332201096,164.27081952813472,172.7662475588704,216.35752577225995,189.0632594632621,176.23870288684014
0.2669336002669336,0.3660324685968077,10.121861811550303,199.78253711819585,164.22214152658157,172.52905147940572,216.2530509348921,189.5324217818207,176.27255569829344
0.3003003003003003,0.3660324685968077,10.268482422726,199.9627968357276,164.2340795937143,172.32073038518286,216.17034481474803,189.99936334691776,176.27349422425996
0.333667000333667,0.3660324685968077,10.477360217417033,200.0900787114114,164.30663928462616,172.14115039198256,216.11025381534,190.4602245374914,176.24191813581777
0.3670337003670337,0.3660324685968077,10.74596887512284,200.17028898205265,164.43982615441027,171.99017761558557,216.0736243401801,190.91114573247967,176.17822710404502
0.4004004004004004,0.4290843681591303,11.071782075342869,200.20933388445656,164.63364575815982,171.86767817177264,216.0613027927806,191.3482673108209,176.08282080001976
0.4337671004337671,0.4290843681591303,11.452273497576552,200.21311965542844,164.88810365096802,171.77351817632456,216.07413557665384,191.76772965145287,175.95609889482012
0.4671338004671338,0.4290843681591303,11.88491682132333,200.18755253177355,165.20320538792802,171.70756374502207,216.11296909531188,192.16567313331404,175.7984610595242
0.5005005005005005,0.4290843681591303,12.367185726082642,200.1385387502972,165.578956524133,171.66968099364593,216.17864975226703,192.53823813534228,175.61030696521013
0.5338672005338673,0.600316695744795,12.896553891353928,200.0719845478046,166.01536261467618,171.6597360379769,216.2720239510316,192.88156503647576,175.392036282956
0.5672339005672339,0.600316695744795,13.470494996636688,199.9937961611027,166.512429214652,171.67759499379707,216.39393809511927,193.1917942156542,175.1440486838414
0.6006006006006006,0.600316695744795,14.07391578598191,199.9432745949532,167.12944590899488,171.66444493283086,216.6209042503075,193.4942071161369,174.81411842398805
0.6339673006339673,0.600316695744795,14.729184365603906,199.8756836696929,167.5928978039913,171.63986558849268,216.85257631666613,193.78004032057305,174.46966811392434
0.6673340006673341,0.600316695744795,15.446428908858705,199.85006201015884,168.1814840924048,171.6727790766367,217.0988910434936,194.0028980805799,174.10583613562898
0.7007007007007008,0.600316695744795,16.22696754901834,199.9100457471296,168.8066970139397,171.72455373531338,217.46408026383628,194.1533517470775,173.6535615691387
0.7340674007340674,0.600316695744795,17.057414539492196,200.07572382795144,169.6118842472569,171.86093802676655,217.89176736214804,194.19631030996652,173.1542488147527
0.7674341007674341,0.8746392790698061,17.893696752286253,199.95112349270312,170.33391710803986,172.07741826247403,218.32968744635585,194.1494502724929,172.62789784730876
0.8008008008008008,0.8746392790698061,18.746422258560244,199.9008308929708,171.2486144990201,172.34403544292445,218.76794373638552,194.01031730321773,172.11907973804333
0.8341675008341676,0.8746392790698061,19.494824814977683,199.9586445906071,172.36088520826263,172.5876220414976,219.163963926556,193.84451867445705,171.64273111541956
0.8675342008675342,0.8746392790698061,20.265060894770127,200.09981456199048,173.64325570716534,172.8785038190953,219.5158261825861,193.602067047075,171.19415586157143
0.9009009009009008,0.8746392790698061,21.10622174293739,200.2124058619404,174.92391016937916,173.2428474059379,219.84755904224843,193.2427454536546,170.7662712541098
0.9342676009342676,0.8746392790698061,21.99220207783637,200.3851122094644,176.26919826802654,173.6512848913355,220.130923653628,192.8297879969083,170.36981789579693
0.9676343009676344,0.8746392790698061,22.765722895252352,200.2269957638128,177.65222496505845,174.08841430125628,220.3559886995546,192.404985774398,170.01859290568387
1.001001001001001,0.8746392790698061,23.57142255554449,200.1742764441031,179.1185615916957,174.56463771714388,220.5160383617265,191.93482036991625,169.72283263681706
1.0343677010343677,0.8746392790698061,24.41631641614847,200.0086379428484,180.47327062736173,175.05390405644408,220.6176129425805,191.45634179566943,169.49198015804464
1.0677344010677343,1.2469619458501704,25.305335720953124,200.247766024618,181.8872002739863,175.57362528999258,220.62815335548456,190.90604490830285,169.32446401966345
1.1011011011011012,1.2469619458501704,26.184982605882453,201.32203337337128,183.20464204318824,176.09564523663482,220.5643000786666,190.3088851560544,169.221520011129
1.1344678011344678,1.2469619458501704,27.076364990866526,202.45681780911724,184.66300492651183,176.63346053535912,220.40607180522,189.6612838820521,169.16846257780884
1.1678345011678346,1.2469619458501704,27.892908128766425,203.5023910777257,185.90639147141496,177.16095266212884,220.1646220997197,188.9826940071556,169.16156561330737
1.2012012012012012,1.2469619458501704,28.647487278474006,204.5650167981996,187.41853564601405,177.64031854822173,219.82109522532863,188.28864700980807,169.22301044214407
1.234567901234568,1.2469619458501704,29.628166624975982,205.82020492469167,188.6339997151516,178.06978907440552,219.3622351996972,187.60525297891576,169.37923414912294
1.267934601267935,1.2469619458501704,30.606129002128,207.1302621948968,190.04073920087984,178.48531272318357,218.8148742763376,186.89695804059505,169.59228488047503
1.3013013013013013,1.2469619458501704,31.33355769812737,208.47222271688207,191.72757059922853,178.8747701843021,218.18867528880355,186.2010186475744,169.87876933564402
1.334668001334668,1.2469619458501704,31.977213521468087,209.71980834737644,193.8199957816003,179.3779383717553,217.587948070576,185.4371640651133,170.1738384343988
1.3680347013680347,1.2469619458501704,32.63419966946191,210.94823871643536,195.8504388356977,179.90982732288057,217.0172877072846,184.62829740511924,170.47713183418244
1.4014014014014016,1.2469619458501704,33.209705501035934,211.98760995180533,198.12448822411915,180.48507163092287,216.42211539639692,183.77192071790205,170.79232888075072
1.4347681014347682,1.2469619458501704,33.6958882936994,212.7133939366716,209.734316998673,181.07753263234304,215.7970095186192,182.9134794534214,171.13546898317577
1.4681348014681348,1.2469619458501704,33.89900542030808,213.22886264931188,216.34795567256623,181.69770300653377,215.2732078042735,182.0426313736553,171.39664816402905
1.5015015015015016,1.71219452380189,34.04226238662481,213.222435135223,223.8334339509397,182.2586840623632,214.859233757222,181.2057889603004,171.5817210150573
1.5348682015348682,1.71219452380189,34.09462787592791,213.20121924763467,228.91402334063355,182.83555736616304,214.4822950739361,180.3578557121241,171.7316277836672
1.5682349015682349,1.71219452380189,34.122220432838795,216.1461563995042,232.0461243042797,183.46777475026644,214.13514766297112,179.5024250486295,171.85126854622993
1.6016016016016017,1.71219452380189,34.142976707722354,218.27361544220813,232.89036302136125,184.1156965776939,213.8083721187641,178.6591108312893,171.92456975517752
1.6349683016349683,1.71219452380189,33.23214297455356,219.38041211880304,228.8699477769988,184.7378598149268,213.5004902467373,177.87494924777758,171.9444283058791
1.6683350016683351,1.71219452380189,32.246542390745766,219.39802188850555,223.70392664077755,185.241136835912,213.1631783513853,177.1575781855486,171.97404570371643
1.7017017017017018,1.71219452380189,31.13135135580763,218.6063741520137,216.81972838310264,185.63607952962656,212.8106455970785,176.53178501254413,172.01821439726928
1.7350684017350684,1.71219452380189,30.28324542333401,217.33458048653043,209.16728169942016,186.023801104014,212.4854786501201,175.90607137633074,172.04868729948777
1.7684351017684352,1.71219452380189,29.543211246593387,215.55052377835256,200.72807860118283,186.35855601731072,212.19769227555224,175.303426368143,172.06863971454956
1.8018018018018016,1.71219452380189,29.01057054294971,213.4792414091957,192.0325659963281,186.6754593224928,211.96729841943093,174.6996627248567,172.05436727021836
1.8351685018351689,1.71219452380189,28.552584934703106,210.59629947609136,183.213580001294,186.9603401218242,211.8381184982073,174.1043808748721,171.99811863844536
1.8685352018685355,1.71219452380189,28.315511230891044,207.17735517167372,174.28813206022014,187.25568058378872,211.6525040599532,173.5339551621778,171.99382526557028
1.901901901901902,1.71219452380189,27.43891487673068,203.46578094078492,164.66717216404288,187.5333371391684,211.4260465479829,173.0062101492521,172.01573794856057
1.9352686019352687,1.71219452380189,26.903681267985903,199.6217175295108,155.26908465979773,187.7790716285476,211.16400243086343,172.5130564401891,172.06521841141495
1.968635301968636,1.71219452380189,26.828848580984832,195.42340105108767,145.8782459046889,187.96605198359669,210.87727752298443,172.08522267327535,172.14219306157568
2.002002002002002,2.2652468406409736,27.35383288373392,190.83490470646493,136.63672557578104,188.1975319831702,210.59530093341385,171.62264023456552,172.22919721011684
2.035368702035369,2.2652468406409736,28.356331649258653,185.7549862941416,127.58956328884165,188.4246318752272,210.30136879630348,171.1773251266729,172.33985937664627
2.0687354020687354,2.2652468406409736,29.803219658303696,180.40449709986845,118.85443399203452,188.6239561847507,209.9659684365577,170.7855841767766,172.47729503535197
2.1021021021021022,2.2652468406409736,25.862003923640945,174.93179853536327,110.63059986997943,188.77653521244585,209.6057287513684,170.47285858512015,172.63920949800837
2.135468802135469,2.2652468406409736,24.377078826149265,169.93322623205478,103.089319960392,188.89838100775657,209.2388481443786,170.18294751519602,172.8209946147402
2.1688355021688355,2.2652468406409736,25.230275225885624,165.57312256335817,96.12731441074672,188.9632616135046,208.87522256343192,169.94564311886106,173.02350210739584
2.2022022022022023,2.2652468406409736,27.92525568445439,161.85197112136683,90.09156441953084,188.991758950693,208.5137887059544,169.70688621920934,173.2310675219065
2.235568902235569,2.2652468406409736,32.22171783080297,158.21168922334624,85.252714132116,188.9742745863333,208.1732602099231,169.5111863729343,173.44013512375835
2.2689356022689355,2.2652468406409736,38.10483701853395,153.97537924868902,81.42161182592145,188.9373894564997,207.83094338614484,169.34350916456768,173.65447926846127
2.3023023023023024,2.2652468406409736,45.52922841837238,149.89510603863954,77.94541918112027,188.86072728548805,207.4749786814744,169.2211639978774,173.88135204778683
2.335669002335669,2.2652468406409736,54.328817233241125,146.05525424199308,75.78247288455502,188.772885977248,207.11326528858848,169.12505537381426,174.11823878619475
2.369035702369036,2.2652468406409736,64.92148225792417,140.26655578464178,74.34754718626615,188.44370975332075,206.31819509376103,169.06592405984813,174.5353530739105
2.4024024024024024,2.2652468406409736,75.74026124096982,135.00594462542492,75.08312855770666,188.1976472508824,205.71651688986736,168.8981403428965,174.87143156572515
2.4357691024357693,2.2652468406409736,87.38618336232321,131.56255104596033,77.59763837308786,187.99335863722683,205.24647271091663,168.81708019324734,175.15317256375278
2.469135802469136,2.2652468406409736,99.70158719857427,127.71101750172888,81.90882731442244,187.80759397850989,204.90355697512925,168.77260969495606,175.34455025854453
2.5025025025025025,2.2652468406409736,112.51272318256623,124.31667765921058,88.08113503188277,187.6500723640026,204.70799152862432,168.78750894841872,175.44598759371362
2.5358692025358693,2.2652468406409736,125.4098883471324,123.90535058884991,96.53763941125176,187.49832586354844,204.5855490163388,168.83449570914988,175.49123564753427
2.569235902569236,2.2652468406409736,138.22216530451044,123.9100563532242,107.422709111979,187.3604303374262,204.5815765469281,168.97016963270596,175.47731374336777
2.6026026026026026,2.9010287240834245,155.75778551571898,124.42444328585096,109.08242719017376,187.2942964560096,204.643994702526,169.07814872795973,175.40695895557744
2.6359693026359694,2.9010287240834245,171.76640311867132,125.27518694366654,113.49031210161348,187.26267917739807,204.8330136060822,169.26012795611084,175.25278254363437
2.669336002669336,2.9010287240834245,185.8460451431032,127.59346435143227,114.4597267127104,187.3883253035407,205.05748216405829,169.38136361918987,175.0918511488624
2.702702702702702,2.9010287240834245,198.0554269355169,130.52378491173204,114.70121563810268,187.5909424139606,205.3707633823796,169.59936906342696,174.90255922376113
2.736069402736069,2.9010287240834245,209.0768597494117,127.36270878357564,114.18566450304616,187.81665732730207,205.76246908969648,169.85402612703672,174.65935572306006
2.7694361027694363,2.9010287240834245,217.6050131844585,125.39664155958596,112.4109751566348,188.04106702460743,206.2509114701544,170.24993372474398,174.36832861448133
2.802802802802803,2.9010287240834245,225.0363969734537,128.9427993840357,112.79136969051996,188.3208892204296,206.82691461652468,170.68953538308224,174.11516150629683
2.836169502836169,2.9010287240834245,230.3137953211336,133.21529044210467,112.84561823105324,188.60268289008127,207.5654698397992,171.25306405679348,173.81093905803525
2.8695362028695364,2.9010287240834245,233.56506849295803,132.13485376286363,112.89082532908232,189.0609505496584,208.370672512485,171.78299638768965,173.45356382038932
2.902902902902903,2.9010287240834245,234.2441804439419,131.77883626536988,112.71621060437704,189.5089697903162,209.2831799372918,172.41376987382165,173.06839666659408
3.2032032032032034,2.9010287240834245,232.8854822685892,131.45112496452168,106.88891908959388,189.9923894870608,210.2667344069785,173.04535896457017,172.65922200912203
3.3366700033366703,3.614450001845252,229.1462286290165,131.5047467704595,102.74327412487024,190.4479807817281,211.3651948766021,173.79418348751335,172.242594963553
3.3700367033700367,3.614450001845252,223.32766931264808,132.065149634482,100.29589435415612,190.89993459241583,212.46770698019813,174.53659687612,171.80088832907018
3.4034034034034035,3.614450001845252,215.06668998504068,133.66371672917967,99.1110642673024,191.29961355331432,213.62324048966684,175.37768920964757,171.3701243458117
3.4367701034367704,3.614450001845252,205.59153591258828,136.448513080331,100.38852393078878,191.7600797719388,214.889948462314,176.26786401409234,170.9063612912281
3.4701368034701368,3.614450001845252,194.23028501862424,139.8084687286618,102.7244655961703,192.1306251891508,216.2031944591968,177.27121189567745,170.49204308580133
3.503503503503504,3.614450001845252,181.0835033128524,143.42622273886485,106.53923994511132,192.55635137545423,217.53122732669928,178.22176966410768,170.01879591483362
3.5368702035368704,3.614450001845252,166.0361044263722,147.44308301992243,111.01033061295672,192.9339159272864,218.82905033438743,179.2396518079414,169.65968997602255
3.5702369035702373,3.614450001845252,149.2762799501307,152.537156528623,116.4688422798354,193.0752563685512,220.0182407320704,180.43795483979773,169.4084019012119
3.603603603603604,3.614450001845252,130.60444200133995,157.99297692442698,122.35727419161488,193.04266957229865,221.12482663257884,181.76005317816777,169.31791816168143
3.6369703036369705,3.614450001845252,117.8989314632426,163.4969004035219,128.6718967565493,192.80919277101327,222.09806060008827,183.25152437544943,169.38685426522042
3.670337003670337,3.614450001845252,105.27042684990712,168.9404792324095,135.00519704337725,192.44630762208453,223.0160317398952,184.79792562330303,169.561368612717
3.703703703703704,3.614450001845252,92.80331728976395,174.14455358002542,141.74463573455304,191.9006973666384,223.78692620634249,186.41652079111952,169.8779990979783
3.737070403737071,3.614450001845252,80.74810543509355,178.8151253664456,148.20062463499852,191.2607176002076,224.45117147048512,188.0181177099713,170.30576807875997
3.770437103770437,3.614450001845252,69.43306233320538,183.155934667402,154.29931156014644,190.5558803715011,225.00629280207752,189.5917281663878,170.7163139631524
3.803803803803804,3.614450001845252,58.9617276431571,186.8637301463332,159.6381182092563,189.79148792758457,225.41261415392933,191.09838986271,171.27682343883316
3.8371705038371706,3.614450001845252,49.53885813187976,190.0327063141752,165.0590741720347,189.1138441075728,225.79573029446823,192.4456568140346,171.89299547703416
3.8705372038705375,3.614450001845252,41.21552303940092,192.3697131303412,170.05172979903443,188.4622759898656,226.0805760863162,193.60687533739767,172.62585074109015
3.903903903903904,3.614450001845252,33.3355943479039,196.8183726043015,175.39882887292111,188.032062206702,226.93593999062145,194.7008962261227,173.16572566506943
3.937270603937271,3.614450001845252,27.023402464392657,201.21858156179383,180.17988558845565,187.5704710584621,227.6951109686484,195.8360419108899,173.85937228121378
3.9706373039706375,3.614450001845252,21.40718738409429,204.0096124534228,184.10386235886327,187.0342382413166,228.45668451451488,196.91599465294104,174.57031202142477
4.004004004004004,3.614450001845252,17.395661361744157,207.44880584032967,187.60777986318047,186.503015519972,229.0988920690397,197.85915005936383,175.41300073708794
4.037370704037371,4.400420501642456,14.979696057435962,211.69630450967537,190.71173027512128,185.9971173721064,229.58736324497332,198.62018799168425,176.32680027856986
4.070737404070738,4.400420501642456,14.635792568818776,213.2691175715221,193.4971814031766,185.5724152569084,229.8974252583731,199.2313679170345,177.42348914234378
4.104104104104104,4.400420501642456,16.374931787024085,214.24990757214363,195.71739735552023,185.07515434669767,229.93563415788523,199.7417688646531,178.6942560629488
4.137470804137471,4.400420501642456,14.030547723713216,214.3683641157144,196.83915427393347,184.59877134929084,229.85142697172336,200.1742371479372,180.06195667904373
4.170837504170838,4.400420501642456,12.5648474244294,214.2093508084316,197.93708863336045,184.2900315073606,229.6656390288269,200.35836996965327,181.4996780145788
4.2042042042042045,4.400420501642456,11.900423135708984,212.75841777271484,198.16159104995853,184.1119028453776,229.3712804017817,200.4286345152977,183.01132832788505
4.237570904237571,4.400420501642456,11.851743884071643,210.7564024102878,197.5149871642387,184.07084992852768,228.97922898711423,200.3097690952723,184.58303944551463
4.270937604270938,4.400420501642456,11.317901595448376,211.85965216128096,194.8534601539683,184.1387505677657,228.48296754818705,200.06493005317265,186.23980739964324
4.3043043043043046,4.400420501642456,10.950876591839789,212.79396600990984,190.6894824004385,184.339336477902,227.9190308823004,199.573236262189,187.93651099896027
