Time,Left Shoulder Angle,Right Shoulder Angle,Left Elbow Angle,Right Elbow Angle,Left Hip Angle,Right Hip Angle,Left Knee Angle,Right Knee Angle
0.0,16.30411878664931,31.64249579190269,141.76547027753816,163.50282600857983,139.20832041010735,137.9758411452709,207.0298451188146,211.84260189247945
0.0333667000333667,16.474261345288554,30.9815202444012,141.1310525194033,161.77212051298352,138.86398790853966,137.8965894063998,207.9321645671963,211.94690423098112
0.0667334000667334,16.713233068967096,30.44160183746605,140.67694166513314,160.34274146790267,138.52496153383655,137.8395671560899,208.7572939050837,212.02791965236628
0.1001001001001001,17.018069374592415,30.015493749093725,140.3969480246072,159.19393189717448,138.19320252816817,137.8034920991134,209.50674629754624,212.08627142728545
0.1334668001334668,17.385805679072,29.69594915728071,140.28488190770506,158.30493482463604,137.87067213370486,137.78708194024242,210.18203490965325,212.1225828263892
0.1668335001668335,17.81347739931333,29.475721240023493,140.33455362430627,157.65499327412445,137.55933159261676,137.78905438424914,210.784672906474,212.137477120328
0.2002002002002002,18.29811995222389,29.347563175318555,140.53977348429035,157.2233502694769,137.2611421470741,137.80812713590572,211.316173453078,212.1315775797524
0.2335669002335669,18.83676875471117,29.30422814116238,140.89435179753687,156.9892488345305,136.97806503924718,137.84301789998435,211.7780497145345,212.1055074753131
0.2669336002669336,19.42645922368265,29.338469315551457,141.3920988739254,156.93193199312236,136.7120615113062,137.89244438125723,212.17181485591288,212.05989007766047
0.3003003003003003,20.06422677604581,29.44303987648228,142.02682502333545,157.03064276908964,136.46509280542136,137.95512428449652,212.49898204228256,211.9953486574452
0.333667000333667,20.747106828708137,29.61069300195131,142.7923405556466,157.26462418626946,136.23912016376292,138.02977531447436,212.76106443871285,211.9125064853177
0.3670337003670337,21.47213479857712,29.834181869955053,143.68245578073842,157.6131192684989,136.03610482850107,138.11511517596293,212.9595752102732,211.81198683192852
0.4004004004004004,22.23634610256024,30.10625965849,144.6909810084904,158.0553710396152,135.85800804180607,138.2098615737344,213.0960275220328,211.69441296792843
0.4337671004337671,23.03677615756497,30.419679545552608,145.81172654878213,158.57062252345543,135.70679104584818,138.31273221256097,213.1719345390611,211.5604081639677
0.4671338004671338,23.87046038049881,30.767194709139385,147.03850271149315,159.13811674385667,135.58441508279756,138.4224447972148,213.18880942642755,211.41059569069705
0.5005005005005005,24.73443418826924,31.141558327246813,148.36511980650303,159.73709672465614,135.4928413948245,138.53771703246807,213.1481653492014,211.2455988187669
0.5338672005338673,25.625732997783743,31.535523577871373,149.7853881436913,160.3468054896909,135.4340312240992,138.65726662309294,213.05151547245208,211.066040818828
0.5672339005672339,26.54139222594995,31.94184363900982,151.2931180329386,160.9464860627994,135.40994581279304,138.77981127386278,212.9003729612506,210.87254496153244
0.6006006006006006,27.48369704410359,32.46294312283425,152.97819245832395,161.62537559355368,135.43691331186082,138.84181691048553,212.6929301244023,210.679125228302
0.6339673006339673,28.508939572255088,32.96252534019474,154.75634246067565,162.15231095440265,135.51129083138815,138.89550394036524,212.46907965967088,210.48667585712303
0.6673340006673341,29.55630802522495,33.49027097351341,156.65228292466108,162.67444303192596,135.6528033114459,138.9425939504313,212.16269344320057,210.27284409545928
0.7007007007007008,30.58175791986414,33.945117758642525,158.5800036485609,163.0035205419744,135.8496057512969,139.00883407312338,211.7700633425036,210.034805293892
0.7340674007340674,31.665649680099826,34.22308552294846,160.60364091894382,163.0004500271921,136.07887557606435,139.09543521290846,211.3329352454124,209.7736780937064
0.7674341007674341,32.714566399549746,34.371213820285746,162.62537044237436,162.70017968937077,136.3473845825739,139.20946596172908,210.8346910763716,209.48937308473305
0.8008008008008008,33.661273439216075,34.558227405183175,164.57424416478003,162.31088002950423,136.68978589869104,139.3232919877983,210.2728002681568,209.1871864952203
0.8341675008341676,34.57811869076018,34.63196573469726,166.4525155084101,161.5874552100121,137.08426911125142,139.46062536631817,209.66222408274777,208.8685223730123
0.8675342008675342,35.49855279017718,34.60408114186825,168.32520345292914,160.48460856983448,137.56457202184055,139.55067472229808,208.98916864593252,208.55912561730835
0.9009009009009008,36.39443286191534,34.46751767462949,170.15925213185798,159.15956604334048,138.05482430611715,139.6521382851171,208.3017666876476,208.2534387285357
0.9342676009342676,37.24409521208051,34.17905637506715,171.8285161762021,157.58063721468716,138.71862821853986,139.77620017765622,207.6466766391932,207.9222350728338
0.9676343009676344,38.03951065982388,33.80836562257529,173.28696104880643,155.83640333127823,139.42981188372687,139.93692533451397,207.5575926182597,207.56530774277
1.001001001001001,38.853488484821575,33.42616266413107,174.68766336589468,154.0855490871768,139.96043282866768,140.09328706561433,206.77256882476905,207.2116255827541
1.0343677010343677,39.59929132886237,32.95856439250544,175.9781520103534,152.29264936519465,140.3493433072329,140.28895776207497,205.9463224177121,206.8405310790616
1.0677344010677343,40.24141924968102,32.38856987028692,176.5542985747022,150.37226840410372,140.62660448636387,140.53434547034303,205.23048255240977,206.43872053961817
1.1011011011011012,40.77830762481738,31.75435849845056,176.97187388181175,148.42429306910282,140.76868305391383,140.83596763201652,204.5730587453476,206.0144104075244
1.1344678011344678,41.30091444099834,31.099159512356923,176.295121522768,147.29623946409197,140.8084313493192,141.2004496533844,203.95328531943989,205.58325930738232
1.1678345011678346,41.73962613723003,30.43077000460578,176.32683439485191,146.1640814931741,140.73525513359257,141.60989323304452,203.4229752396984,205.15346362346665
1.2012012012012012,42.21011464644894,30.172092264352766,182.75775126318305,144.54540012013237,140.6204481113126,142.01779255585382,203.00173479564504,204.73283871014567
1.234567901234568,42.63273464022732,29.90585432549862,187.86779641358297,143.00232578219132,140.43645937579714,142.49400904744456,202.66612456841312,204.3011726266765
1.267934601267935,43.33430886761238,29.60715618407174,191.08280295886803,141.67497739310724,140.19189000424694,143.04161337286962,202.42193781400988,203.86058516176104
1.3013013013013013,43.85033196381251,29.032607737105465,192.85589474920715,140.2591036713534,139.89307469573393,143.63938753593789,202.24721931728047,203.4254323601608
1.334668001334668,43.90419375788725,28.29182457334935,192.36053872526384,138.8598461614546,139.4855383094489,144.27506796173094,202.1427397845144,203.00090687829592
1.3680347013680347,43.50746058159985,27.462881192613263,191.0504893550671,137.33459619728856,139.03370365175024,144.93859171553152,202.1033400621104,202.60148050386385
1.4014014014014016,42.4746059688277,26.441435920730008,189.28147516358803,136.24523337909017,138.5298458643666,145.62586498369356,202.1640505949308,202.2347752070694
1.4347681014347682,41.22351115142494,25.444616065399728,186.9900294121766,134.93765881062612,138.0037115062674,146.3210555974814,202.305574040014,201.87137284209263
1.4681348014681348,39.81377971751925,23.97809421777652,187.3041629561657,134.50268764301538,137.45306836767392,147.01695293615123,202.50833765391928,201.52475465684452
1.5015015015015016,38.50765316121805,22.45416245414516,187.6692440489145,133.57698644741413,136.89235704241568,147.65294154878225,202.74109025186183,201.2407990610086
1.5348682015348682,36.9760727067706,20.409854681395604,183.18972950805025,132.27769030074165,136.32613852714658,148.25254826189607,203.0393809339913,201.01788853300093
1.5682349015682349,35.36103748143462,18.464787864712967,178.1269596552489,130.44151040361984,135.81773151508887,148.83275869202197,203.3622813151817,200.78097150580385
1.6016016016016017,32.671864597222005,16.318681832570125,171.40745391231366,127.23463417613118,135.37588049370348,149.34519963218946,203.68610364112072,200.5678221329095
1.6349683016349683,30.14412348853469,14.54393328391265,164.74032583686903,123.1711843025796,134.96149618792234,149.7505116810851,204.0670917394997,200.3734178253068
1.6683350016683351,27.98170141174857,12.944894916299132,158.9847209589414,120.44192350353792,134.60696990129284,150.09020558572308,204.56665314468088,200.2078646312117
1.7017017017017018,26.20292183062218,11.80685282961981,153.4551920432755,117.5043651032206,134.29345907276138,150.40312703144238,205.09203514196565,200.0528371900976
1.7350684017350684,15.836678430583694,11.390110502688078,147.72022688782582,113.72073236651887,134.0911872887963,150.65531183520264,205.590511292879,199.9105226698076
1.7684351017684352,8.865899673010041,11.3138511497168,141.88110329414283,109.5733508111169,133.97216592662585,150.86981734442142,206.08148283776129,199.76332801254512
1.8018018018018016,5.130189672344613,11.356743703961389,135.91955309635932,105.21277636607373,133.96401749762472,151.01412141582566,206.54327013584685,199.629215715134
1.8351685018351689,4.026156644776619,11.652513109742626,130.34932510983228,100.5346708401991,134.0239025017187,151.10997051802164,207.0331733190656,199.5175873519082
1.8685352018685355,4.026156644776619,12.296410296963,125.12796164024338,95.50199561944328,134.127584958337,151.1256065093363,207.59269530574173,199.4289888088904
1.901901901901902,4.026156644776619,13.402766161202557,120.5827079612426,90.5761164936562,134.29381636207134,151.09571758850862,208.1678259230784,199.3491054411969
1.9352686019352687,4.026156644776619,14.934268306908974,116.82591672865848,85.82026357106301,134.5281470047744,151.02145309182887,208.7366333672336,199.2808841888005
1.968635301968636,4.026156644776619,16.68760544277976,113.86689658686922,81.07764204295133,134.80252774120748,150.94048333543637,209.3322989286828,199.2154212862404
2.002002002002002,4.026156644776619,18.913100727355005,112.1634172660617,76.73728421723018,135.1194281946165,150.81428292501835,209.9652936428016,199.16299353133465
2.035368702035369,4.026156644776619,21.422705585519225,111.22008217707965,72.82697605747211,135.4172982215987,150.74728852201324,210.65197732670384,199.09548647378568
2.0687354020687354,4.026156644776619,24.11947815662354,111.0564129817866,69.1708323409594,135.74229872109402,150.7050067529188,211.33458046199087,199.0099760431254
2.1021021021021022,4.026156644776619,27.04195860541737,111.43817731506697,65.99902332576882,135.8731883119239,150.68445849070136,211.94977006320303,198.9331221321464
2.135468802135469,4.026156644776619,30.06066390501216,112.19686704275048,63.26341379999414,135.83049106199667,150.67590031273943,211.8360965461374,198.8669266147993
2.1688355021688355,4.026156644776619,33.110781475100495,113.61079186698596,60.90853149769015,135.81947017925728,150.73221757681912,212.2696934998968,198.7875953575289
2.2022022022022023,4.026156644776619,36.27939784694982,115.96627472624174,59.0362308040649,135.8428921814499,150.82193669987527,212.78284978503203,198.70458677205704
2.235568902235569,4.026156644776619,39.5954604937544,120.034336928731,57.84975157404686,135.8790738384876,150.93645649805137,213.2575926791852,198.64648752869127
2.2689356022689355,5.513081543842037,43.02002509242898,125.5048702590715,57.351875529361344,135.9206211933298,151.06256263673205,213.72155305116505,198.62048057424605
2.3023023023023024,9.136448668217763,46.48924505240027,133.8325859603518,56.49710198127881,135.94317645013666,151.18186895807187,214.20478233693385,198.627788302234
2.335669002335669,14.758860922735977,49.95150698866292,143.5959492992973,55.88411657048181,135.96825656152666,151.30304491662105,214.6381531099468,198.666561087671
2.369035702369036,22.24578607600314,52.8053985391962,146.97464092812982,56.01779718932194,135.92040371035785,151.47446761742935,215.02271007986351,198.72040695706428
2.4024024024024024,31.12376692617136,55.29274902491628,149.94424456703416,56.58567124724128,135.80207911496024,151.66749884036943,215.3824505590892,198.7869219275927
2.4357691024357693,41.418068561867805,57.31130486903059,153.01278242096586,57.31332249318021,135.60414144178432,151.86030473828032,215.71390437060435,198.8725033983644
2.469135802469136,53.03219642726688,59.074505704062055,156.08335971061086,58.45617506761145,135.3449556187599,152.04531978388232,216.02160494098123,198.9793879662949
2.5025025025025025,66.0277047997457,60.46777604318375,160.38862361431447,59.886978998917954,135.0750213994755,152.21252240347874,216.31176968316305,199.10056504906217
2.5358692025358693,80.3759316260469,61.41293434807761,164.91707380220538,61.76183874206812,134.77756620746433,152.36597038013608,216.58144757658675,199.23719091210725
2.569235902569236,95.58915362301208,62.00772616050322,169.53588302689792,63.40887599389256,134.5233486118495,152.5015234405549,216.7911678418112,199.3811721266165
2.6026026026026026,111.4032609631103,62.004668462798506,174.10189323512213,65.27668397678644,134.32408589131614,152.62514392683474,216.92392028364583,199.52948977269327
2.6359693026359694,127.64752594970166,61.89657353870149,174.38552061749962,65.89140847357923,134.1886604148618,152.7410988344772,217.02823066306843,199.67260249517832
2.669336002669336,144.23928505776846,61.41790111340631,172.3083578691841,66.31145843342995,134.078843578616,152.84031293417945,217.1133128661512,199.8054207282464
2.702702702702702,160.83354167221984,61.18830337001116,172.7354138782317,66.26636724277115,133.99793531711248,152.90343434970595,217.20773193874783,199.9410172498972
2.736069402736069,177.32034374477865,60.86425857947109,172.65759686945898,65.82235005194173,133.92553607106842,152.94355152188203,217.2977055396528,200.04819259780749
2.7694361027694363,193.30325970605992,60.88048862204391,173.6125533120992,66.18455392871846,133.8725673838221,152.97739617842598,217.42915016272383,200.1475234870396
2.802802802802803,208.5917532888664,60.88784780874165,174.36580650841685,67.51386559623649,133.86742588456414,153.03322560335025,217.6148403893848,200.2312470038364
2.836169502836169,222.4778387167769,61.07880413219663,173.96056681795736,67.39246623990944,133.88447115499253,153.0590573387112,217.7415871420628,200.3303636698226
2.8695362028695364,235.10306412876864,61.56139382802554,172.9639486068688,67.10415578060716,133.87160931763253,153.05393437632114,217.9195860888464,200.4368416942888
2.902902902902903,246.52176936929675,61.77075084180648,172.00765331055086,67.27895881698873,133.80843140206116,153.0056588425323,218.14020202904595,200.57812763593265
2.9362696029362696,256.6093241940946,54.36234430534452,172.3756622558412,63.14026509917852,133.69849802724153,152.93522689216795,218.27417510271488,200.7308787291763
2.9696363029696364,265.60914002630625,49.41597512056428,173.13862840650705,59.78578567508421,133.52714921842548,152.82667030559992,218.46409713055635,200.92795693030408
3.003003003003004,272.87019968685337,54.6278252317371,174.33271647873016,61.11856001458992,133.2217781088432,152.6988852246715,218.87014610629063,201.1448612668861
3.0363697030363697,278.22924722445083,59.53214785641656,175.4135578370168,62.432376250638896,132.9124894227258,152.5564039306126,219.2540841433087,201.39753754736088
3.0697364030697365,281.2537405287094,63.67833245960168,174.955339768625,63.19149580737663,132.62920398940034,152.3943707964788,219.61770019787852,201.6672078990272
3.103103103103104,282.40562931996203,67.11091983710294,174.62699960128185,64.06706912208584,132.40351613195747,152.19811670871002,219.90120819236665,201.9716508299961
3.1364698031364697,281.2300061503646,70.39705669612628,176.57202690594104,64.90949126628476,132.17143393396574,151.9822002180827,220.06558236852592,202.29611478245585
3.169836503169837,279.0432562890702,72.72573297785752,178.27975544102208,65.71544632589165,131.9712567814606,151.73576288692115,220.1072502005564,202.6693591867216
3.2032032032032034,275.0708266625683,74.09964496947411,171.98529456417023,65.59967514575463,131.82025600811426,151.58575811292403,220.0998815288093,203.01227429334844
3.2365699032365702,268.8746811019317,74.68937978647077,165.3094849583831,65.7832392726517,131.76388684639,151.42686266566832,219.9574222294876,203.38221579624485
3.2699366032699366,260.0794223039178,74.16748199775476,159.11114675953638,65.38625900516087,131.72039016761315,151.22181687243054,219.72771117136048,203.9655199167859
3.3033033033033035,260.5421995762474,73.19588879214335,153.87580490847913,65.10599684423455,131.79209642533863,150.87680481720068,219.34907297049537,204.63303388108773
3.3366700033366703,269.203775879144,72.34457514191038,149.31293369937416,67.36561585790521,132.11124107934933,150.53206407473513,218.7069640000405,205.30397141949152
3.3700367033700367,275.26134049726187,71.09299618226903,145.20589361720414,69.58539454057923,132.47964883445673,150.07750139159037,217.96284748014537,205.9630504919
3.4034034034034035,280.374415226843,68.75458066506417,142.56947736540496,70.7627152266142,132.72953282307392,149.4417729288234,217.4809742999214,206.70904227732188
3.4367701034367704,282.8122193910186,66.04701864613642,140.37030255723047,72.31447012023428,132.93216587851134,148.71925275015818,217.02923357102952,207.43651366629027
3.4701368034701368,282.8436592862515,62.82137353563466,138.412643026715,73.86349918669364,133.18278414201248,147.9847057601925,216.37746699208373,208.2463611737969
3.503503503503504,280.50083182015027,59.48563016324607,136.57772225403798,75.83373036603243,133.41825757288538,147.22090498763683,215.64728849293093,208.99894199782867
3.5368702035368704,275.1516787447913,55.84426401130781,134.7376021130791,77.93535193695202,133.63627693625307,146.55415074248052,214.8973512477156,209.7425523266245
3.5702369035702373,268.2343111359166,52.194400880953054,132.9810040675804,80.47640676000128,133.87212451299632,145.88208892528715,214.0762903075261,210.34698294197315
3.603603603603604,259.4334192180622,48.36144466569112,133.5799703061174,87.78266865975856,134.1749500529735,145.20774255724987,212.9926783932039,210.7586075981829
3.6369703036369705,249.390366488982,44.61068664745558,133.89528891707425,94.42744239044066,134.49752670314624,144.5807346548322,211.8584118158276,210.954108150344
3.670337003670337,238.27983330807123,41.05268936802487,133.967387390737,100.77733717319222,134.84967877670616,144.03023131906744,210.70676020977845,210.9701277800083
3.703703703703704,226.0274962043306,37.68793209300839,133.7859876028646,106.17731748019304,135.23120943638767,143.52854640757067,209.5715862582394,210.7955873456982
3.737070403737071,212.7571444124696,34.581457590822936,133.8097398786134,110.34599177360256,135.58894936458344,143.19550131892734,208.55991198626384,210.4213106588804
3.770437103770437,198.852377508674,31.61903830504789,133.52341263250807,113.23067745203308,135.93767182314338,142.93921343734743,207.59032735678736,209.8690598249926
3.803803803803804,184.87649300814928,28.68423248782119,132.50816382551727,114.81844404183876,136.30903118112852,142.69783071821496,206.61655445455452,209.11806138885024
3.8371705038371706,170.55225644621984,25.86826484537812,130.86514171602573,115.10713932154304,136.68714366965366,142.50267073695272,205.6468706636888,208.2173696408053
3.8705372038705375,156.12276603562162,23.350773435640715,129.14260833209644,113.74782526674576,137.06133421602527,142.4893182476703,204.6782615478983,207.2051673131054
3.903903903903904,141.60713071141245,20.93603676555429,127.49868705456684,111.2919894316517,137.41480967102677,142.51085453043518,203.74174870582888,206.1233178302367
3.937270603937271,127.06539450762786,18.453622683505383,125.84617968257189,108.01734813112964,137.7392938258653,142.53404500264622,202.8548820651373,204.94933211739163
