Time,Left Shoulder Angle,Right Shoulder Angle,Left Elbow Angle,Right Elbow Angle,Left Hip Angle,Right Hip Angle,Left Knee Angle,Right Knee Angle
0.0,21.81442055185195,29.79731723095769,162.22517662072326,169.33055887263086,144.66322920148676,140.03925459669017,194.4431610335262,199.028960441312
0.0333667000333667,21.428515547169887,29.681830283048324,161.10136368825636,169.00668978566284,144.9627030389466,140.21085213881588,194.44019239953,199.11852112158093
0.0667334000667334,21.13181210662248,29.603020521010613,160.16062118510283,168.72378733177254,145.1426930371237,140.3031346617618,194.47427607881127,199.2406739004952
0.1001001001001001,20.919208997500764,29.556878938711584,159.3943724138992,168.4779613123159,145.21180526089333,140.32319112237823,194.5419804686535,199.3916219906613
0.1334668001334668,20.785604987095827,29.53939653001828,158.7940406772818,168.26532152864897,145.1786457751307,140.27811047751544,194.6398739663402,199.56756860468616
0.1668335001668335,20.72589884269873,29.5465642887977,158.35104927788703,168.08197778212772,145.05182064471106,140.17498168402372,194.7645249691548,199.7647169551764
0.2002002002002002,20.734989331600527,29.5743732089169,158.05682151835134,167.9240398741082,144.83993593450958,140.0208936987533,194.91250187438072,199.9792702547388
0.2335669002335669,20.80777522109229,29.61881428424289,157.90278070131114,167.78761760594637,144.5515977094016,139.82293547855448,195.08037307930152,200.20743171598
0.2669336002669336,20.93915527846509,29.67587850864272,157.88035012940284,167.66882077899828,144.19541203426223,139.58819598027753,195.26470698120065,200.44540455150675
0.3003003003003003,21.12402827100998,29.741556875983395,157.98095310526284,167.5637591946199,143.7799849739668,139.32376416077273,195.4620719773616,200.68939197392584
0.333667000333667,21.35729296601803,29.811840380131954,158.19601293152755,167.4685426541673,143.3139225933905,139.03672897689032,195.66903646506773,200.93559719584405
0.3670337003670337,21.633848130780304,29.88272001495542,158.51695291083342,167.37928095899633,142.80583095740857,138.73417938548062,195.88216884160263,201.180223429868
0.4004004004004004,21.948592532587863,29.950186774320827,158.93519634581682,167.29208391046316,142.26431613089622,138.42320434339385,196.0980375042498,201.41947388860444
0.4337671004337671,22.29642493873177,30.0102316520952,159.44216653911417,167.20306130992373,141.6979841787287,138.11089280748033,196.3132108502926,201.64955178466016
0.4671338004671338,22.6722441165031,30.058845642145567,160.0292867933619,167.10832295873405,141.11544116578122,137.8043337345903,196.52425727701453,201.86666033064185
0.5005005005005005,23.070948833192904,30.092019738338955,160.68798041119643,167.00397865825013,140.52529315692908,137.51061608157403,196.7277451816991,202.0670027391562
0.5338672005338673,23.487437856092257,30.1057449345424,161.40967069525414,166.88613820982798,139.93614621704742,137.23682880528182,196.92024296162973,202.24678222281
0.5672339005672339,23.91660995249239,30.09601222462317,162.18578094817275,166.750911414825,139.35660641101262,136.9900608625651,197.0983190140916,202.40220199421165
0.6006006006006006,24.35933477541129,30.0489763008492,163.3205159518768,166.66226328654844,138.88663457115592,136.8825629830309,197.28576907493985,202.5058590488717
0.6339673006339673,24.79068788299952,29.932815698586435,164.27775206972228,166.4820439367004,138.48697980118212,136.84331571056262,197.40698935931908,202.55394466083104
0.6673340006673341,25.191096492645123,30.065293796595885,165.18603474542985,166.75668010413335,138.17170486402412,136.7720821284142,197.43922783070732,202.60928368718345
0.7007007007007008,25.56247771149059,30.0723296052537,166.0618015034889,166.84730419235206,137.9223585928708,136.77516068082522,197.39889740273645,202.5983100489936
0.7340674007340674,25.90613508425649,29.79553383971605,166.7626110547217,166.52680928594611,137.70369722800237,136.8507300467124,197.2969127103484,202.53650318098863
0.7674341007674341,26.26867428025989,29.3573717166442,167.44856778565392,165.9955937146958,137.53257646418717,137.01598239941157,197.15364964316643,202.4085515144188
0.8008008008008008,26.751307776090737,28.957018103784225,168.07715759668375,165.65827647617925,137.42084286810734,137.22266418266625,196.94599606141128,202.2209111839083
0.8341675008341676,27.130562322942183,28.451755586512743,168.549188906216,165.15748493311784,137.34131043771396,137.50668910797538,196.71044584336232,201.9487968010298
0.8675342008675342,27.539795856797355,27.9036361278886,169.10430179759297,164.58154385178975,137.20911008366207,137.80871269892197,196.5139140005957,201.65995159281087
0.9009009009009008,27.919756318592945,27.338983744491664,169.87035074698247,163.8518475996901,137.04876278690764,138.14161493534093,196.38110105197143,201.4104823356823
0.9342676009342676,28.23957015613452,26.713303669788253,170.56655809452093,162.65813515735235,136.87678072133087,138.49889783723964,196.31364746053848,201.1209546266546
0.9676343009676344,28.46267709278625,25.970313561011643,171.25687111919402,161.22147350366774,136.72390183219295,138.9670360441156,196.2326063456248,200.7276278408741
1.001001001001001,28.58913321082209,25.217213434832093,171.83060137596843,159.94923874026586,136.60644931094677,139.5564942770687,196.14441043262755,200.22952387888216
1.0343677010343677,28.627205747441234,24.30810515655575,172.52160643235266,158.6539968312597,136.52334770325248,140.27973669362882,196.0733659039707,199.6241541742382
1.0677344010677343,28.52674469094094,23.17568964512974,173.0059225987813,157.02120288624104,136.51936503222592,141.12160493561188,195.954072648838,198.8898774097096
1.1011011011011012,28.28637183999193,21.91915209408803,173.60330906703993,155.29054621484931,136.57605075753517,142.10844034411178,195.7915895473768,198.0605935098011
1.1344678011344678,27.81780773249531,20.6412961666592,173.24496757298724,153.53843136966714,136.65872391525218,143.19748560506108,195.6143673045746,197.1616556320362
1.1678345011678346,27.21867130857482,19.249399418328007,180.3900238131528,151.65044052786106,136.70070309997814,144.3139912870207,195.4851369948728,196.2728568432127
1.2012012012012012,26.48922671942294,17.402627058998213,183.47912042874407,149.07157292948887,136.6517849670962,145.46481905911745,195.42015896586332,195.40688878992992
1.234567901234568,25.86713263247477,15.593517951934444,182.80902127475537,146.6513464763491,136.54026173804024,146.6179617663677,195.40404669359168,194.52574516459072
1.267934601267935,25.30097798823764,13.753732391566624,181.40420342689708,147.2191825389712,136.30480237699535,147.69047425201498,195.53164093619225,193.6831247625956
1.3013013013013013,24.542683334332008,12.144211351182484,179.90893852162105,147.48232571228417,136.00421631553166,148.70334346007536,195.8029593324661,192.8777369424413
1.334668001334668,23.691708027091305,11.120620332847654,180.152230029106,147.0347398240684,135.74380742574974,149.70677723343945,196.1791537940279,192.07380890654724
1.3680347013680347,22.768488459341253,10.288303003394194,179.84091949476743,146.01427838204833,135.47733012929376,150.65540006023588,196.62670137483653,191.29700937660212
1.4014014014014016,21.781551976950563,9.692882108514064,179.00841478412408,144.31117249600993,135.1377852176307,151.46542179040748,197.14941186394088,190.6218580850624
1.4347681014347682,20.68980525922033,9.170931132969308,177.5325410438195,142.22099151438528,134.75097177016465,152.15968312565704,197.7393994383389,189.979791273944
1.4681348014681348,19.566935661417773,8.476274860362212,175.7094229003759,140.09610349286322,134.35573231571996,152.72311145008112,198.4015815660815,189.3734773323792
1.5015015015015016,18.31937079015361,7.790786714011957,173.2242287167203,137.5608825713693,133.93195504512752,153.24644647852526,199.0916545273782,188.7917171414676
1.5348682015348682,16.936173459680028,7.022243345314212,170.45367261810208,134.82259391132223,133.4444585130903,153.6637236299181,199.811971580422,188.2557509198085
1.5682349015682349,15.533398958522502,6.391552779051192,167.39516867196969,131.91184349347844,132.96539184546333,154.06460012861913,200.50393323252155,187.7529787483629
1.6016016016016017,14.029480923369812,5.914985542080086,164.58049572489554,128.9565856789849,132.4754425516972,154.41703995259627,201.1770766485421,187.304307903929
1.6349683016349683,12.549104590388298,5.585364591020044,161.32327336493097,125.69000055928916,132.0322080864189,154.78646408154353,201.81951533094093,186.87131815790383
1.6683350016683351,11.18908643230728,5.298746803361677,157.71805423055108,122.2109480269726,131.63006800094826,155.11233205402547,202.4067372447292,186.4522622235156
1.7017017017017018,9.860686585194182,5.232958209122852,153.62038644501206,118.50102944870638,131.27514220532993,155.3453386989517,202.9693891074777,186.04517582310265
1.7350684017350684,8.547255877916559,5.189862617500232,149.17460878512333,115.7734488996403,130.95936673274352,155.4545808601929,203.50420360293447,185.69093021523923
1.7684351017684352,7.188213363306322,5.189862617500232,144.3018396627866,112.13968055695268,130.64839031570665,155.5030303617869,203.97418300451108,185.35754105620427
1.8018018018018016,6.04668877281146,5.189862617500232,139.55905965166366,108.45020093389624,130.41362081948367,155.42092544421743,204.3764744936884,185.0843969833179
1.8351685018351689,5.068686878409499,5.189862617500232,134.5927203945387,103.87141392403775,130.1652821456996,155.29892056278163,204.76735851650903,184.8348966458549
1.8685352018685355,4.469095355683782,5.189862617500232,130.0034328672797,98.6549740876871,129.90614659016026,155.09022432440395,205.11837458910372,184.6357609728448
1.901901901901902,4.463028765243858,5.390554206220351,126.21467954513372,93.5228633507036,129.66523263843135,154.8093360782207,205.4214395508332,184.47174287835048
1.9352686019352687,3.541974000546736,5.843920441700262,120.35899759918304,88.44312552798876,129.45044015040784,154.46549671148566,205.687960862952,184.3616787349345
1.968635301968636,3.541974000546736,6.232674412286595,114.62105918196252,82.99412325050318,129.1959951489623,154.10790408095693,205.95878693046828,184.2822795720269
2.002002002002002,3.541974000546736,6.769922547233543,109.5896025951662,77.58120182802372,128.90060374165083,153.70476189880372,206.211015774502,184.28684346741227
2.035368702035369,3.541974000546736,7.71024303424439,105.1457167412029,72.05812987546106,128.57559496818445,153.2885381419837,206.46725044938808,184.33303547234684
2.0687354020687354,3.541974000546736,8.971732635598634,101.29591256686612,66.53577314959385,128.2398822558144,152.87315714992053,206.6959259905946,184.3261047922328
2.1021021021021022,3.541974000546736,10.315882386764835,98.56456882916147,61.39495950595733,127.87972816530213,152.50413245791077,206.8838636953471,184.2997921249668
2.135468802135469,3.541974000546736,11.82122897498017,96.83897136165884,56.69493227671884,127.44485989445164,152.13800202388666,207.0600953278016,184.2717634622152
2.1688355021688355,3.541974000546736,13.41668666815458,96.25458501166892,52.05273769629985,126.92660213695306,151.75570752289192,207.2123774055817,184.2461991577331
2.2022022022022023,3.541974000546736,15.07355128960931,96.59981721220696,47.72266097918602,126.40225953907286,151.37283342713377,207.29101990709992,184.20424031839656
2.235568902235569,3.541974000546736,16.77717510613032,98.29818162610808,44.062277797830326,125.80346069055209,150.97582463025697,207.40674744951025,184.2300053905641
2.2689356022689355,3.541974000546736,18.51164365887869,101.05099534234408,41.074277194951925,125.1206473509865,150.66392184934767,207.5617331696681,184.1101867756308
2.3023023023023024,3.541974000546736,20.160677466323914,106.31001156834972,38.71668697896865,124.40092851573712,150.3452319952942,207.74698181451,184.0739215526449
2.335669002335669,3.541974000546736,21.79253564355628,105.05870606112282,36.67025264573443,123.61706823566466,150.0893206000072,207.9297754279444,184.0594126495444
2.369035702369036,-6.874135689455041,23.49171911024728,105.74746610454092,36.66324985109456,122.9281642873708,149.78954319679815,208.1218676360822,184.18044398821985
2.4024024024024024,-13.738839598476597,25.274204138911934,107.98990575531197,36.42235506113752,122.20469841879036,149.54383378544534,208.268652286854,184.32529188374167
2.4357691024357693,-17.40611787903054,26.93231403182616,107.5025872452559,33.85968789809531,121.5631758203264,149.2431339957187,208.4345586146568,184.6405507242605
2.469135802469136,-17.787841288266915,28.658597719992244,111.12994681286352,32.19756434559745,121.02481744121135,148.8695717880556,208.8003499574677,185.0839879767924
2.5025025025025025,-15.416383203913767,30.51054630702658,114.39203462699324,31.507191619365795,120.38738427537118,148.3037948388196,209.2448709632953,185.7639040343397
2.5358692025358693,-10.47495502176264,33.42100979126201,120.1713243215535,30.57371074283828,119.76963141028642,147.56496993387427,209.7048688791077,186.6716838107328
2.569235902569236,-3.133419714453331,36.55447651845291,125.01059418375296,30.35783307836469,119.24681752668045,146.79498466446682,210.1263110728001,187.655899023964
2.6026026026026026,6.447460710380736,38.85808547627811,127.71117200776057,30.71357640167185,118.63592215534216,146.07712697554936,210.52681225180612,188.70636250426776
2.6359693026359694,17.99665272259439,40.21381892197032,129.2741696531271,31.33828888482729,118.09681314684669,145.35406999858895,210.8404732055024,189.79708795360543
2.669336002669336,31.396264501616333,41.58750018453818,125.60036688681409,30.598070704600783,117.47254286012898,145.25891868670834,211.24808605964168,190.3002166924285
2.702702702702702,46.40642928613796,42.08961211295323,121.49137155123698,30.27050536214466,117.13335130161956,148.91793273954224,211.5451032127655,197.22490277369505
2.736069402736069,73.82539008121165,41.55308420809734,120.15117840112538,30.85329666744457,117.11662224489412,146.80950097666104,211.7121144033169,197.2122118607072
2.7694361027694363,99.25997434128205,40.89249645216332,119.18723757695776,32.484804704570486,117.33916732064948,144.27927511928064,211.75640931082523,197.4537370018857
2.802802802802803,121.90854861952742,40.02384348427415,118.54444143697415,34.95176573358831,117.723046471777,141.81103339536386,211.7305246160624,197.58267128755003
2.836169502836169,141.9629475409963,38.95035386829996,118.15944013692756,38.40100246195389,118.28436736070444,139.37965039758114,211.5817420622685,197.65863900724952
2.8695362028695364,159.48767941557307,38.08906626090715,118.13823628441295,41.70340584810151,118.9325799258157,136.86181950676468,211.3614664773644,197.9105790093528
2.902902902902903,174.16176970999132,36.93454148251197,118.46767847252836,43.99262436010174,119.64937892292568,134.44347636192785,211.1177798407685,198.1859284740076
2.9362696029362696,187.05996789981137,35.39845274311248,119.44733065547304,46.7540586005613,120.3266777961888,132.07657795503505,210.7880724657937,198.4418744341969
2.9696363029696364,197.41799401653884,33.6595721847855,120.4353059807658,49.97665754039591,121.11006278392742,129.8461217900554,210.29591376789128,198.6551519307865
3.003003003003004,205.09668572552687,30.995760001507232,123.0488952297264,54.662250600998135,122.1511829687459,127.87662010906304,209.4672135839476,198.90617497666145
3.0363697030363697,210.3598057655926,28.33653340829064,124.77927762476112,59.92943318642806,123.33148737491878,126.13296950741498,208.4887032666788,198.9877063353072
3.0697364030697365,211.85903987863372,25.43147547740631,125.087527926674,66.5218101924264,124.55106851820882,124.54307564405512,207.4439023762054,198.98049782230845
3.103103103103104,211.45540227063108,22.8148053489802,127.28765392133126,73.90033088133572,125.8367714031092,123.20181235888676,206.2679614468973,198.86120660392413
3.1364698031364697,209.22733688371383,20.78544907379911,128.66468799867667,79.12494286585995,127.2902142363556,121.87134711580454,205.08469500763667,198.6627762118769
3.169836503169837,205.1870249691421,18.902813940457808,129.98649423508854,84.53758210821772,128.78142093957877,120.85900116217572,203.85063049354,198.24544880614368
3.2032032032032034,199.23227725005893,17.27440593901333,138.4303389847769,90.02568978924705,130.3056462578971,120.16566954335404,202.5108840253056,197.7739506800689
3.2365699032365702,191.18272965336172,15.893018948734998,145.43577027399328,95.64238970974148,131.77315858159983,119.8281036599382,201.0798326595016,197.1448289499168
3.2699366032699366,181.03042405329347,14.535479226122296,150.65319742745254,101.70205720395067,133.19571440483725,119.8795838334615,199.46772643666952,196.25673224131
3.3033033033033035,168.88948080699834,13.402996307773218,154.734030879917,107.19144332127728,134.7098255980929,120.28660335681792,197.8191951672325,195.22067440866653
3.3366700033366703,155.12191774739497,12.49219024602586,151.06726377679593,113.7838044822668,136.10321585909935,120.93733153396836,196.25770616647955,194.19133687675955
3.3700367033700367,139.36924800590114,11.942749649463176,148.48841480889348,119.3359487815598,137.30400250819864,121.86577793756932,194.84266457442675,193.10743444062567
3.4034034034034035,123.219288660286,12.134755892457626,152.4624450733951,123.48291995405408,138.31440031016442,122.9686287559598,193.5404800258024,192.0047497492923
3.4367701034367704,104.02445713799058,12.849385642326864,155.05026417307658,126.8586161105506,139.0129502760134,124.25703983843783,192.39754760850832,191.0722935328644
3.4701368034701368,81.96398614049787,13.324153402319194,157.03906928120296,130.3058957685101,139.4621502024759,125.75571881131523,191.5711725056695,190.24080656856395
3.503503503503504,58.86661343980762,14.104282301517964,153.2147810660369,134.30280691842992,139.347201836447,127.88621633666234,191.01746977803336,189.039022003228
3.5368702035368704,46.20240873962364,15.30742198956949,147.7372638657631,136.47461485742275,139.64530118583082,129.75171664303653,190.3692146204876,188.40383216577547
3.5702369035702373,34.95117210125625,16.984794524248407,141.8092552222382,138.3109130967438,139.94354896493428,131.57159491533923,190.02501803722384,188.09944657866023
3.603603603603604,25.491606440197582,19.48035059133021,137.6124692895246,140.3535799913369,140.0960067989275,133.4697890898975,189.8904166272548,187.947363412118
3.6369703036369705,17.75328696627736,20.90352171241225,135.0907690576232,139.4579202999493,139.3128326251389,136.35253385649688,190.3415915002421,187.3408985223744
3.670337003670337,12.156181394587414,22.32214121829093,130.54653733622533,135.83175522653218,138.43466584259673,139.15451894979515,191.03430310673176,187.03549893392545
3.703703703703704,9.03387135482341,23.270059349888182,121.9424451284824,131.45940574296924,137.670293723192,141.92402971962343,191.6348511774848,186.99264195240303
3.737070403737071,8.891847268035022,22.148948464368328,111.68743863951752,125.11212188118064,136.9846372629878,144.54065291297374,192.0978042736264,187.3690020868211
3.770437103770437,11.457606520938567,23.49607906533574,101.59634124185447,118.5722705713332,136.5896251306045,147.03965472656628,192.45010388864924,188.0323289813657
3.803803803803804,16.970545928863416,14.315726554880666,90.67504851908804,111.637519792768,136.28906571589056,149.31835585779055,192.73238684339424,189.12723256261063
3.8371705038371706,25.356395055585587,8.353196703858327,85.22055003635673,107.10891385934649,136.35142402233086,150.63018728662468,192.77208691071496,191.3364482064345
3.8705372038705375,36.478470528125285,6.510437818993085,82.30710716561178,103.93685692082164,136.48160247476517,146.228232705559,192.5600852035341,185.9314891380699
3.903903903903904,36.36516732346683,7.516417317598509,78.60485306791696,102.17930374798834,136.56715959396143,145.8469859187735,192.43977391884223,185.85908886093551
3.937270603937271,34.53177653586285,10.83909386173887,75.25215637449433,101.97439592459612,136.94516631043578,145.3439492750686,192.4663008895876,185.6807049597038
