Time,Left Shoulder Angle,Right Shoulder Angle,Left Elbow Angle,Right Elbow Angle,Left Hip Angle,Right Hip Angle,Left Knee Angle,Right Knee Angle
0.0,23.518895138057548,33.6262481806218,178.9111450919685,164.02915030717924,144.81940133272812,150.37055752952065,196.76212601214968,197.7703250089059
0.0333667000333667,22.84042396084913,35.03664120085714,177.9894383694145,165.03201096245596,144.00113079400336,149.5328348983435,198.6750788983614,197.97807035318303
0.0667334000667334,22.25889099850058,36.25112071466982,177.14161285456066,165.89252987793765,143.3107416121301,148.85063114590832,200.3460179372599,198.14278701228025
0.1001001001001001,21.768847987708345,37.27857883219825,176.36645337905907,166.6184876749978,142.73773718438463,148.31560418000194,201.7914645134528,198.267116900964
0.1334668001334668,21.36484666516885,38.12790766358086,175.66274477456193,167.2176649750098,142.27162090804316,147.91941190841112,203.0279400115476,198.3537019340009
0.1668335001668335,21.041438767578555,38.80799931895605,175.0292718727214,167.6978423993471,141.90189618038198,147.6537122389227,204.071965816152,198.4051840261576
0.2002002002002002,20.79317603163388,39.327745908462255,174.4648195051896,168.06680056938316,141.6180663986773,147.5101630793235,204.94006331187336,198.42420509220045
0.2335669002335669,20.61461019403125,39.69603954223789,173.96817250361875,168.33232010649138,141.40963496020547,147.48042233740028,205.64875388331944,198.4134070468962
0.2669336002669336,20.500292991467123,39.92177233042137,173.53811569966095,168.50218163204516,141.26610526224266,147.55614792093988,206.2145589150977,198.3754318050113
0.3003003003003003,20.444776160637925,40.01383638315112,173.17343392496838,168.58416576741803,141.17698070206518,147.7289977377291,206.65399979181583,198.31292128131244
0.333667000333667,20.442611438240096,39.98112381056555,172.87291201119316,168.58605313398334,141.13176467694925,147.9906296955547,206.9835978980813,198.22851739056608
0.3670337003670337,20.48835056097008,39.83252672280308,172.6353347899875,168.51562435311456,141.11996058417117,148.33270170220356,207.21987461850168,198.1248620475388
0.4004004004004004,20.576545265524288,39.57693723000214,172.45948709300353,168.3806600461851,141.13107182100714,148.7468716654624,207.37935133768457,198.0045971669972
0.4337671004337671,20.701747288599183,39.22324744230114,172.34415375189343,168.18894083456843,141.15460178473344,149.22479749311813,207.47854944023752,197.87036466370773
0.4671338004671338,20.8585083668912,38.78034946983849,172.2881195983093,167.94824733963796,141.18005387262636,149.75813709295747,207.5339903107681,197.72480645243704
0.5005005005005005,21.04138023709676,38.25713542275263,172.29016946390334,167.66636018276714,141.1969314819621,150.33854837276724,207.5621953338839,197.57056444795177
0.5338672005338673,21.244914635912306,37.66249741118196,172.34908818032773,167.3510599853294,141.19473801001698,150.95768924033425,207.5796858941925,197.41028056501835
0.5672339005672339,21.463663300034447,37.00532754526524,172.46366057923595,167.01012736869947,141.16297685406838,151.60721760344651,207.60298337630303,197.24659671840493
0.6006006006006006,21.540485653371483,36.235784878722896,172.38022485965138,166.60595460574223,140.88328115875183,152.27657190025633,207.9894747310914,197.0881371608343
0.6339673006339673,21.63698627568592,35.409444229334945,172.26390503794454,166.14399917639426,140.5668106120182,152.9234762986281,208.3997917570113,196.9336240537304
0.6673340006673341,21.735569324184905,34.62580342976899,172.36349432939912,165.82911902255785,140.21515034619105,153.557565228151,208.9061842455789,196.79195119224647
0.7007007007007008,21.87948482536236,33.87654538103637,172.58860926088084,165.556538380853,139.69170774323322,154.16944373649582,209.56979628809285,196.6689747326261
0.7340674007340674,22.066813614962324,33.14926502635257,173.04225229091793,165.3260838166845,139.05976531797694,154.76636398238654,210.3165094043184,196.5693790136881
0.7674341007674341,22.354489272770312,32.443475974799135,173.7071055840452,165.1342175373772,138.15628897241876,155.34769696322405,211.3119150651466,196.4757555203932
0.8008008008008008,22.69744170630584,31.7378722994596,174.54769275139682,165.0197932330892,137.12910431544674,155.91194023187094,212.3724247524054,196.3948075168321
0.8341675008341676,23.111230362990224,31.112860909135858,175.6480539620028,164.94225880211067,136.1487744127409,156.43852191356848,213.35209580234903,196.3323064446
0.8675342008675342,23.54792948319777,30.500288409284483,176.91315767870782,164.91460603013695,135.2034682495582,156.93768216767666,214.25771858267723,196.27349579349905
0.9009009009009008,23.845299562760587,30.039591654249325,177.89373406623557,165.0326271275794,133.9690212543082,157.37396106267607,215.5203758257436,196.2415428184509
0.9342676009342676,24.02915539175283,29.534171776223783,178.7418511393813,165.14473243031122,132.8653356668236,157.75880252518633,216.5846061063709,196.22987585343063
0.9676343009676344,24.180077357209072,29.06229529880715,179.35911169791888,165.35920217517025,132.00890989792578,158.0875238375185,217.3257301364009,196.2328069528884
1.001001001001001,24.231418780815872,28.4668035035495,179.89430418882105,165.4471349432879,131.35679115347938,158.35076708604038,217.78758119663,196.2500684598789
1.0343677010343677,24.19101058049629,27.845612021206875,180.26773964097185,165.34252729407677,130.69466477287304,158.54303771695277,218.26849220844545,196.2906428039549
1.0677344010677343,24.09638003707516,27.08195268400902,180.6928434665936,165.10897637329452,130.15148353568054,158.7089704677998,218.62685438088133,196.3021664105921
1.1011011011011012,23.89726672448974,26.22851696303315,180.8574583379057,164.73538565135462,129.7337598352068,158.8375160654018,218.88997098757528,196.29281627277405
1.1344678011344678,23.58613806526657,25.297593186457835,181.0213974886332,164.3531926446933,129.4479939389373,158.97934757875242,218.9729964680144,196.2704292641322
1.1678345011678346,23.30411037478284,24.29904504655113,180.96923509557027,163.8829064265519,129.3599994563935,159.0871135139111,218.7260591509596,196.237017991043
1.2012012012012012,22.9597246401542,23.22441464399797,181.01215849530465,163.41388316283818,129.39150651470334,159.17289799240973,218.28402212378228,196.19730433205208
1.234567901234568,22.68601370053129,22.14902684143096,181.30309319210664,162.73926373801163,129.38730404332352,159.15164117217418,217.82922876748097,196.18855677604785
1.267934601267935,22.21961519001248,20.965590280552373,181.7812634556089,162.1302374336432,129.37141111154455,159.19040006183366,217.3508149756757,196.1742466374284
1.3013013013013013,21.27703829002476,19.713426586531803,182.53450263167144,161.44968888714394,129.4545359269624,159.2772856083343,216.6932186826072,196.14137085512496
1.334668001334668,20.272705647226164,18.405400986435893,183.38533326938852,160.84615797171736,129.67831794139005,159.35578467299976,215.83661836110096,196.0885062388433
1.3680347013680347,19.17242236240255,16.839570695928582,184.08879697975425,160.70993522731388,129.97992084676034,159.4087000224014,214.8672324427744,196.031069232878
1.4014014014014016,18.072806944044533,15.16533329135482,184.8469867044792,160.55824501360223,130.48252468355096,159.47645309158017,213.73492538727191,195.9553467553364
1.4347681014347682,16.760893809876727,13.588507828606614,184.91918573622848,160.43570908010577,131.1925854662069,159.57156993308485,212.3870560028483,195.8512553790733
1.4681348014681348,15.53187207131224,12.122785667608634,185.0231061229564,160.3519719730204,132.08890957874797,159.77554359487775,210.8686189878549,195.7160788416417
1.5015015015015016,14.348618452943317,10.46193720820197,184.95733409739387,160.2774809638393,133.2327015633521,160.04891740158055,209.02304105728385,195.53412246326465
1.5348682015348682,13.37602695927026,9.071401448678088,185.12143770431524,159.4055071329397,134.49247059103348,160.3536548241051,207.09358989921392,195.31937544919708
1.5682349015682349,12.453519271633066,7.917291633739906,185.2427814855204,157.65719216095587,135.85434108038106,160.7090013920572,205.1734512909656,195.07289580556903
1.6016016016016017,11.791268278108337,6.92193915634231,187.5408407131708,156.08433242306887,137.08314116586806,161.13588501346368,203.5799293832599,194.8049702863908
1.6349683016349683,11.311663230456023,5.585265067984222,189.3514659619882,160.28661690249564,138.205598318842,161.60261360010526,202.2150742291537,194.52677833521088
1.6683350016683351,11.18414466676635,4.478895958078442,190.778874548322,163.66093386992043,138.92607683082272,162.03465193328665,201.46723947921043,194.25949456174484
1.7017017017017018,11.285184630411774,3.880991952509314,191.5318812577951,164.89095507854236,139.30686233386726,162.42974616968064,201.25067394797549,194.0070206036103
1.7350684017350684,11.756946319959082,3.639066860479444,190.09455495466057,165.16775407002316,139.5855663235053,162.80502724238008,201.2121947855217,193.7525292375952
1.7684351017684352,12.446598429161057,3.2923706156024104,188.8667140996008,165.55145656744023,139.75826263424986,163.14976959498864,201.37713098807893,193.49755572034667
1.8018018018018016,13.396972104995143,3.2274530295236783,189.5874979030093,165.29354613964009,139.73684611535052,163.48834085731897,201.83639087658904,193.2493710318873
1.8351685018351689,14.658750417263043,3.2274530295236783,190.22283447023003,164.33572272304104,139.46477159357616,163.82642051967193,202.5849824473832,193.00264901007856
1.8685352018685355,16.175141931911533,3.2274530295236783,190.52051013106453,162.7836878992287,139.06246347992595,164.16549863084452,203.5381013996295,192.7616845179898
1.901901901901902,17.881786013508535,3.2274530295236783,190.21339661658504,161.06585118368744,138.51817452130817,164.4706455565125,204.71134935693067,192.53418383750224
1.9352686019352687,19.764658066397065,3.2274530295236783,189.60278467942112,158.89528865132166,138.09350989374755,164.7246383857384,205.85059171860905,192.33861218593552
1.968635301968636,21.667913233581626,3.2274530295236783,188.86756772561648,155.36855853156288,137.7255638867844,164.96369162688814,207.0200098675525,192.17511899642423
2.002002002002002,23.69868192526885,3.2274530295236783,187.8912366217569,151.69171690506502,137.29721454854467,165.16844066653084,208.2938976824216,192.0401543006034
2.035368702035369,25.72565922109904,3.2274530295236783,186.74663186474515,148.133053860498,136.80348014450183,165.31310513306536,209.66074247753804,191.9250120615224
2.0687354020687354,27.82701916710756,3.2274530295236783,185.2801233398381,144.46251277104065,136.6951403239775,165.41618637106393,210.53403499116823,191.8244570443634
2.1021021021021022,30.181254380858142,3.2274530295236783,183.78635428053764,141.4632598209727,136.7090202661036,165.47088334686555,211.22667486085007,191.7424626345956
2.135468802135469,32.62144719087339,3.2274530295236783,182.1964739378621,138.0787130468336,136.70689172395413,165.476268026629,211.8614982252428,191.6899251110252
2.1688355021688355,26.51957723329016,3.2274530295236783,180.1948058576128,134.54151858161353,136.58482675001127,165.43177817128088,212.65287562570907,191.6691749874292
2.2022022022022023,23.155424456168173,3.2274530295236783,177.9242645802205,130.84091345811842,136.55766201862556,165.33563433718496,213.27931944604663,191.67416489801693
2.235568902235569,22.543433526021342,3.2274530295236783,175.30115996344958,127.0352656218372,136.60995911123658,165.17156620148077,213.7156573971019,191.71221838485584
2.2689356022689355,24.13830581678025,3.2274530295236783,172.94688367309936,123.05771220206756,136.6797137803768,164.94450648650857,214.0245008496248,191.77814666676403
2.3023023023023024,27.798889262490096,3.2274530295236783,170.6742855480659,118.74429434566794,136.75560109794498,164.64992574821986,214.24333965705767,191.8789457751502
2.335669002335669,33.09781352244012,3.2274530295236783,168.69440291832453,114.46762603820754,136.74871536064757,164.3064703486973,214.56654964858063,192.01707944006645
2.369035702369036,39.893868473386114,3.2274530295236783,166.88946854142787,110.27629007398264,136.7238283852272,163.9050424787698,214.87401618052183,192.1902316537319
2.4024024024024024,47.76202903545714,3.2274530295236783,165.07751734139225,106.48435069781458,136.85054229711727,163.55740615552634,214.9841897085744,192.3452332816933
2.4357691024357693,57.08173440895085,3.2274530295236783,163.19983866408174,102.89387712393884,136.9904747445185,163.22386768617628,215.02085108980987,192.50314966750167
2.469135802469136,67.80284075357375,3.2274530295236783,161.1316965128816,99.81794541665089,137.0628776049154,162.87868021506793,215.1704275054177,192.6692162745155
2.5025025025025025,79.42782902468629,3.2274530295236783,159.03368813749302,97.1854399501298,137.0987024507139,162.5260992705149,215.3559806968456,192.84169287670488
2.5358692025358693,91.8723415219966,3.2274530295236783,157.14853787118187,94.60080384197596,137.16737523521215,162.2016437397213,215.5160512002256,192.9988578989133
2.569235902569236,104.96030236149714,3.2274530295236783,155.2631728774378,92.30698898587902,137.28013343839388,161.92412671574954,215.58915520584856,193.1395313707128
2.6026026026026026,118.83731728903992,3.2274530295236783,154.2860575984991,90.31761205166876,137.3973545525981,161.67359876393684,215.6666708297575,193.2732117789716
2.6359693026359694,133.0915847605824,3.2274530295236783,153.6863265410257,88.80178289938098,137.5191890101278,161.45410066074538,215.7276778531169,193.40315713068125
2.669336002669336,147.63644709166618,3.2274530295236783,153.72892154776778,87.71447383531547,137.54350620552208,161.266782098114,215.9675104221302,193.5393414631129
2.702702702702702,162.18638814711494,3.2274530295236783,154.20770694367067,88.13226617159691,137.5593255663735,161.1218528006486,216.22199590638536,193.6760807275601
2.736069402736069,176.77534093168373,3.2274530295236783,155.41192416848756,90.78222430379772,137.5520356715454,160.99115058869393,216.4838086509095,193.8136498844385
2.7694361027694363,191.0703745855112,3.2274530295236783,154.4517404195078,94.95925163211945,137.50016488538353,160.8846940983423,216.77879913091564,193.9462806226342
2.802802802802803,205.00497459246552,3.2274530295236783,153.30047000321895,93.61209466177884,137.45430275479637,160.80303059074035,217.0836454573117,194.06592642707787
2.836169502836169,218.30424781875857,3.2274530295236783,151.99187418915966,91.7406457629575,137.4751895407939,160.7487584192127,217.3603204012168,194.17565457102296
2.8695362028695364,230.97320767535308,3.2274530295236783,150.89102980034127,90.9749072490383,137.50926404857492,160.71110938646672,217.6715196941384,194.2797966689163
2.902902902902903,242.6114347038561,3.2274530295236783,152.12630915476734,90.46890720485833,137.50993934910548,160.69206023902552,218.0827563824585,194.368953954758
2.9362696029362696,253.2778831364397,3.2274530295236783,153.96908495807352,89.25474445039865,137.4925980390898,160.70726872536935,218.5433768466884,194.43549723818265
2.9696363029696364,262.8065706820134,3.2274530295236783,154.00983568675753,87.38151588502615,137.44170206491043,160.77101233881578,218.9906690318381,194.4963534028516
3.003003003003004,270.9981732749588,3.2274530295236783,154.08549349691253,85.62513277086546,137.36928258241034,160.79956258701154,219.4373749066279,194.573339774128
3.0363697030363697,277.62297149889423,3.2274530295236783,154.73362217857394,84.27185906245481,137.1403666614607,160.86092137742835,219.8406929119589,194.63662120356256
3.0697364030697365,282.71646474856004,3.2274530295236783,155.40697100820563,83.436425994376,136.99395758229429,160.9470081306165,220.25221258855052,194.69188550756985
3.103103103103104,294.5853356110849,3.2274530295236783,155.17100818668703,82.10542266990274,137.26334348521462,161.068059221507,220.5357832731925,194.683552692464
3.1364698031364697,302.7730116826972,3.2274530295236783,156.08110826995605,82.40665033997033,137.41006113589762,161.1230122374243,220.8643322549482,194.66071924896423
3.169836503169837,306.34296593621417,3.2274530295236783,156.2397310563661,84.0585220336224,137.37218557682309,161.17013316814422,221.41289416014885,194.5314141521848
3.2032032032032034,305.8646052944201,3.2274530295236783,156.3183188387133,85.99109020848488,137.21401727960753,161.1536850495826,222.0977824493285,194.4171801427678
3.2365699032365702,301.1571274531464,3.2274530295236783,156.4871133011783,90.81697953089794,136.80154326454274,161.12795220706263,223.1396726393208,194.27001752337
3.2699366032699366,291.9553156286409,3.2274530295236783,156.28703272204388,93.81254340408007,136.2988301312538,161.02972504403013,224.1920614849852,194.20434040218893
3.3033033033033035,278.8456223667231,3.2274530295236783,153.91955912082696,96.5224131167214,135.73084073302874,160.81275381185273,225.14608581349324,194.12871914460035
3.3366700033366703,272.6205776849624,3.2274530295236783,152.49006518057976,98.4841816922594,135.16195020547934,160.49044054554628,225.96152313175088,194.15659695467167
3.3700367033700367,265.22109500470845,3.2274530295236783,152.26277846835765,99.51690869611124,134.7176192540161,160.1577989535282,226.53526019318983,194.16597936183928
3.4034034034034035,256.1550705942917,3.557319073112609,152.41633865016652,99.96882494171196,134.27276569981066,159.75225305376134,227.10399462924585,194.35476346365456
3.4367701034367704,246.29879339117485,3.557319073112609,153.2232701793227,97.66399888236592,134.1928154907688,159.17509863857543,227.05754812394088,194.7141467821756
3.4701368034701368,234.9482702923918,3.557319073112609,153.9880653094637,95.92825675325535,133.84387291989034,158.55389934150836,227.432635714544,195.2140624339312
3.503503503503504,222.08004484661043,3.557319073112609,154.64963151051333,95.0820021883462,132.44622987827972,157.92794205677507,229.05297604559308,195.800230315732
3.5368702035368704,208.3584617856505,3.557319073112609,155.6205332552586,94.6311417222503,131.03751323546655,157.31040866687616,230.7286504128776,196.5403295948645
3.5702369035702373,193.65779892415733,3.557319073112609,156.8200665106339,94.7632363163896,129.87152713800478,156.74906587623084,231.9255015916347,197.38129252279404
3.603603603603604,178.2674339494635,3.557319073112609,158.26875581179695,95.20944351781816,128.962237832459,156.25276951920023,232.95293449500093,198.32635856034847
3.6369703036369705,162.56208939877408,3.557319073112609,160.16800418765905,95.5994772300304,128.27813750141826,155.8949259159947,233.7744545982984,199.2366435233103
3.670337003670337,146.69141420092927,3.557319073112609,161.94174028024935,96.1678896180308,127.73355420876518,155.60058284675205,234.37744594984468,200.2399079774044
3.703703703703704,130.78985004310607,3.557319073112609,163.5091565465674,96.70790544867556,127.13422899394835,155.2567142015488,234.9651595403769,201.3777652758635
3.737070403737071,115.10126710076362,3.557319073112609,165.15261954048452,97.54169343703896,126.69803994439668,154.9460745915701,235.4948385270017,202.58294950168465
3.770437103770437,99.41768109337036,3.557319073112609,166.24790422706317,98.16738178148294,126.61178485457032,154.57221972369152,235.3897238316144,203.98706741413
3.803803803803804,84.68836980468426,3.557319073112609,168.49170497163186,98.90687954648509,127.01084225209104,154.129304837277,234.7732895037723,205.53157926645608
3.8371705038371706,71.30937925677503,3.557319073112609,171.86490151959643,99.80875170076204,127.5768302523383,153.52404206993117,233.8800919520794,207.2368813692424
3.8705372038705375,58.65011456449116,4.263726416946821,173.8853860158354,100.79713350693466,128.2611695472132,153.0064080836471,232.86613752943035,208.87359644047052
3.903903903903904,47.210126402774215,5.093718688246355,177.2638641287337,101.69086416441203,129.07817386116838,152.4030992693136,231.7589565640449,210.63209704523143
3.937270603937271,36.70738576927512,6.316768909697995,179.90414734832314,102.75027124209367,130.02171247342346,151.90981873133268,230.69430940621788,212.30778812286377
