Time,Left Shoulder Angle,Right Shoulder Angle,Left Elbow Angle,Right Elbow Angle,Left Hip Angle,Right Hip Angle,Left Knee Angle,Right Knee Angle
0.0,72.38355623493841,51.0955306591665,164.05521644161928,161.504134669871,139.98892387907696,142.22862907501,207.64352022621043,207.4690753007847
0.0333667000333667,55.25592456415907,45.83432230997343,169.52360466111037,163.76907434704358,139.84952851927056,143.1603509772234,206.8089537643081,207.57473772083205
0.0667334000667334,40.9251316199432,41.28777482705169,174.02712902631208,165.81475153066162,139.7317550067201,143.92967645614365,206.1283184941729,207.57436204737047
0.1001001001001001,29.222358163013524,37.412335775592695,177.62905011660405,167.6355921672182,139.63248952542006,144.54646110778373,205.5918771544647,207.4788685601278
0.1334668001334668,19.978784954092774,34.16445272078788,180.39262851136576,169.22602220320647,139.54861825936487,145.02056052815672,205.1898924838436,207.299177538832
0.1668335001668335,13.02559275390368,31.500573227828674,182.38112478997687,170.58046758511952,139.477027392549,145.3618303132757,204.9126272209695,207.04620926321087
0.2002002002002002,8.193962323168975,29.3771448619065,183.6577995318171,171.69335425945047,139.41460310896687,145.5801260591537,204.7503441045025,206.73088401299228
0.2335669002335669,5.315074422611403,27.75061518821279,184.2859133162658,172.55910817269242,139.35823159261295,145.68530336180382,204.6933058731027,206.36412206790416
0.2669336002669336,4.22010981295368,26.577431771938965,184.32872672270267,173.17215527133848,139.30479902748172,145.68721781723903,204.73177526543,205.95684370767432
0.3003003003003003,4.740249254918538,25.81404217827646,183.84950033050723,173.52692150188176,139.25119159756758,145.59572502147248,204.85601502014435,205.51996921203067
0.333667000333667,6.706673509228722,25.41689397241669,182.9114947190592,173.6178328108154,139.19429548686503,145.4206805705171,205.05628787590584,205.0644188607011
0.3670337003670337,9.950563336606962,25.342434719551107,181.577970467738,173.4393151446325,139.13099687936852,145.1719400603861,205.32285657137453,204.60111293341345
0.4004004004004004,14.303099497775976,25.547111984871112,179.91218815592327,172.98579444982613,139.05818195907247,144.85935908709246,205.6459838452104,204.14097170989555
0.4337671004337671,19.5954627534585,25.98737333356815,177.97740836299465,172.25169667288947,138.97273690997133,144.49279324664923,206.0159324360733,203.69491546987533
0.4671338004671338,25.6588338643773,26.61966633083364,175.83689166833173,171.23144776031555,138.8715479160596,144.0820981350695,206.4229650826236,203.2738644930807
0.5005005005005005,32.32439359125506,27.400438541859018,173.553898651314,169.91947365859755,138.7515011613317,143.63712934836624,206.8573445235209,202.88873905923947
0.5338672005338673,39.42332269481456,28.28613753183569,171.19168989132112,168.31020031422855,138.60948282978208,143.1677424825526,207.3093334974256,202.55045944807952
0.5672339005672339,46.78680193577895,29.23321086595544,168.81352596773385,166.39805367370317,138.44237910540627,142.68379313364275,207.7691947429992,202.2699459393304
0.6006006006006006,51.94871133881942,27.895324676383847,168.88924781194666,164.40783842163057,138.15564864819495,142.5856926275622,208.40642615208816,202.9806517165132
0.6339673006339673,55.61710721279548,26.83709169563747,167.41835933681827,163.78373673339976,137.6856836527882,142.57716659499323,209.18972419690172,203.706707257474
0.6673340006673341,58.81380689636142,23.983526717090065,167.8150389206715,161.36206336601376,137.60432657880511,142.37130330825352,209.66781144165031,204.3194583757175
0.7007007007007008,57.03771536878282,25.295399185082417,168.22078573108814,159.24125636771402,137.54176413587572,142.1470143404795,209.84110824506456,204.808336478582
0.7340674007340674,55.09067256769996,18.68136109403132,169.12443419356325,150.31815788453477,137.212645031364,141.60202385323566,210.02945323803368,205.32091224341383
0.7674341007674341,55.66212042163141,14.702947125951374,168.65899867916227,141.6859719519699,136.6968806878961,140.86305897501148,210.0286635159189,205.7646277238975
0.8008008008008008,57.317423743461184,11.910233918209432,168.55304386331727,135.2842571018588,136.0180169936986,140.06961829600093,210.11183346117568,206.23567651623432
0.8341675008341676,60.64382149786337,19.63486827560517,167.8468445182738,128.09210536259857,135.04709373619394,139.269864530225,210.1347604464285,206.6808930918231
0.8675342008675342,65.48802692826384,20.00605078941093,166.82649111006558,121.81718724887838,134.3042433275024,138.47570655592818,209.9364802815344,206.8496878672838
0.9009009009009008,71.77328587038124,21.849982588388844,165.52493544314163,117.58154824542645,133.7251355926385,137.774039246755,209.52115003038452,206.67297759042927
0.9342676009342676,79.57819715518515,25.026309472736035,163.75190121035422,114.81342717008826,133.10544350981482,137.2627448548848,208.83776144172845,206.11682281587065
0.9676343009676344,88.44448881371713,30.767792892829508,162.1110555454899,111.23350451920832,132.5386348594331,136.98895913730064,207.80337793680712,205.2496310614557
1.001001001001001,106.03518638182084,46.84734113048975,160.94525484662523,106.55977311279692,131.62387002242957,137.0474271728054,207.1211670691234,203.9822938664641
1.0343677010343677,122.1229648466863,62.7343032029429,159.23547442495507,106.13278513807565,130.6388996691627,137.29192659572368,206.4040494994996,202.4431769140511
1.0677344010677343,136.3358901050889,77.27898185978638,157.11164775985543,105.643306074145,129.7977962073764,137.55728497903604,205.43676631795927,200.81215836863169
1.1011011011011012,148.74015123399425,90.3497729785144,153.65437324303292,105.12025901656828,128.9099112464615,138.14832168695193,204.3874189383992,198.7846657117855
1.1344678011344678,159.00919827043276,100.46604292403848,149.0899955469216,103.49494146579956,128.3900399587134,139.11847524725715,203.02935577109065,196.45830798960105
1.1678345011678346,166.82578265444238,108.38228703513391,144.045609083365,102.18867776035232,127.62202791656576,140.50538452946216,201.875354757092,193.97532719459133
1.2012012012012012,171.42534398246738,115.16892434341491,137.92369753695374,103.51025553272449,128.55074435931746,141.32573128810125,199.75018011623945,191.5464952452756
1.234567901234568,180.02181220623223,128.7280215093862,131.41635336359906,107.69786248383691,129.62559807913053,141.3165775819212,196.82555489148987,189.19898642242805
1.267934601267935,187.44092936813328,141.32190730719344,124.46097905888344,111.97812234927814,130.8966842868084,141.38559142086453,193.85612452246656,186.8636900966214
1.3013013013013013,193.4646732739872,152.59616794645393,117.09341048944268,116.1623275819887,132.34840766510584,141.56141660765087,190.8969433615604,184.5695553800848
1.334668001334668,197.87502172961217,162.1963896367863,109.34948352191378,120.06177063491042,133.96517289677837,141.87269694500088,188.00306576116367,182.34553138504893
1.3680347013680347,200.45395254082635,169.76815858780935,101.26503402293388,123.48774396098538,135.73138466458167,142.3480762356352,185.2295460736688,180.22056722374467
1.4014014014014016,200.98344351344787,174.9570610091418,92.87589785914014,126.25154001315556,137.63144765127132,143.01619828227447,182.63143865146816,178.22361200840274
1.4347681014347682,199.24547245329487,177.40868311040208,84.21791089716959,128.16445124436282,139.64976653960295,143.90570688763933,180.2637978469542,176.38361485125392
1.4681348014681348,195.0220171661856,176.7686111012092,75.32690900365938,129.03777010754914,141.7707460123322,145.04524585445037,178.18167801251926,174.72952486452905
1.5015015015015016,188.0950554579381,172.68243119118176,66.23872804524659,128.6827890556565,143.97879075221465,146.4634589854283,176.44013350055573,173.29029116045882
1.5348682015348682,178.24656513437048,164.7957295899384,56.989203888568426,126.91080054162688,146.25830544200596,148.1889900832937,175.094218663456,172.09486285127403
1.5682349015682349,165.25852400130094,152.7540925070978,47.61417240026186,123.53309701840222,148.59369476446173,150.25048295076726,174.1989878536125,171.17218904920549
1.6016016016016017,148.9129098645476,136.2031061522789,38.14946944696409,118.36097093892432,150.9693634023376,152.67658139056957,173.80949542341762,170.551218866484
1.6349683016349683,128.99170052992886,114.78835673509992,28.63093089531212,111.20571475613536,153.36971603838913,155.4959292054213,173.98079572526362,170.26090141534024
1.6683350016683351,105.2768738032624,88.1554304651801,19.09439261194322,101.87862092297716,155.779157355372,158.7371701980431,174.7679431115431,170.33018580800504
1.7017017017017018,77.55040749036687,55.94991355213769,9.575690463494396,90.1909818923918,158.1820920360418,162.42894817115558,176.2259919346483,170.78802115670922
1.7350684017350684,45.594279397060205,17.817392205591545,0.1106603166027468,75.9540901173211,160.56292476315417,166.59990692747937,178.40999654697174,171.66335657368353
1.7684351017684352,9.190467329160278,-26.596547364839623,-9.264861962094557,58.97923805070718,162.9060602194647,171.27869026973514,181.3750113009057,172.9851411711587
