Time,Left Shoulder Angle,Right Shoulder Angle,Left Elbow Angle,Right Elbow Angle,Left Hip Angle,Right Hip Angle,Left Knee Angle,Right Knee Angle
0.0,26.49492413796418,33.211915414244515,156.2786154290839,168.04365704818986,143.239303562908,141.3269168108996,195.1045712593272,194.3970310746284
0.0333667000333667,26.724389461367704,33.18459559903601,157.0181702406895,168.0706033191439,143.40326575294353,141.49828089394651,194.8955885733581,194.21263821633164
0.0667334000667334,26.91354103777877,33.13578422643667,157.6394886529593,168.05110421355582,143.56302443882112,141.66090928970428,194.70129174708865,194.0442291021469
0.1001001001001001,27.06518249640037,33.06743146142933,158.1502521080867,167.98843743365643,143.71839082306724,141.81488240072014,194.52140566239453,193.89131398586724
0.1334668001334668,27.18211746643547,32.98148746899679,158.55814204826513,167.8858806816766,143.86917610820828,141.9602806295413,194.3556552011518,193.75340312128603
0.1668335001668335,27.267149577087046,32.879902414121865,158.870839915688,167.7467116598472,144.01519149677068,142.097184378715,194.2037652452363,193.6300067621964
0.2002002002002002,27.32308245755807,32.76462646178737,159.0960271525488,167.57420807039907,144.15624819128092,142.22567405078846,194.065460676524,193.5206351623916
0.2335669002335669,27.352719737051512,32.63760977697612,159.2413852010409,167.37164761556306,144.2921573942654,142.34583004830887,193.9404663768906,193.4247985756648
0.2669336002669336,27.35886504477036,32.50080252467091,159.31459550335774,167.14230799757,144.42273030825055,142.45773277382344,193.82850722821223,193.3420072558092
0.3003003003003003,27.344322009917576,32.35615486985457,159.32333950169274,166.8894669186508,144.54777813576283,142.56146262987946,193.72930811236475,193.27177145661807
0.333667000333667,27.31189426169614,32.20561697750991,159.27529863823935,166.61640208103628,144.66711207932866,142.65710001902406,193.642593911224,193.21360143188463
0.3670337003670337,27.26438542930903,32.051139012619736,159.17815435519097,166.3263911869573,144.78054334147447,142.74472534380453,193.568089506666,193.16700743540207
0.4004004004004004,27.20459914195921,31.894671140166864,159.03958809474105,166.0227119386447,144.8878831247267,142.82441900676807,193.5055197805664,193.13149972096363
0.4337671004337671,27.13533902884967,31.738163525134105,158.86728129908298,165.70864203832937,144.9889426316118,142.89626141046185,193.45460961480137,193.1065885423625
0.4671338004671338,27.059408719183377,31.583566332504272,158.66891541041022,165.38745918824213,145.0835330646562,142.96033295743317,193.41508389124672,193.09178415339187
0.5005005005005005,26.9796118421633,31.432829727260177,158.45217187091615,165.06244109061382,145.17146562638632,143.01671405022918,193.38666749177835,193.08659680784496
0.5338672005338673,26.898752026992423,31.287903874384632,158.22473212279428,164.73686544767534,145.2525515193286,143.06548509139716,193.36908529827213,193.0905367595151
0.5672339005672339,26.81963290287395,31.150738938860727,157.9942776082392,164.4140099616589,145.3266019460106,143.10672648348543,193.3620621926057,193.1031142621969
0.6006006006006006,26.73908548883581,31.01124152903334,157.7220221179303,164.05146717849016,145.36912421235075,143.10920886010567,193.39477212545103,193.1474369583016
0.6339673006339673,26.662148120935367,30.87521102534496,157.54079115359372,163.71534119093457,145.4067755740139,143.15235721325976,193.4308487837836,193.1675402540484
0.6673340006673341,26.60625158495502,30.780812093537826,157.4141367975785,163.4301512918759,145.44852160532872,143.19583485997126,193.46492440666864,193.1896283856884
0.7007007007007008,26.5864334675796,30.72532331051441,157.3456859926862,163.192654991799,145.4850166535864,143.23039895504965,193.502271060337,193.21901447989367
0.7340674007340674,26.58920834973169,30.712304907711776,157.3770132905871,162.99244283524385,145.51064669291105,143.23822926665127,193.54591512129545,193.26194548082404
0.7674341007674341,26.608745155512985,30.723897221946903,157.42430435862823,162.8155393709372,145.5321017443843,143.23055179156756,193.5920721206296,193.31218129382057
0.8008008008008008,26.663776778582363,30.76092802394201,157.48903343837398,162.6837423227569,145.5611931735872,143.2057820441854,193.6042747887469,193.3701041586028
0.8341675008341676,26.74450444210336,30.829544696371617,157.57247516293995,162.60189628526848,145.59062215310655,143.16194575046904,193.6103375431921,193.43808783600429
0.8675342008675342,26.796727714099664,30.95361897990332,157.55350212428985,162.61192890855614,145.60392703066375,143.09261619837235,193.62858194759565,193.51128947874412
0.9009009009009008,26.94631439732538,31.10052459816604,157.69740536725473,162.661685882604,145.6069243587769,143.01086905148614,193.67088128477417,193.5897259482641
0.9342676009342676,27.123166793525403,31.24950064825968,157.8883649411766,162.73689702648596,145.60104553620516,142.92353307746762,193.7645156277568,193.6737186214241
0.9676343009676344,27.268391724337818,31.38424100795966,158.01023428490703,162.7910248356389,145.58678909708763,142.83544468811888,193.88754155124485,193.76532924584075
1.001001001001001,27.438306666553498,31.533249604104864,158.19671910357494,162.83262389473833,145.5628942577087,142.73866437318634,194.036507604262,193.8673748869575
1.0343677010343677,27.71336613492556,31.68077422753462,158.5944354281837,162.86743535401214,145.52120523106868,142.6393181235821,194.21684279206812,193.978691126018
1.0677344010677343,28.028492089667907,31.850573693904664,159.09233072957372,162.96606861348985,145.46519235758106,142.54794780735045,194.41545169070784,194.0962732093359
1.1011011011011012,28.40427307334896,32.054358231058146,159.70150142940503,163.1343082259351,145.39258987527228,142.46704704541455,194.630491474115,194.2167626382285
1.1344678011344678,28.758894697165,32.20502466277212,160.2567889595322,163.2078559536346,145.32092913693495,142.39090661934918,194.8551444929251,194.33969435637263
1.1678345011678346,29.10737224874315,32.33585852592922,160.80299557887955,163.21393071418225,145.2452884898366,142.31669643662244,195.09701923294267,194.46219168726685
1.2012012012012012,29.371299841462022,32.43003638340578,161.26036325217018,163.19110812492275,145.16867571533606,142.24066939755087,195.3683434743996,194.57890353971828
1.234567901234568,29.634776149143025,32.47806263528739,161.74142384266463,163.1052012311852,145.08278636564742,142.17436754627076,195.6427757419785,194.6901387593597
1.267934601267935,29.90155236790164,32.511486333291586,162.18944873053553,163.0260604293018,145.0043299618986,142.11270170810653,195.8864381319609,194.7894222495032
1.3013013013013013,30.234756352650447,32.49684572775578,162.71973695467722,162.90726770476087,144.94163328771094,142.0819719797156,196.08604461963552,194.88254279378225
1.334668001334668,30.564472751608708,32.48676671727244,163.28504165715228,162.85354294977648,144.9286678818841,142.04866725070875,196.2631519984807,194.9719917737208
1.3680347013680347,30.91978853967632,32.41979330092434,163.8956811674104,162.70682071278162,144.91363440082023,142.03640052505548,196.42046354161167,195.06213730614363
1.4014014014014016,31.281986521000587,32.295585994792944,164.52283979038123,162.45833820695714,144.87365387464695,142.04463637448583,196.5426487461558,195.1556057044477
1.4347681014347682,31.6787680362788,32.07321299253285,165.1888471221425,162.05376519680385,144.81630134167335,142.07919125985336,196.6394811468556,195.25028383042084
1.4681348014681348,32.12073795813561,31.809930372814303,165.9935297632948,161.55112486075564,144.73383758449066,142.14689660157126,196.7196837362061,195.34352314526168
1.5015015015015016,32.60927893758204,31.48688953558517,166.83653415994223,160.9209115157509,144.6336152880278,142.24281426474,196.7881009000277,195.4374596890228
1.5348682015348682,33.16393174421334,31.10535292930689,167.78719074638704,160.2070557161119,144.55144694235642,142.3538381416405,196.8423763194482,195.53069466173977
1.5682349015682349,33.75333334177192,30.693537674672264,168.79418627278275,159.3786342660593,144.4610563639589,142.47458759372813,196.8881996137433,195.62718690864867
1.6016016016016017,34.41357021770415,30.22941776989607,170.01090344147497,158.43615079476817,144.37786302511324,142.5879766729921,196.91391055916225,195.72811024268543
1.6349683016349683,35.08605140374332,29.73271815287364,171.17958730817122,157.4232169655187,144.27250131990883,142.7034438162987,196.9324585206996,195.8345260697756
1.6683350016683351,35.727820066675626,29.220086748968875,172.15029275040854,156.36945113954755,144.16136968403674,142.8194034167364,196.9457362291318,195.94162973065
1.7017017017017018,36.361492046569936,28.72430888183115,172.93402429395206,155.31079517812836,144.02909202935376,142.94403063190728,196.9553292108936,196.0541391487272
1.7350684017350684,36.96465243188878,28.21999727840064,173.46492602717782,154.25547287459875,143.85741818842723,143.0548349626896,196.9572103746036,196.1822592711644
1.7684351017684352,37.56878006935328,27.75823351055737,173.84459208855162,153.22281467843615,143.65556489667892,143.14827256772836,196.9471016101965,196.32546786478605
1.8018018018018016,38.11337466668444,27.460953468165748,173.96201965397262,152.37108072607091,143.42984149815058,143.2416653187494,196.9301641603628,196.4745678085955
1.8351685018351689,38.62632938240771,27.214935828918826,173.93317072708751,151.5393331960888,143.18881553420565,143.33766300110133,196.9068206033808,196.62156414348468
1.8685352018685355,39.10562520696528,26.907280363316257,173.81471862558797,150.6010659038588,142.9549895309802,143.40937176154912,196.8551542020406,196.7632451683662
1.901901901901902,39.57737727936134,26.59466420986257,173.55009080527034,149.65671051166893,142.7175045934357,143.48037289486027,196.7883928460048,196.9023326923704
1.9352686019352687,40.04992703316118,26.313308186037336,173.1523968758613,148.81788608856218,142.46982226757822,143.54644228043804,196.7180752633417,197.0459038812679
1.968635301968636,40.480503934314186,26.06661778162216,172.67308362966574,148.0174232129138,142.20542136287415,143.6146883372962,196.68897385438063,197.1850077764759
2.002002002002002,40.90134637883845,25.86443014415888,172.22353302905643,147.3193619373151,141.95663942522333,143.6821024090608,196.67102758440365,197.31477356508364
2.035368702035369,41.32528893433368,25.67385135594759,171.88740378620997,146.62503078303862,141.72117578308666,143.7628551266027,196.6791598958972,197.43812620583049
2.0687354020687354,41.73030408397465,25.508744959361024,171.45464557391736,145.95370371635067,141.48923331220558,143.83354956927002,196.72588582952253,197.5540211871394
2.1021021021021022,42.174016212656056,25.394028495503893,171.18839524091328,145.28644809618373,141.25368997912938,143.9064063428486,196.7922288496426,197.6625463098059
2.135468802135469,42.61131565643928,25.419704074794588,170.7990476609545,144.72397532191914,141.02698146263177,143.95892883248928,196.8908529956873,197.76814536158685
2.1688355021688355,42.97756613315593,25.47975943116108,170.37490338234468,144.18088551946295,140.80317870074882,144.0253504103016,197.0266610770468,197.86271350733904
2.2022022022022023,43.255737594627405,25.53455505868786,169.64420560554575,143.5574341970365,140.5758774075423,144.09835244494766,197.19606871004456,197.948111868633
2.235568902235569,43.47940532460687,25.549040335766545,169.18027312906125,142.84802207817148,140.35380328544235,144.18804042728954,197.39255289489017,198.01196327921664
2.2689356022689355,43.62974534592371,25.580839759712724,169.01493661517793,142.0651600905789,140.15257055627893,144.283850854071,197.6101670037467,198.056502333744
2.3023023023023024,43.69158584569946,25.62428309411899,169.12957604813633,141.350850493003,139.96310462258225,144.39375900485442,197.8344038640097,198.08059041919577
2.335669002335669,43.67580985958693,25.85688970413925,169.34255011268883,140.77038703360128,139.79809010800864,144.52565655134214,198.0410181885097,198.0824577677116
2.369035702369036,43.66369274861093,25.96071040742361,170.07028506605923,140.19436470097747,139.6433221905993,144.68817617817697,198.22986531537265,198.06323509712064
2.4024024024024024,43.608285619706,25.94928547391649,170.36172834565212,139.75024201718728,139.51507953613336,144.87565467169134,198.39953897547585,198.0207414710996
2.4357691024357693,43.50154208230051,25.818629437279743,170.89290095410587,139.29347232833587,139.38840285280386,145.09009840736402,198.59419185556888,197.96530248692147
2.469135802469136,43.29425733726354,25.68882450925095,172.09071216606168,139.03012996725445,139.2458046358398,145.30943515510992,198.8358860032859,197.90322575200287
2.5025025025025025,43.05728204516114,25.390389657908305,174.09795841880026,138.52587226820248,139.05299588161208,145.5677739702825,199.09309896222683,197.83412520562803
2.5358692025358693,43.136680944182906,25.151712299087155,176.2192290962352,138.10254116841227,138.82679451586722,145.8357226332693,199.3650460182908,197.75298726437683
2.569235902569236,43.23655158827312,24.869672513086208,178.94095523382677,137.5485981864983,138.62044081418458,146.1133937719617,199.66088862615484,197.66271229453824
2.6026026026026026,43.25561008233623,24.3321407970714,186.8481929436529,136.99756115968498,138.4334680758277,146.4019871291831,199.9628445711632,197.5614579222732
2.6359693026359694,43.12548874506604,23.56711145052708,194.2793675445169,136.17018130650771,138.29555557286454,146.68276228763887,200.2685103936153,197.4569944242324
2.669336002669336,42.990014343146186,22.53130702672328,200.083861318224,135.28869722925313,138.21314206138416,146.9532692043147,200.5550345923464,197.33691745998408
2.702702702702702,42.68794406743373,21.36510445231288,204.45594534101977,134.10242179277952,138.1642509777143,147.21240027069803,200.82445599257267,197.209614958203
2.736069402736069,42.32004346415556,20.2318106218983,207.7584801399222,132.9112907354816,138.16363784544825,147.44356841200695,201.05219105005017,197.07093048903664
2.7694361027694363,41.910461747399744,19.14495739592801,209.33140164668168,131.52836156275913,138.17532879276868,147.67061939094393,201.30386888778864,196.938958662296
2.802802802802803,41.371944990082085,18.052353236091225,208.259159228341,129.93938143824064,138.21318000868885,147.9019608593646,201.5554059878862,196.81287529233973
2.836169502836169,40.46373997760653,16.941901818190793,205.9472378193287,128.0699285515838,138.24904439193588,148.1345440326298,201.811246561092,196.69671723081584
2.8695362028695364,39.00918060431298,15.52947824261872,202.98700709904307,125.54052325001184,138.19202653349956,148.34800650906436,202.07941186786067,196.6009562492862
2.902902902902903,36.99674033663916,14.20227619818026,199.3499062446733,122.93783683548888,138.20954962962068,148.5613268349165,202.3443592405284,196.4990167174033
2.9362696029362696,34.56165702767317,13.54146976040359,191.8321033597894,118.74482541076463,138.34161962379346,148.78653974763685,202.5978527002668,196.3811728981294
2.9696363029696364,32.39205464729989,12.454691786798431,184.9608893586724,115.05571645069244,138.51066431627112,148.98818740676586,202.8482944545277,196.25851652528328
3.003003003003004,29.95402384006433,11.203574469198674,180.80110678279627,111.97904002883404,138.72474821031906,149.18759387717003,203.0899285095277,196.1544893753789
3.0363697030363697,27.919831601253108,10.329658347778173,176.89378034819387,109.4159264164554,138.9285680894774,149.3657595007068,203.34259182374885,196.07770594203004
3.0697364030697365,26.065214173485707,9.784619193381252,172.5354822392684,107.42392678717007,139.19096343879826,149.6121648370759,203.52852353845256,196.03000101335772
3.103103103103104,24.45898100056801,9.361781426780723,168.0040987097965,105.51880118184768,139.48766873674012,149.84269722983436,203.6813166082628,195.99378420272188
3.1364698031364697,22.68519418991261,9.134468672524378,162.66798212093295,99.65074863254507,139.66042061862694,150.302444858647,203.7418315875004,196.0055868692364
3.169836503169837,21.25668264419317,9.00421111027518,157.39864650193798,95.95759541999176,139.79043038515877,150.54139233527388,203.9075602354856,196.0014503403036
3.2032032032032034,20.273407896891985,8.783727681851154,154.170129210922,99.27036628150096,139.927797199416,150.5566753346574,204.1647066135771,195.9867536804309
3.2365699032365702,19.545376611509056,8.351484607538614,151.26206065422176,102.59317180328814,140.00860765885844,150.4464516942975,204.50611628180687,195.9739039894796
3.2699366032699366,19.089090497399454,8.164181755137868,147.7390853540345,105.1203217444918,140.15831492671822,150.17018653873023,204.91062369041265,195.98649148046653
3.3033033033033035,19.02712789835647,8.030024572359851,144.56392309650886,107.01779133865648,140.1103842860659,149.83024341380482,205.38246648884345,196.02043750891937
3.3366700033366703,18.97567720001832,7.834251129266622,141.83939647701607,108.55963347966365,139.95414411461428,149.44131820080125,205.92958925336552,196.0685809019595
3.3700367033700367,19.09972421401841,7.872212580214084,139.49365164369712,109.56642877680356,139.75050644244814,149.05113652291246,206.5146417917502,196.12956439985808
3.4034034034034035,19.267399520777847,8.118204132713283,137.038985751124,109.94221392442972,139.51406797529108,148.63040560919288,207.08344854687985,196.2057233177611
3.4367701034367704,19.54778093217785,8.497425799841638,134.49729131698527,109.79504866681826,139.2594872564508,148.2248954952481,207.6259428891007,196.2972763037338
3.4701368034701368,20.11764370575946,8.896459453799151,132.24197087625203,109.13483481306932,138.98626060917286,147.85107377172,208.16409887307563,196.39840219908743
3.503503503503504,20.59830109937668,9.116596594996766,129.9871675491921,107.9191071185869,138.70647065960043,147.5150890273606,208.7192842738245,196.5079063747088
3.5368702035368704,21.223152861501863,9.383491259058896,128.06116471176946,106.11638344412732,138.39534734751962,147.2040665329345,209.2932993680796,196.6270664468445
3.5702369035702373,22.04349306619425,9.810022874870604,127.5221634889962,103.87637538582337,138.08297692844292,146.93180099569653,209.845936499779,196.7547398702356
3.603603603603604,22.740566287542475,10.278836502262692,127.78846133157504,101.16659537729122,137.8005201256208,146.68840473830207,210.3481632975002,196.89983733789288
3.6369703036369705,14.876690411960514,10.756891360761578,128.76572880459838,97.9347907478804,137.5672121479892,146.49825352427362,210.7884804078709,197.0438223271195
3.670337003670337,10.50828157758716,11.197826719842269,130.36676937776969,94.25803714636972,137.35695876588142,146.35197014801878,211.1785188738961,197.1830606325597
3.703703703703704,8.692513065951998,11.593739530689255,133.63650802613734,90.32953484296772,137.20536658742387,146.2568357815507,211.52861264557112,197.3229413870628
3.737070403737071,9.503410245557408,11.86173663722786,138.1258126811332,86.19466509956293,137.0973783614121,146.18888246429205,211.8372417460477,197.48199914799903
3.770437103770437,12.64421519497229,12.29670834600451,137.76489165455948,81.75436788488389,137.05841025641593,146.16047205540193,212.09347999608823,197.64911959147167
3.803803803803804,17.985499793663536,12.84419257079424,136.2850769160732,77.08675814780145,137.08489433574945,146.18035225709556,212.279964759121,197.7993480222214
3.8371705038371706,25.143666742592384,13.660922557852317,134.65934534374492,72.13183025445478,137.180119760284,146.25740428985077,212.41397123964148,197.9365881377728
3.8705372038705375,34.050452634030684,14.61093564469278,132.6912329714721,67.05278027745865,137.3154854184793,146.38310375846896,212.50477632598145,198.0592811026624
3.903903903903904,44.29490977244291,15.618250916788144,129.9761612904645,61.63377912099208,137.4812368964102,146.5805352902393,212.57882047101324,198.178771981498
3.937270603937271,55.80740957620646,16.544808619105687,126.4827993281836,55.88303101840801,137.68219432629607,146.86503325119727,212.61756968932875,198.2756894518846
