Time,Left Shoulder Angle,Right Shoulder Angle,Left Elbow Angle,Right Elbow Angle,Left Hip Angle,Right Hip Angle,Left Knee Angle,Right Knee Angle
0.0,24.77454484178322,29.731957100362447,149.3340812557415,155.0884634820549,146.10861598305337,143.00643839764192,197.0418156913591,200.2906175450209
0.0333667000333667,24.655944540947345,29.56341343867888,148.65483801339977,154.81611066449855,145.36953759018408,142.449689460153,197.9352868880744,200.4734016072455
0.0667334000667334,24.59262322414489,29.46468514513348,148.13039426470186,154.62658496489212,144.6923682988209,141.92801408946295,198.73692667572269,200.668374078192
0.1001001001001001,24.58101518101766,29.43093698256448,147.75250154857528,154.51440803283052,144.0751753639147,141.44095633817824,199.4504775262453,200.87390010761493
0.1334668001334668,24.61755470120744,29.457333713810165,147.5129114039475,154.4741015179087,143.5160260404162,140.98806025890545,200.07968191158363,201.0883448452693
0.1668335001668335,24.69867607435604,29.539040101708785,147.40337536974596,154.50018706972165,143.0129875832763,140.56886990425113,200.6282823036792,201.31007344090983
0.2002002002002002,24.82081359010525,29.6712209090986,147.41564498489817,154.58718633786432,142.56412724744575,140.18292932682175,201.1000211744732,201.53745104429137
0.2335669002335669,24.980401538096856,29.849040898817865,147.5414717883316,154.72962097193167,142.1675122878754,139.82978257922392,201.4986409959071,201.76884280516865
0.2669336002669336,25.173874207972663,30.067664833704853,147.77260731897368,154.92201262151863,141.82120995951604,139.50897371406413,201.82788423992235,202.00261387329635
0.3003003003003003,25.39766588937448,30.322257476597816,148.10080311575192,155.15888293622024,141.5232875173185,139.22004678394893,202.0914933784604,202.23712939842943
0.333667000333667,25.648210871944084,30.607983590335017,148.51781071759376,155.43475356563135,141.2718122162336,138.96254584148485,202.2932108834625,202.47075453032252
0.3670337003670337,25.92194344532328,30.920007937754715,149.01538166342672,155.74414615934705,141.0648513112121,138.73601493927845,202.43677922687016,202.70185441873065
0.4004004004004004,26.21529789915386,31.25349528169517,149.58526749217825,156.08158236696215,140.9004720572049,138.53999812993624,202.52594088062472,202.9287942134083
0.4337671004337671,26.524708523077628,31.60361038499464,150.2192197427758,156.44158383807172,140.77674170916268,138.37403946606474,202.5644383166676,203.14993906411044
0.4671338004671338,26.84660960673637,31.9655180104914,150.90898995414688,156.8186722222707,140.69172752203636,138.23768300027055,202.5560140069402,203.3636541205918
0.5005005005005005,27.17743543977189,32.33438292102368,151.64632966521893,157.207369169154,140.64349675077673,138.13047278516015,202.5044104233839,203.5683045326072
0.5338672005338673,27.513620311825992,32.70536987942977,152.42299041491944,157.60219632831664,140.6301166503346,138.05195287334007,202.4133700379401,203.7622554499113
0.5672339005672339,27.85159851254067,33.07364364854818,153.23072374217702,157.99767534935484,140.64965447566186,138.001667317418,202.2866353225519,203.9438720222608
0.6006006006006006,28.139927201790105,33.4246339393213,153.9706991694703,158.43246742196388,140.7644122713882,138.0459151877897,202.16384801676617,204.06094527692937
0.6339673006339673,28.42855073173852,33.77250879772155,154.75316949028854,158.84816540121466,140.91287716062135,138.1103629186562,201.9881333723083,204.16404981618496
0.6673340006673341,28.722217926409584,34.0660477482194,155.49793535743575,159.21735518991255,141.02106440902296,138.20903625206944,201.7973846204488,204.22872951897867
0.7007007007007008,29.045318343182977,34.3043222028756,156.3177011465371,159.5206132434876,141.1436428336271,138.32628273257902,201.55930233604053,204.26570759677583
0.7340674007340674,29.36973647622585,34.59064083196542,157.1722132815365,159.87541312792644,141.3026620458487,138.41963801273303,201.2792663280329,204.3010131908782
0.7674341007674341,29.668388325647843,34.818389363096344,157.9938085417819,160.14274188792228,141.502667057709,138.51875708663437,200.9321192891559,204.31616356920816
0.8008008008008008,29.89085760571079,34.97780706985902,158.6841966494069,160.3085437975222,141.71454294967344,138.62349543009293,200.56145451346543,204.32343899560288
0.8341675008341676,30.095107851739165,35.09602676358678,159.37259909079688,160.3964412336179,141.91867744609098,138.7002392278705,200.2167648923217,204.35497924267963
0.8675342008675342,30.33999349699752,35.2822458752583,160.10374405945106,160.5887063403789,142.13181386524852,138.75419298806423,199.89432215985644,204.42239010082992
0.9009009009009008,30.59506090137572,35.407484841786086,160.8610127516932,160.6957997652274,142.32627742234666,138.83335146704115,199.61481384510057,204.49783582545285
0.9342676009342676,30.84729265154383,35.41692268183704,161.600525159365,160.73778478392575,142.50934391426406,138.95045056496048,199.38325680048445,204.55386859518768
0.9676343009676344,31.083413227597333,35.31863065432481,162.35762403708245,160.64085487108898,142.65405552426958,139.11324781360008,199.19520705068348,204.5887210277463
1.001001001001001,31.31705998552241,35.112840929815405,163.04997875893977,160.25229290530513,142.74410913887004,139.31237505820556,199.06369596313405,204.60427855663772
1.0343677010343677,31.53185334974924,34.83907939592748,163.79124493095043,159.7582893604037,142.78819677655792,139.54536264460694,198.9875268061461,204.60584832803363
1.0677344010677343,31.8157640501443,34.534020920394035,164.5432785631498,159.3043549921286,142.81270862626167,139.79914832001353,198.9737847342637,204.593028665661
1.1011011011011012,32.20846657592489,34.20989170192177,165.59300025476486,158.9157010824677,142.78837928193818,140.12369630314242,199.0062805570218,204.55012217859627
1.1344678011344678,32.76323506645985,33.949891277343326,165.5827449303558,158.80908722281666,142.78398765871813,140.48877102657295,199.0970003687654,204.4839468616676
1.1678345011678346,33.24268343351747,33.68979071713354,166.26762646789092,158.65571664892826,142.77122012603382,140.8568176239113,199.23882939621387,204.42687861601505
1.2012012012012012,33.653608762451,33.3614927282031,167.37012783910728,158.6507629030349,142.74949147147345,141.22211765340666,199.4225632651247,204.37470500910132
1.234567901234568,33.96451794453284,32.92502299312081,168.86513221218553,158.433322992095,142.6676556356714,141.56529383750134,199.66750271765065,204.3437525589713
1.267934601267935,34.33069483841682,32.436721721261186,175.29513051963195,158.64487938285112,142.5454164329481,141.8911589907834,199.9636245067355,204.3284362689544
1.3013013013013013,34.52730095632721,31.84032486784965,180.3120705290725,158.45134637522918,142.34950918529495,142.2132795246432,200.28910562934087,204.3200402193558
1.334668001334668,34.55244087289282,31.15563404950737,184.36655474447352,157.95877128797667,142.11786499040969,142.5146682048867,200.6457575371769,204.31565089627207
1.3680347013680347,34.31300001093757,30.39451639747988,187.05043081024573,157.02722436958075,141.84143868018498,142.81469649747464,200.96257228937267,204.3237992114861
1.4014014014014016,34.25174166739173,29.54854722820196,187.30397557959256,156.15340457217548,141.5595436379348,143.08072644195863,201.2740142680757,204.3566605195988
1.4347681014347682,33.83701368985842,28.289532550557805,186.50428535598348,155.07029468655733,141.2400494852388,143.28535077824014,201.5957028136031,204.43767960405972
1.4681348014681348,33.04753951809355,28.012179610527703,185.51601941674,153.60577327058576,140.7549633235439,143.44489375194996,201.91558821526624,204.54817302117925
1.5015015015015016,32.083378415890834,27.242058256464816,183.95626991496587,151.46838827978104,140.2776103028945,143.61506026029502,202.203076840282,204.6516988355764
1.5348682015348682,30.78228418781488,25.832509596592867,181.3967884655206,148.8765260406497,139.865678301765,143.81163053528894,202.4517370825137,204.7242976949618
1.5682349015682349,29.34237209433256,24.33703349296332,178.30764866577712,146.0288729365009,139.5578478982916,144.0315902473601,202.65652455770305,204.7694880280532
1.6016016016016017,27.83009956129499,22.451142718896225,175.18262169564565,142.78595195713746,139.3247999584713,144.27874638828513,202.8339476800402,204.7847366271324
1.6349683016349683,26.17853601262628,20.909432217384648,171.60413980102982,139.4041196816808,139.1781206821032,144.54406811062012,202.9790295406148,204.7722260009052
1.6683350016683351,24.365886545782526,20.67077159127362,167.0993869018233,136.04860517446656,139.09456504878403,144.81934437798822,203.0993691666285,204.72812995618867
1.7017017017017018,22.56797061031705,20.77763352273635,162.36743324012963,132.82457351014966,139.059647778556,145.0858284059983,203.19332306026703,204.66217604674748
1.7350684017350684,20.69044313109914,20.713400859920803,157.4790403815292,129.61154607612923,139.08976323753896,145.3205197190161,203.25096501157665,204.5850360703656
1.7684351017684352,18.775241389778586,20.504985636653224,152.37597947929177,126.24214341912402,139.13756924081756,145.5237238705547,203.27755657301444,204.49424092119585
1.8018018018018016,16.478467319883524,20.45761090889169,147.66830779414877,122.49310275737892,139.26272371230087,145.7105263022018,203.2762741809337,204.3803921318253
1.8351685018351689,14.279348784911967,20.45260036496502,142.85095849705178,118.82738034382014,139.51709819508676,145.89164745133468,203.20893890929972,204.2563219232896
1.8685352018685355,12.062824352276012,19.73858710766255,140.28799679213236,116.38354155326056,139.82480843332868,146.05220264952604,203.1003966699016,204.1199452718913
1.901901901901902,9.951952730621692,18.93130029715508,135.60045975600093,114.18404629523872,140.1286582216304,146.219922561923,203.0086748121805,203.9790729941463
1.9352686019352687,7.789706656933201,18.214415108093817,131.40511357063767,112.50364944372056,140.43814764525337,146.38697695223038,202.99274172874323,203.8468398287673
1.968635301968636,6.001867558395031,17.67893239280071,126.18549185061131,110.4470752289724,140.7424901423894,146.55805821156827,203.0422034609366,203.7341238838459
2.002002002002002,4.700429879825194,17.292340734057724,120.75867821488356,107.80915405829634,141.05201115615748,146.68090330020388,203.12040164861008,203.64137472676256
2.035368702035369,3.706147288258204,16.988700145937845,115.01147454004052,104.48051079553164,141.35616170536525,146.83338670777866,203.2195708736141,203.5234166342816
2.0687354020687354,3.368648600533805,16.748923688124346,108.84479941449264,100.17398075677428,141.66935858774718,147.02786990109624,203.33801969037728,203.37435456055707
2.1021021021021022,3.368648600533805,16.67387711496056,102.55513598252696,95.50961572511558,141.97984741624308,147.24536152165993,203.47074979161445,203.2160819267248
2.135468802135469,3.368648600533805,16.568340329802325,95.658586877972,90.3122161155506,142.32518906775618,147.47671956264386,203.62196849118925,203.04715903321403
2.1688355021688355,3.368648600533805,16.5576730334434,88.19955189224378,85.26275860122244,142.68378955515652,147.7199482242461,203.7852119389362,202.8644506608412
2.2022022022022023,3.368648600533805,16.727844375208104,82.68962068317545,80.3482898598899,143.0280264093088,147.9650973373607,203.9602718330331,202.66629737475387
2.235568902235569,3.368648600533805,17.171928198820982,78.41112078514675,75.68636102565503,143.35065953310453,148.2188595063022,204.13229519973416,202.45621453656423
2.2689356022689355,3.368648600533805,17.57608035998742,76.12283375346345,71.04844872152455,143.63903144367086,148.48051548783707,204.3034406221324,202.2409602083028
2.3023023023023024,3.368648600533805,18.038242399899453,67.00267418554466,66.50268855464515,143.8477899705922,148.74280464171764,204.47416724552207,202.02724354436583
2.335669002335669,3.368648600533805,18.62183361363344,63.881549697131305,62.576787041824296,144.04484802618236,149.00401273835143,204.6366355089416,201.81433473679405
2.369035702369036,3.368648600533805,19.474159911697992,65.32307084419307,58.8292059375456,144.23978628828644,149.26618978898725,204.78354558699832,201.6028771382155
2.4024024024024024,3.368648600533805,20.58191168535815,68.2520362048978,55.56777893190496,144.42272810788415,149.53044019497273,204.9095920038213,201.3838793528636
2.4357691024357693,3.368648600533805,21.837170437705364,67.4336949298702,52.08470513400014,144.5739140237043,149.78882554380914,205.01652275763203,201.16631668644987
2.469135802469136,3.368648600533805,23.097898449614444,67.80059082099037,48.89461770842912,144.6808819316283,150.0475337373768,205.10617112369096,200.95592436177725
2.5025025025025025,3.368648600533805,24.404906087042946,68.58053443016944,45.942892310656674,144.726562430822,150.30367637131093,205.17884146967165,200.7590395342424
2.5358692025358693,3.368648600533805,25.753024472281908,70.48402962116909,43.417874658598045,144.71261263362572,150.5469405021712,205.2328912945137,200.58277539615875
2.569235902569236,3.368648600533805,27.216948770789784,74.66869120887786,40.85612167213562,144.6243999561731,150.79440925796473,205.27029958171423,200.420697361109
2.6026026026026026,3.368648600533805,29.183945732086805,79.51812115863308,38.36284663867328,144.47210668196428,151.04045357977083,205.28104270583088,200.2709679116835
2.6359693026359694,3.368648600533805,30.13266244755484,84.15957744134985,36.08048698668058,144.42214547119943,151.27320733566378,205.2771348064209,200.14343105815607
2.669336002669336,3.368648600533805,31.2028215797884,88.73113558917862,34.28395929071993,144.4287799105474,151.49812277195784,205.2472188520401,200.0246988311968
2.702702702702702,3.368648600533805,32.93006439896191,93.84212105596518,33.04542659809359,144.4714647158373,151.71392154029715,205.19084520111235,199.91514678332453
2.736069402736069,3.368648600533805,34.98983983843588,98.83110185358308,32.31956303564877,144.5315188869468,151.9323881504015,205.1296578292608,199.80965834217383
2.7694361027694363,3.368648600533805,38.034928910232814,103.56100994872266,32.46643758583027,144.58484132236495,152.11957803445114,205.07510753954813,199.73649043506936
2.802802802802803,3.368648600533805,41.435451635577614,108.20394244690436,33.39947975881324,144.62936265682384,152.26862254442668,205.0248573400497,199.69038080721347
2.836169502836169,3.368648600533805,43.93351432702063,113.62112275183608,34.867767941389296,144.68907730861622,152.38182331926336,204.9803258421537,199.669192149682
2.8695362028695364,3.368648600533805,45.979336673555686,119.15187514865907,36.680262634921135,144.75457767454378,152.45561840182344,204.95238253710937,199.66993616089573
2.902902902902903,3.368648600533805,48.04236932897354,124.9071475781274,38.96328372586112,144.8165218929699,152.51137791660986,204.94795962456288,199.67452623435776
2.9362696029362696,3.368648600533805,50.05714083274303,130.56353192071674,41.82990857317627,144.8645609324974,152.54722433463874,204.9710979652904,199.6778677756085
2.9696363029696364,3.368648600533805,43.98727350137841,135.83785019270664,45.66402751171168,144.84713474986305,152.5466214816479,205.0157275521069,199.68741128576647
3.003003003003004,3.368648600533805,40.10510714012593,140.81643344143973,50.09024412673914,144.7658302091567,152.50973496013526,205.09187732439105,199.7053046397048
3.0363697030363697,3.368648600533805,39.06987370647634,142.67903434203612,53.691764688968405,144.6728345675029,152.44314805497245,205.1808978636067,199.7254534349059
3.0697364030697365,3.368648600533805,40.21313056255623,145.51122650494332,56.75519811293418,144.56014412794514,152.3519726939398,205.28545166524108,199.7459308651184
3.103103103103104,3.368648600533805,43.2657240010623,146.79999982610968,58.68456626210858,144.41800545826433,152.23328364707913,205.39044805119755,199.769710240869
3.1364698031364697,3.368648600533805,48.01017063688988,148.05793085590383,60.05586330387676,144.28301110398937,152.10121504871427,205.47940268255093,199.77086460299824
3.169836503169837,3.368648600533805,54.33714841599306,148.32763879550765,61.02782277576792,144.16008036191462,152.00729054229183,205.5498442017857,199.7543564898691
3.2032032032032034,3.368648600533805,61.98532635055373,147.77351385580772,61.53804303647093,144.0488167304801,151.93443575372893,205.6115389627561,199.7180269774781
3.2365699032365702,3.368648600533805,70.79445307999411,146.83995419817452,62.25788235434168,143.95647807203764,151.86208886691972,205.66233696590248,199.66125469357067
3.2699366032699366,3.368648600533805,80.52221283247727,145.3743671514694,62.7694640102895,143.87962392901605,151.79554699609812,205.70666758883505,199.58082276201085
3.3033033033033035,3.368648600533805,91.27537938498942,144.23401342034788,63.51455934419091,143.7715542380812,151.73345655463757,205.7368422583236,199.47944051043947
3.3366700033366703,3.368648600533805,102.88313661872525,144.06489342027947,64.24372474141877,143.67826063419025,151.68055756502957,205.70001320314915,199.35280168282972
3.3700367033700367,3.368648600533805,115.15125449493712,142.49477772086126,64.99723433915285,143.6110110596122,151.63913891520315,205.64643781237285,199.2074379782298
3.4034034034034035,3.368648600533805,127.80153352242232,139.9650176707207,65.56342852175,143.5455690373061,151.60907982412516,205.61268153862525,199.06023616419853
3.4367701034367704,3.368648600533805,141.04693531847403,134.9838410848962,66.44869472771691,143.5197055933072,151.5881601746093,205.5899436674368,198.9029668634094
3.4701368034701368,3.544573664759024,154.5868780098332,140.34487366295215,67.4646889762854,143.4989950478163,151.61759835028994,205.5953276036162,198.6667762371285
3.503503503503504,3.544573664759024,168.2597342484203,144.0017633319377,68.28457187964446,143.46322728716746,151.67283697351309,205.6326529558752,198.3947589421481
3.5368702035368704,3.544573664759024,181.7524512560407,146.7291496506392,69.06774736951859,143.43196251482888,151.7416528749362,205.6387894386785,198.13536513077327
3.5702369035702373,3.544573664759024,194.9300226270094,150.69404621609328,69.84000223464825,143.41172700590815,151.78003712699757,205.6265197275155,197.96482564685715
3.603603603603604,3.544573664759024,207.6081507189648,155.0517815671271,70.45858081775384,143.39942755923445,151.86334122812718,205.6530436935495,197.75528143085464
3.6369703036369705,3.544573664759024,219.8346758030645,159.1663097847385,70.96486603359067,143.37692502171535,151.93097367603582,205.7339007516776,197.5950319197489
3.670337003670337,3.544573664759024,238.92520813368927,163.29992188055786,71.6023754481348,143.35144476035043,152.0284703953262,205.8460831590044,197.41155006882727
3.703703703703704,3.544573664759024,255.05491945168555,166.1382576355054,72.14984868445418,143.2971073247212,152.1013575611141,206.03176792169663,197.30835595933203
3.737070403737071,3.544573664759024,268.17590053933515,167.81435671857503,72.40579762902163,143.20270953648762,152.16758021866588,206.28990592639235,197.27593875826645
3.770437103770437,3.544573664759024,278.25366190602506,168.87861603969858,72.46060152714678,143.05581118655002,152.1735344326587,206.64192833891485,197.38164163223607
3.803803803803804,3.544573664759024,285.1302027681105,170.39836808092195,72.22768778695173,142.83465561113235,152.2116009797349,207.0545679956212,197.4241695827456
3.8371705038371706,3.544573664759024,289.02747607641845,171.3352491705934,72.0755520119365,142.5348914870028,152.14697735817697,207.558207817296,197.62679755499292
3.8705372038705375,3.544573664759024,290.9500500410512,173.98221092897762,72.9164492673663,142.20206034459656,152.04740954510373,208.0730723425518,197.9122754846121
3.903903903903904,3.544573664759024,289.68991975833313,175.62395963544495,73.67585344337128,141.85891047164063,151.83944636909297,208.68245879169527,198.41676898290967
3.937270603937271,3.544573664759024,284.5314911937426,176.2915520349406,74.86308044505746,141.2833255504147,151.56575375606857,209.2897437690509,199.17259748077188
