Time,Left Shoulder Angle,Right Shoulder Angle,Left Elbow Angle,Right Elbow Angle,Left Hip Angle,Right Hip Angle,Left Knee Angle,Right Knee Angle
0.0,24.702959379050423,11.335609739219864,185.1089065524521,147.8166116965719,172.40261622301384,209.4014445187324,181.7574246521314,176.70542598977028
0.0333667000333667,13.98164019737711,9.29897090064886,185.0694129915888,160.32780816157288,169.7938769079856,209.07757636711693,182.67612701181227,175.94520388718223
0.0667334000667334,5.168927401399461,7.519261574540043,185.1531680034604,170.7943965855791,167.66767770046803,208.7771639397744,183.38669885469332,175.28276219340094
0.1001001001001001,-1.8125307344472537,6.016882062680622,185.3392659753077,179.3352444117006,165.99190380131702,208.499038997112,183.9032527299011,174.71003347440487
0.1334668001334668,-7.040085935727774,4.812232666857808,185.60680129437145,186.06921908304747,164.73444041138842,208.2420332995372,184.23990118656184,174.21895029617244
0.1668335001668335,-10.59108992800682,3.92571368885881,185.9348683478921,191.11518804272964,163.86317273153804,208.0049786074573,184.41075677380192,173.8014452246821
0.2002002002002002,-12.542894436849137,3.37772543047084,186.3025615231105,194.5920187338572,163.3459859626218,207.78670668127967,184.42993204074776,173.4494508259123
0.2335669002335669,-12.972851187819447,3.188668193481103,186.6889752072673,196.61857859954017,163.1507653054955,207.5860492814116,184.3115395365257,173.1548996658414
0.2669336002669336,-11.958311906482482,3.378942279676816,187.07320378760312,197.3137350828886,163.24539596101502,207.4018381682605,184.06969181026216,172.90972431044793
0.3003003003003003,-9.576628318402978,3.968947990845184,187.43434165135864,196.7963556270125,163.59776313003618,207.23290510223364,183.7185014110836,172.7058573257103
0.333667000333667,-5.905152149145664,4.979085628773415,187.7514831857746,195.185307675022,164.1757520134149,207.0780818437384,183.2720808881161,172.5352312776069
0.3670337003670337,-1.0212351242752824,6.429755495248726,188.0037227780916,192.5994586700269,164.94724781200696,206.9362001531821,182.74454279048635,172.38977873211624
0.4004004004004004,-1.0212351242752824,8.341357892058323,188.17015481555023,189.15767605513744,165.88013572666827,206.8060917909721,182.14999966732057,172.2614322552167
0.4337671004337671,-1.0212351242752824,10.734293120989411,188.22987368539137,184.9788272734636,166.94230095825466,206.68658851751584,181.5025640677452,172.14212441288677
0.4671338004671338,-1.0212351242752824,13.628961483829212,188.1619737748556,180.18177976811543,168.10162870762198,206.5765220932205,180.8163485408865,172.02378777110485
0.5005005005005005,-1.0212351242752824,17.04576328236493,187.94554947118343,174.88540098220295,169.3260041756261,206.4747242784934,180.10546563587104,171.89835489584937
0.5338672005338673,4.997771030643467,21.00509881838377,187.55969516161576,169.20855835883617,170.5833125631229,206.380026833742,179.38402790182505,171.7577583530988
0.5672339005672339,12.074514590045816,25.527368393672702,186.9835052333948,163.27011934112642,171.8414390709696,206.2912615193753,178.6661478878764,171.59393070883294
0.6006006006006006,20.131643828367032,32.52540527447259,185.36150494331875,156.36956505151392,171.31721723229722,207.02396329435084,179.51612187867687,170.0222979940143
0.6339673006339673,29.09180702004243,46.339792653784095,184.40255527939496,149.3548771606774,172.04340803491388,206.71433520534515,179.0221959847995,169.74669484069662
0.6673340006673341,38.87765243950723,52.55024092477238,182.36653844022896,144.06016190879367,172.7269395938465,206.6703128418844,178.2756094355015,169.50654858905253
0.7007007007007008,49.41182836119656,59.66005233049927,180.4873174684102,139.28531862166884,173.31517681691412,206.6452674297221,177.45887117965907,169.19225625413313
0.7340674007340674,62.07800160081911,72.8390739659394,178.45766277607882,139.78665006325076,174.25885763582892,206.19912036628315,176.45798296841494,168.73649116451182
0.7674341007674341,73.4882518431099,82.77915399084648,174.79621809198386,143.37374230428685,175.15064218307995,205.70745055952625,175.46284572859864,168.07299488454012
0.8008008008008008,87.03782010523038,93.07603362228846,169.50397828836256,144.8968499094514,175.8353375060286,205.23959149065783,174.56982287331985,167.20511485279653
0.8341675008341676,100.3922146140331,102.08598287283446,164.79949220479014,138.873288472336,176.38534743288332,204.6807740140685,173.78040966670574,166.288286376701
0.8675342008675342,112.4097803268012,109.91546055488718,160.77501512562463,135.308653361397,176.57135632291124,204.1746898267677,173.4276049036202,165.27901432530862
0.9009009009009008,131.42776851605765,116.48844897216424,157.6570817077911,133.57518233287314,176.52914599709845,203.67984812123137,173.30754734511692,164.5953249931011
0.9342676009342676,149.07235208450678,121.99370883165972,155.1856890452355,131.86645034646054,176.10669899772137,203.14034756673075,173.56751608512198,164.1906555775948
0.9676343009676344,165.4965698859781,125.65983083973413,152.8497787680553,130.14567956069538,175.39657753252806,202.3761709275804,174.1013929798532,164.41767136748965
1.001001001001001,180.6596285923412,126.41607712155248,150.45628492877017,128.92640341718032,174.50754845990232,201.78685939416007,174.86685926227693,164.8777306230209
1.0343677010343677,193.6162506569498,126.02616121483098,149.4209472806344,129.5593975264165,173.74591872595613,201.34907905489345,175.60918253331917,165.59191387654138
1.0677344010677343,203.84735642570985,123.50672445293708,146.56623931018004,130.25144862001855,173.24045715468637,201.2749376413085,176.32355227611257,166.57320809779014
1.1011011011011012,210.67979201259308,118.6563152739963,144.03586348613496,128.56076439535065,172.34516051472215,201.23821081679296,177.01645572345524,168.1734921771291
1.1344678011344678,214.1986432604416,115.0791931752895,142.4322281401506,127.7240962816443,172.0296222041826,201.20512655854785,177.71265776963295,169.728257569382
1.1678345011678346,214.62094940463737,108.24542695546003,146.77378508453978,129.50304678630954,171.77316628501487,201.3760196673236,178.25387886572037,171.7378168118061
1.2012012012012012,212.14243975353617,101.84918403358712,147.89866134005692,131.85358933175203,171.69326351795306,201.7570486668944,178.7876650248254,173.79507025005935
1.234567901234568,208.31047212987872,96.1471310474278,149.72301136779777,135.31009529700515,171.96253234345937,202.08568526196865,179.36633956255636,176.16571831422962
1.267934601267935,201.7654234483938,90.2365671482048,151.57100334240542,140.7043243799441,172.41470896756795,202.3832359896624,179.91896157353267,178.88299107958227
1.3013013013013013,190.65449454212705,85.52798832193179,153.3365001035935,147.33015855805323,173.17298939310294,202.60415375867512,180.38022303117543,181.7085674073115
1.334668001334668,181.11725891087127,82.04047657692136,155.73156819091892,154.695485290773,173.84233719325863,202.77969773249924,180.8490206187153,184.64789263700604
1.3680347013680347,170.53597576155266,78.55686556504828,158.19568672258026,160.9143459086937,174.5696421520257,202.89623765930668,181.28235455618872,187.7540725543115
1.4014014014014016,159.6643897519762,75.02124067088492,162.28646328445015,162.92647271300942,175.3743866292558,203.02836800199253,181.60165330395915,191.0039567433503
1.4347681014347682,148.4441252099885,70.5139317863033,166.13699951872974,163.4414482548407,176.31673291170748,203.0335233408228,181.78461383363145,194.2811493475153
1.4681348014681348,136.872579416138,64.30468292823255,170.20055787925023,170.5945084552589,177.35631490692063,203.0618446439192,181.83920137974425,197.46602347233
1.5015015015015016,125.32825223094235,60.21799788886514,174.53626886481,170.36933857530863,178.58233647222795,203.00965980810096,181.79997687359145,200.50229292300585
1.5348682015348682,113.23078505717947,66.04566223992667,178.48716806844766,171.83737648131893,179.90560867749804,202.599938513728,181.71997502580064,203.3466868030483
1.5682349015682349,101.0200758332613,70.95348711379123,182.30138150115008,175.2706129013648,180.92800898582908,202.71528084191044,181.8120392445419,205.86599583323584
1.6016016016016017,96.08015245453755,76.96120717050968,185.6096169698372,178.80328414555356,181.913964464108,202.76483047456549,181.89745258761744,208.1776690823682
1.6349683016349683,92.65050787040082,84.00310794888622,188.29204843112063,182.4164554206544,182.85032550503053,202.73421859798532,181.9798708920132,210.25361603625464
1.6683350016683351,90.5998981395866,92.01347498772516,190.22884984161385,186.09119193343795,183.72394250129383,202.6090763984641,182.0629499947163,212.065746180706
1.7017017017017018,90.34042715960098,100.92659382583102,191.30019515793012,189.80855889067465,184.521665845595,202.37503506229564,182.1503457327142,213.58596900153293
1.7350684017350684,91.46598902285166,110.6767500020082,191.3862583366828,193.54962149913493,185.2303459306312,202.01772577577395,182.24571394299423,214.78619398454623
1.7684351017684352,93.98807075214702,121.19822905506112,190.367213334485,197.29544496558933,185.8368331490996,201.522779725193,182.35271046254368,215.63833061555675
1.8018018018018016,97.91815937029622,132.4253165237942,188.12323410795017,201.0270944968084,186.32797789369715,200.8758280968468,182.47499112834987,216.1142883803751
1.8351685018351689,103.26774190010848,144.292297947012,184.53449461369144,204.7256352995626,186.69063055712124,200.06250207702936,182.6162117774001,216.1859767648121
1.8685352018685355,110.048305364393,156.73345886351882,179.48116880832234,208.3721325806224,186.91164153206884,199.06843285203465,182.7800282466817,215.82530525467848
1.901901901901902,118.27133678595904,169.68308481211923,172.84343064845604,211.94765154675832,186.9778612112372,197.87925160815652,182.970096373182,215.00418333578503
1.9352686019352687,127.94832318761584,183.07546133161748,164.50145409070578,215.4332574047409,186.8761399873233,196.4805895316892,183.19007199388827,213.6945204939425
1.968635301968636,139.09075159217244,196.84487396081823,154.33541309168487,218.81001536134065,186.5933282530245,194.85807780892645,183.44361094578787,211.86822621496168
2.002002002002002,151.71010902243822,210.92560823852563,142.22548160800665,222.058990623328,186.1162764010378,192.9973476261624,183.7343690658681,209.49720998465327
2.035368702035369,165.8178825012223,225.2519497035446,128.05183359628438,225.1612483974733,185.4318348240603,190.88403016969087,184.06600219111635,206.553381288828
2.0687354020687354,181.4255590513341,239.75818389467892,111.69464301313135,228.09785389054736,184.52685391478923,188.503756625806,184.4421661585198,203.0086496132967
2.1021021021021022,198.5446256955825,254.3785963507337,93.03408381516093,230.8498723093205,183.38818406592168,185.84215818080165,184.86651680506588,198.8349244438701
