Time,Left Shoulder Angle,Right Shoulder Angle,Left Elbow Angle,Right Elbow Angle,Left Hip Angle,Right Hip Angle,Left Knee Angle,Right Knee Angle
0.0,49.08922725211611,46.90392888868622,134.86873919235458,136.65672794350863,144.14470476829013,137.85923019083893,196.9411546018395,200.9770410176575
0.0333667000333667,34.6642271378795,40.65692280743335,145.92467907414152,149.66411385411976,146.37934196650136,138.21111016393436,194.2914164610574,200.4379896175961
0.0667334000667334,22.97360307402532,35.22365971389986,155.07978564011992,159.5956306830067,148.0629369038519,138.6954122869131,192.188702674745,199.7823469449619
0.1001001001001001,13.840662965359565,30.56141447077212,162.45770337451162,166.66893980623598,149.2361369214328,139.29783827959793,190.59742493086137,199.0273087218292
0.1334668001334668,7.088714716688237,26.627461940736417,168.1820767615385,171.10170259987422,149.93958936033516,140.00408986181162,189.48199491736548,198.19007067027235
0.1668335001668335,2.541066232817336,23.379076986479127,172.37655028542244,173.1115804399879,150.21394156165007,140.79986875337698,188.8068243222164,197.28782851236565
0.2002002002002002,0.0210254185528739,20.77353447068657,175.1647684303853,172.9162347026436,150.09984086646858,141.67087667411687,188.5363248333731,196.33777797018337
0.2335669002335669,-0.6480998212991622,18.768109256045094,176.67037568064887,170.7333267639079,149.6379346158818,142.60281534385405,188.63490813879463,195.35711476579985
0.2669336002669336,0.3569984180672421,17.32007620524103,177.01701652043516,166.7805179998474,148.86887015098077,143.5813864824113,189.06698592644003,194.36303462128933
0.3003003003003003,0.3569984180672421,16.386710180960716,176.32833543396595,161.27546978652856,147.8332948128566,144.59229180961145,189.79696988426832,193.3727332587262
0.333667000333667,0.3569984180672421,15.925286045890497,174.7279769054631,154.43584350001805,146.57185594260037,145.6212330452773,190.7892717002385,192.4034064001848
0.3670337003670337,0.3569984180672421,15.893078662716704,172.3395854191485,146.47930051638235,145.12520088130316,146.65391190923165,192.0083030623096,191.47224976773927
0.4004004004004004,0.3569984180672421,16.247362894125672,169.28680545924402,137.62350221168805,143.53397697005602,147.67603012129732,193.41847565844063,190.59645908346403
0.4337671004337671,0.3569984180672421,16.945413602803747,165.69328150997157,128.08610996200173,141.8388315499501,148.67328940129707,194.98420117659063,189.7932300694334
0.4671338004671338,0.3569984180672421,17.944505651437275,161.6826580555529,118.08478514338994,140.0804119620764,149.63139146905374,196.66989130471865,189.07975844772167
0.5005005005005005,0.3569984180672421,19.20191390271257,157.37857958021002,107.83718913191916,138.2993655475261,150.5360380443901,198.43995773078368,188.47323994040312
0.5338672005338673,0.3569984180672421,20.67491321931597,152.90469056816474,97.56098330365607,136.53633964739012,151.37293084712897,200.2588121427448,187.9908702695521
0.5672339005672339,0.3569984180672421,22.320778463934086,148.38463550364014,87.47382903466813,134.83198160276086,152.12777159709435,202.09086622856248,187.6498451572444
0.6006006006006006,0.3569984180672421,23.74518248505369,146.50066891122168,80.76529856739786,133.37576725070923,151.99127313719868,203.73142031929768,188.4294782050218
0.6339673006339673,0.3569984180672421,25.137858352404045,146.7429166863522,75.57006206648008,132.09224340163388,151.70331460161893,205.283933257775,189.4981352278425
0.6673340006673341,0.3569984180672421,24.82707779342827,146.75406221748165,66.29403453879017,131.05534584226908,151.62954648704812,206.9057025653908,190.19439903265427
0.7007007007007008,2.8596280414580804,26.08395931673246,148.03002600452788,61.385647681269816,130.4792988956683,151.90906962155273,208.38099003654784,190.9903183774722
0.7340674007340674,6.683096953679375,28.646808095166776,146.79940689949282,63.38759040175542,130.18098497338977,152.18566093652282,209.72905493174173,191.9503547527812
0.7674341007674341,11.650713059537082,21.08846717882671,145.15711883826663,62.387840022636006,130.37625289543274,152.47030655764272,210.68957445612293,192.96275139964388
0.8008008008008008,17.58578426383727,17.554742794179734,142.69106294735386,61.08858712902621,130.89301168449677,152.51688815005838,211.3985289471888,194.2826496523302
0.8341675008341676,24.31161847138588,16.342986524761976,139.5379906619495,61.07562095524172,131.9100687957514,152.3648482754715,211.56271799761493,195.6789499498713
0.8675342008675342,31.65152358698893,17.037689974424318,136.64190734939956,62.61964637913248,133.28436385707855,152.10053595538523,211.27533629795283,197.02947122614884
0.9009009009009008,39.42880751545244,19.43290025644311,134.1667046441221,65.55397705568282,134.9785235095253,151.80658996842655,210.49182961202297,198.1281322334896
0.9342676009342676,47.466778161582376,23.63760953939803,131.78850216225317,69.79977003567559,136.85607452275875,151.39911876256312,209.34755330943915,199.13675487098664
0.9676343009676344,55.58874343018523,29.266665867616968,129.71529019557067,75.31603364504164,138.85461487083936,150.9300401858698,208.00329735927463,199.9989805702901
1.001001001001001,61.0105177145302,36.25424751774716,128.00294242026456,82.07982490743966,141.03144291764602,150.53248438772272,206.3792627663577,200.5716500624092
1.0343677010343677,66.10103400232899,44.422811430656346,126.35120835142928,89.79498743517468,143.24054126827014,150.183969434381,204.6094338481581,200.99785155013208
1.0677344010677343,66.99540724842602,53.62319926159915,124.7369448495325,98.11689392966018,145.54669406283008,149.90642549777047,202.6684747281616,201.2552321911702
1.1011011011011012,72.20194361291463,63.27628383096329,123.38975321775784,106.45987169660972,148.1741590035113,149.7995576461051,200.42382756725712,201.19831642442875
1.1344678011344678,77.49351204475342,73.38931019888557,123.33664513157382,115.14723811076834,150.75547272706828,149.86660908638595,198.12626979585005,200.9572039865973
1.1678345011678346,73.15458111720314,83.42302483011359,121.0850236520681,125.17465067132392,153.83333257703816,150.32066195952868,195.08070267349527,200.16649686446743
1.2012012012012012,70.19364374971457,94.0117688396106,118.611943346517,135.01804434848785,156.87981584635435,150.84122399251137,192.0153114203169,199.22511476499807
1.234567901234568,68.76836444244782,105.1114629920134,115.90937577899103,144.49641592259,159.84916343711703,151.41913875124632,188.98513013697763,198.14942422051325
1.267934601267935,68.73072913142593,116.6780280519589,112.96929251356192,153.4287621739607,162.6956162514274,152.0452498016473,186.045192924142,196.9557917633384
1.3013013013013013,70.01809332473823,128.66738478408394,109.78366511430136,161.6340798829304,165.3734151913867,152.7104007096279,183.2505338824743,195.6605839257991
1.334668001334668,72.73942473677307,141.03545395302552,106.34446514528106,168.93136582982947,167.83680115909607,153.40543504110184,180.6561871126392,194.2801672402209
1.3680347013680347,76.5042160926109,153.73815632342044,102.64366417057276,175.13961679498829,170.04001505665678,154.12119636198273,178.31718671530095,192.83090823892925
1.4014014014014016,81.26437889493899,166.73141265990574,98.67323375424814,180.07782955873728,171.93729778617,154.8485282381843,176.28856679112417,191.3291734542497
1.4347681014347682,87.01616185351575,179.9711437271182,94.42514546037891,183.56500090140685,173.48289024973695,155.5782742356201,174.62536144077322,189.79132941850787
1.4681348014681348,93.50351841938142,193.4132702896948,89.89137085303688,185.42012760332733,174.63103334945885,156.30127792020394,173.38260476491268,188.2337426640292
1.5015015015015016,100.31162172839215,207.01371311227228,85.06388149629365,185.4622064448292,175.33596798743693,157.0083828578494,172.61533086420687,186.67277972313929
1.5348682015348682,107.29831403135938,220.7283929594878,79.93464895422099,183.5102342062428,175.5519350657723,157.69043261447013,172.37857383932035,185.1248071281636
1.5682349015682349,110.55878253985114,234.5132305959781,74.4956447908906,179.3832076678985,175.23317548656632,158.33827075597983,172.72736779091747,183.6061914114277
1.6016016016016017,114.36493523439984,248.32414678638008,68.73884057037421,172.90012361012668,174.33393015192007,158.94274084829215,173.71674681966286,182.1332991052571
1.6349683016349683,118.83983545864382,262.1170622953307,62.65620785674351,163.87997881325788,172.8084399639348,159.49468645732077,175.40174502622077,180.72249674197727
1.6683350016683351,124.1065465562216,275.8478978874669,56.23971821407024,152.14177005762235,170.6109458247117,159.98495114897935,177.83739651125575,179.39015085391398
1.7017017017017018,130.28813187077165,289.4725743274255,49.48134320642609,137.50449412355053,167.69568863635203,160.40437848918154,181.0787353754324,178.15262797339253
