Time,Left Shoulder Angle,Right Shoulder Angle,Left Elbow Angle,Right Elbow Angle,Left Hip Angle,Right Hip Angle,Left Knee Angle,Right Knee Angle
0.0,37.41910479664941,24.70953937238105,192.71543285564368,217.54690752922585,194.82477339023492,162.50930486112333,176.85537212777723,179.66058479465872
0.0333667000333667,37.61259119723666,24.145889076846483,192.5643758661589,217.1619110253047,194.2734166017217,162.9600179672544,177.48093388329295,181.20152561077663
0.0667334000667334,37.7779221011865,23.665640685618254,192.44359766855325,216.9516481044433,193.7615313630292,163.3609961359341,178.05019309801887,182.5485922023355
0.1001001001001001,37.91682492983516,23.263645357952644,192.3512673185912,216.90125667981104,193.2884775029565,163.71481517838217,178.5655958051515,183.7125812967807
0.1334668001334668,38.03102710451888,22.934754253105925,192.28555387203687,216.99587466457723,192.8536148503026,164.02405090581829,179.02958803788744,184.70428962155748
0.1668335001668335,38.12225604657392,22.673818530334376,192.24462638465485,217.2206399719112,192.45630323386644,164.29127912946225,179.4446158294232,185.53451390411115
0.2002002002002002,38.19223917733648,22.475689348894267,192.22665391220943,217.56069051498235,192.095902482447,164.5190756605338,179.81312521295536,186.214050871887
0.2335669002335669,38.24270391814283,22.33521786804188,192.22980551046496,218.0011642069599,191.77177242484325,164.7100163102526,180.13756222168044,186.7536972523304
0.2669336002669336,38.2753776903292,22.24725524703348,192.2522502351858,218.5271989610133,191.4832728898542,164.86667688983846,180.420372888795,187.16424977288645
0.3003003003003003,38.291987915231815,22.206652645125345,192.2921571421364,219.123932690312,191.2297637062788,164.99163321051108,180.6640032474956,187.45650516100065
0.333667000333667,38.29426201418693,22.20826122157376,192.34769528708097,219.7765033080251,191.01060470291603,165.0874610834902,180.8708993309787,187.6412601441182
0.3670337003670337,38.28392740853077,22.24693213563497,192.417033725784,220.4700487273221,190.8251557085649,165.1567363199956,181.04350717244097,187.72931144968445
0.4004004004004004,38.26271151959959,22.317516546565287,192.4983415140098,221.1897068613724,190.6727765520244,165.20203473124695,181.18427280507888,187.73145580514463
0.4337671004337671,38.232341768729626,22.41486561362096,192.5897877075228,221.9206156233452,190.55282706209337,165.22593212846402,181.29564226208905,187.65848993794413
0.4671338004671338,38.19454557725711,22.533830496058275,192.68954136208723,222.64791292640987,190.46466706757093,165.23100432286657,181.3800615766679,187.5212105755282
0.5005005005005005,38.15105036651828,22.669262353133504,192.7957715334676,223.35673668373585,190.40765639725603,165.2198271256743,181.4399767820121,187.3304144453421
0.5338672005338673,38.10358355784937,22.81601234410292,192.9066472774281,224.0322248084924,190.3811548799476,165.19497634810693,181.47783391131816,187.0968982748312
0.5672339005672339,38.05387257258693,22.968931628222983,193.0203376497348,224.6595152138508,190.38452234444628,165.15902780138555,181.496078997784,186.83145879144217
0.6006006006006006,38.01924635162311,23.11283407695096,193.1133695737905,224.7112225349744,190.42544537407537,165.14070732816032,181.35917911783403,186.4070620383481
0.6339673006339673,37.98715199964241,23.24877453952057,193.19292064898173,225.1347469970328,190.509889514418,165.10003749600625,181.29312182238428,186.10733249557467
0.6673340006673341,37.961247778091966,23.35389537974312,193.2548070838494,225.42681067390043,190.6167574866749,165.0221090122948,181.40793877634505,185.9659843199761
0.7007007007007008,37.93967609364621,23.41949185984357,193.3157201387858,225.54122733267724,190.77875297123376,164.97507370625476,181.4775368313589,185.89592537905065
0.7340674007340674,37.92266246682856,23.45006667268609,193.388590518876,225.6344738021883,190.9747909112509,164.9617976442719,181.52753512526496,185.82082447461667
0.7674341007674341,37.92699181715784,23.45608048504547,193.44053963310083,225.66896363787856,191.21724935974493,164.9627462572022,181.493930403512,185.7437809543237
0.8008008008008008,37.95297629458769,23.43904298054269,193.47524762830488,225.5075953604357,191.47586962375308,164.96211289413944,181.43203696489329,185.66638249996612
0.8341675008341676,37.97326388596058,23.386078155017582,193.51620183450527,225.2441741261485,191.7397401684706,164.96228889395852,181.3934195245118,185.55549541806084
0.8675342008675342,37.994334218827575,23.30075508715434,193.5822934456324,224.6856654106532,192.0148997585954,164.97676924319504,181.3474268718992,185.5335148561365
0.9009009009009008,38.02444733210293,23.183930148446336,193.6468342040364,223.8969283628202,192.2982677444841,165.0264381301308,181.30356543220665,185.5910360623668
0.9342676009342676,38.0604316997692,23.043501887424394,193.70675066538885,222.8693479493372,192.56652549539336,165.1001669182835,181.2704389566263,185.7093419502335
0.9676343009676344,38.08483456501335,22.90862429342621,193.79218202932336,221.50275299977616,192.80717020402983,165.16940684084494,181.2212263153348,185.87546396398
1.001001001001001,38.10338657962261,22.77648620042508,193.90099273441385,219.9717053763376,193.0248236751144,165.24251024653051,181.16019415447263,186.0679919576308
1.0343677010343677,38.135380240039375,22.640603598171367,194.0264418052441,218.2499368211087,193.23372296159457,165.3263828046178,181.0658805276421,186.2696120840405
1.0677344010677343,38.16528407109533,22.50305856563176,194.1857683641986,216.5684588349737,193.437391002954,165.40298257631596,180.96892029138235,186.53076501267023
1.1011011011011012,38.19796292906835,22.35966235636668,194.38423783174767,214.94896568383507,193.63358095923533,165.45357867296713,180.8602818332595,186.87975195731408
1.1344678011344678,38.21942701477283,22.21604549684476,194.64535330017227,213.4315909719024,193.8109470131265,165.4815589723223,180.72503033595183,187.29033886818152
1.1678345011678346,38.22041249745675,22.07970024133669,194.9596088022779,211.9506426697153,193.9595655161092,165.47945962290174,180.60004434227696,187.7670678647221
1.2012012012012012,38.20645427564493,21.95628703277801,195.2850570010781,210.68012447963747,194.0682347226157,165.4671949912318,180.49700123438063,188.20627276179485
1.234567901234568,38.1791353301093,21.87035655734229,195.59661783673968,209.9557202390794,194.13353412109169,165.4658425743626,180.34070616333327,188.5688200474925
1.267934601267935,38.13649784556476,21.809500494035788,195.90860508881923,209.57255522306227,194.15739793849667,165.47540514998624,180.18418689569208,188.87117369419192
1.3013013013013013,38.0829443179344,21.727032537677182,196.2165971191587,209.06534942791868,194.14709022166423,165.4862912686625,180.04072780357507,189.1407571653312
1.334668001334668,38.01636958171536,21.658477386031173,196.5199280105308,208.6391021060256,194.10247785808824,165.49381584052222,179.9413850906202,189.4297937606296
1.3680347013680347,37.93343830579881,21.60638964743488,196.82399644692012,208.3536866031987,194.00925917484483,165.49261309189356,179.8725996518336,189.7278294910675
1.4014014014014016,37.8482050993114,21.590221230518235,197.1121399717619,208.2286122503221,193.91686033918376,165.46683798872925,179.7792829042899,190.0313426427668
1.4347681014347682,37.75358900672435,21.592171352542223,197.39101976467543,208.3572572655065,193.81019355979785,165.41700297083963,179.67927464085426,190.33005174697465
1.4681348014681348,37.6537907813871,21.63172190592705,197.64664620886097,208.5950605596304,193.67613998765705,165.35620623958852,179.59125221594684,190.58208448363672
1.5015015015015016,37.5563778374802,21.71910339161624,197.86624747377272,208.975451365388,193.51959905320865,165.27954657509937,179.50444602589215,190.80771860300817
1.5348682015348682,37.46796812153537,21.84910255070088,198.04555893915705,209.4964940510769,193.34370635911137,165.18539734276433,179.42111575096897,191.0014095590939
1.5682349015682349,37.39316701057179,22.01366884798368,198.17096885072792,210.19100134828403,193.16060899242663,165.08574874320104,179.3279348855988,191.1322588601864
1.6016016016016017,37.34101888745981,22.186741332011746,198.2402016061166,210.95020774648376,193.010510665364,164.98482270361978,179.25923779388884,191.2234898869185
1.6349683016349683,37.300063048456856,22.392620508142063,198.25601649818765,211.89971549445613,192.84847179396377,164.89447343023292,179.26194766478142,191.2537276485318
1.6683350016683351,37.271976986484766,22.62165316598769,198.2173860901723,212.97934658066663,192.6953288672611,164.8201280695936,179.27521112949134,191.25274939795787
1.7017017017017018,37.25832708614298,22.87670081067669,198.123284860933,214.0120430846582,192.56900739824923,164.75962169799809,179.25666063287863,191.2237517773458
1.7350684017350684,37.2604548546092,23.140290324805928,197.96826601164364,214.9451128339945,192.4802032464708,164.71981620363093,179.20604181692252,191.2216308146982
1.7684351017684352,37.27488810032349,23.40058906077682,197.76079007025268,215.69923240830911,192.42139742957315,164.71281982526173,179.13706217917027,191.1783709699588
1.8018018018018016,37.30157769563505,23.64399442853053,197.5298756553013,216.3052699880253,192.40492472477868,164.73259846915752,179.01204042948115,191.08853428784823
1.8351685018351689,37.338421678537685,23.885784223245142,197.28178505033424,216.802541719734,192.42148877020367,164.7748250046338,178.8455457175382,190.90378444991768
1.8685352018685355,37.38312317340211,24.109681659544123,197.02217029879924,217.18158686795883,192.4683835980723,164.843336809383,178.67762916579383,190.6701934289547
1.901901901901902,37.4379354994326,24.318830585944763,196.7402862102343,217.4327016149948,192.55373288077445,164.93833595552474,178.47002038237335,190.42860133957333
1.9352686019352687,37.483017299737966,24.49028903448597,196.4727870291388,217.41644269440675,192.64281783378635,165.05439124124433,178.2817201520842,190.14731214225085
1.968635301968636,37.51904194137555,24.60486363520576,196.2140606582617,217.0982048692216,192.7374275888048,165.19289934962657,178.1257880124715,189.81022264988823
2.002002002002002,37.55607020035633,24.67812817109748,195.9627100888844,216.35971882378809,192.83430338850627,165.3528160303955,177.9503965430581,189.55088717798705
2.035368702035369,37.58870820723072,24.729291231775253,195.69162268700785,215.24777918368875,192.93593367813924,165.52206166503467,177.7647278758231,189.23923841042688
2.0687354020687354,37.6077381092048,24.76409803122512,195.4500330821689,213.8915810316981,193.03134804071385,165.6567305253559,177.56663769368907,188.895317494164
2.1021021021021022,37.633610261635866,24.770192203993727,195.2180438433336,212.23728406222028,193.12163182960623,165.75717939744175,177.34549793412265,188.54922142900944
2.135468802135469,37.66876519955307,24.73375666312563,195.01550099961585,210.7336679865076,193.231801494649,165.8433849908276,177.1094293442653,188.21260306249755
2.1688355021688355,37.71495577146872,24.64910313522069,194.8301578524472,209.3224486068401,193.3565390691468,165.89783431881034,176.834940115168,187.8754068731932
2.2022022022022023,37.74620054220929,24.529334713107698,194.68019728518007,208.14624542825567,193.4826265646313,165.90955386072253,176.55816672136734,187.60909591818185
2.235568902235569,37.76912673556507,24.38106840756093,194.58174332234304,207.00247237382703,193.6183846207089,165.9053893484497,176.30043836801104,187.39582154832848
2.2689356022689355,37.77290881243948,24.21684934791738,194.52161438380665,205.97223402913943,193.7554271485474,165.9074343384333,176.07200973955824,187.21280488031823
2.3023023023023024,37.7800904997921,24.036407909512512,194.48421808779108,204.89401505664773,193.9314473539955,165.91205622456502,175.8463915160824,187.0628336339256
2.335669002335669,37.78217843473552,23.84724827687172,194.46237391294616,204.0676186772686,194.1060353037574,165.93570970209748,175.6486500550969,186.91793584028284
2.369035702369036,37.76968015837108,23.642221834678885,194.43485064368016,203.5297985324144,194.264753010196,165.98226576014574,175.5603099282695,186.7374301087664
2.4024024024024024,37.74496085849595,23.398392454064474,194.4451646133904,202.87532651161052,194.40894490589568,166.020798520837,175.55486495792397,186.62492051175025
2.4357691024357693,37.70635301318322,23.16625408105101,194.50813782890776,202.1046372297509,194.5298843477316,166.02112064121548,175.5635877000611,186.66299701339148
2.469135802469136,37.65370959940282,22.970362492985064,194.6147669352966,201.4746057440476,194.62796146488844,165.99566942603158,175.59346745365465,186.787273535383
2.5025025025025025,37.59177190325094,22.82329821484269,194.71592704919104,201.0710691722673,194.6960436829706,165.93591984347086,175.64408632528355,186.97283234162305
2.5358692025358693,37.54151866100719,22.684174833412087,194.81975753768648,200.5619386779324,194.76241900538804,165.86520125666635,175.64064237753635,187.19962212875032
2.569235902569236,37.50384291651756,22.544533837883016,194.9247411459696,200.173879079137,194.81480725557657,165.80969189819305,175.646852634454,187.48575410459097
2.6026026026026026,37.48783823802743,22.42695795416248,195.0184535252346,199.8493706100088,194.86913280155665,165.77606815824402,175.65669356179066,187.79825539830097
2.6359693026359694,37.49599378286869,22.320425589924373,195.0920786348283,199.85927597673384,194.9363570834061,165.71779078255193,175.72055491749316,188.18928304845664
2.669336002669336,37.52325939751951,22.219374343121444,195.14718959136889,200.04657152413904,195.01379553960257,165.65972767996504,175.8376731950842,188.5907167084501
2.702702702702702,37.554778503793926,22.14383451933076,195.22576832385445,200.4735202495172,195.09410544412825,165.61249825496546,175.99214186207195,188.9765334865594
2.736069402736069,37.58820128348162,22.08867936339905,195.31642856040617,201.1834117859113,195.1699155368228,165.5490207381771,176.17919689793806,189.42959632592533
2.7694361027694363,37.62490354572388,22.043719155117444,195.39880233488867,202.05246197600616,195.2379705173943,165.5278389101728,176.43846154405196,189.8175807082166
2.802802802802803,37.66186166707254,21.990649970152464,195.4705871323536,202.7664750245897,195.33459111133683,165.53894423084472,176.75358275686955,190.136461713514
2.836169502836169,37.70446068176528,21.97064442162474,195.49692277313383,203.17844105650107,195.45177722276648,165.56251141230325,177.3350089452935,190.4567996235632
2.8695362028695364,37.74974667438399,21.95679307613271,195.4933470333854,203.46888489880988,195.5716834893261,165.59952749461166,177.87504496226492,190.7009713067232
2.902902902902903,37.79873049333008,21.9242872421254,195.43757335754592,203.66251421549947,195.68726698630013,165.65132347800704,178.26560291133714,190.8285013083573
2.9362696029362696,37.85229862546588,21.88385593646276,195.34406946111952,203.70139935335848,195.81544219693524,165.71768603026553,178.51323542003888,190.8580973149178
2.9696363029696364,37.93166146080619,21.865142597456,195.19486953695483,203.49895781547323,195.9752031417689,165.82667031363195,178.65481144192086,190.7640865034649
3.003003003003004,38.01322254285949,21.84773510789852,195.04779981335696,203.297759229518,196.1598500109836,165.95097360846464,178.68443021780013,190.6452229247332
3.0363697030363697,38.08647663233033,21.81250257815848,194.9373676572203,202.98954153375985,196.34739655842785,166.10187652937208,178.57757615517212,190.48961407475892
3.0697364030697365,38.15211254561255,21.74359095757817,194.84246022920192,202.48234033379467,196.52499307151325,166.2705412600062,178.42501823197065,190.26819377483525
3.103103103103104,38.22200298137635,21.63918796323053,194.75478339857176,201.5291280473804,196.7134850005945,166.48302419524646,178.177407578115,189.9728375156771
3.1364698031364697,38.29085250554735,21.54445306483945,194.6799435689125,200.6688711744134,196.9003478576872,166.7217557011665,177.88068475527737,189.6419565765449
3.169836503169837,38.351941597734935,21.50603828918588,194.62560366421667,199.8672323513232,197.07631612997807,166.91575692878064,177.54101154416654,189.3022866646208
3.2032032032032034,38.40637285828662,21.451643121357467,194.604802958732,199.50126554405296,197.2245021975857,167.06917312267177,177.18862350292184,188.9677585975473
3.2365699032365702,38.45575536348735,21.28281108201848,194.5934357948641,199.54939354106887,197.30595654562893,167.22327870458332,176.84666424672284,188.61282051892888
3.2699366032699366,38.48914110214973,21.06808684383984,194.60249342603623,200.0160168291076,197.3409648616709,167.36951972747164,176.51530463822337,188.22884100961343
3.3033033033033035,38.507499758634935,20.8220979016804,194.63527627050908,200.77493178016715,197.34176835929645,167.46675724089528,176.18393812620562,187.823898274123
3.3366700033366703,38.506933696881646,20.564251741712976,194.7129519660996,201.7848965926581,197.31233423717012,167.55107033436474,175.90023712571158,187.45584815149016
3.3700367033700367,38.47916529247159,20.30888416852402,194.8304936655246,202.94467915400728,197.26746904979515,167.5914310354975,175.67144766598526,187.15448126224032
3.4034034034034035,38.42041843261145,20.081863111502567,194.96059536075524,204.62245717934937,197.1972141415006,167.5285600015384,175.44152356851785,186.74753909642143
3.4367701034367704,38.33701267472436,19.89386276589424,195.1084871576969,206.40245828692863,197.14269400539123,167.48070801210335,175.29753322176842,186.4387181796568
3.4701368034701368,38.20477083253086,19.761001868555745,195.29557109120776,208.39373543525429,197.0159802162096,167.4505872131554,175.18968909819645,186.1775298962069
3.503503503503504,38.04063041823247,19.756355864957005,195.50952762994515,210.25048896852672,196.83517490598723,167.42469918023104,175.11626981461882,185.96918108704944
3.5368702035368704,37.85478710745559,19.83693873274516,195.78144632947703,212.07523406869225,196.60664738752047,167.39104759401454,174.92802134290093,185.87073696737124
3.5702369035702373,37.64837592322564,20.021302868505163,196.10753441631863,213.1200724064992,196.32736950816724,167.3601477985023,174.6817137185318,186.03940845533285
3.603603603603604,37.42697604054868,20.20215308186839,196.45319164393425,214.19337534910213,196.0166310901258,167.35010813025585,174.44758335295305,186.1534796024337
3.6369703036369705,37.20109097175251,20.311826764540527,196.7870347218248,215.6371329262853,195.68990204152635,167.34650117803886,174.32394734666624,186.2013794989264
3.670337003670337,36.98272632543404,20.35525096663945,197.13961179779645,217.027666231,195.36709200113057,167.37610499759208,174.1931306952521,186.17839068741625
3.703703703703704,36.74285442986456,20.38367022223761,197.5175277974979,218.9399262679088,195.0386858269609,167.42074023255745,174.1152909251666,186.15040870262536
3.737070403737071,36.50823798587702,20.40353323403757,197.8811094760181,221.1842760336644,194.72068772372623,167.45621932700433,174.0562443577863,186.0753105515727
3.770437103770437,36.30606045386917,20.429739871796784,198.18102114242348,223.87212116278417,194.41418236332336,167.47436755337384,173.9333215497147,185.93175554267324
3.803803803803804,36.12026553952007,20.4512081994964,198.45228316161453,226.67674480028307,194.11706543838372,167.5083988074935,173.8129505367821,185.74260739332232
3.8371705038371706,35.94844097054349,20.60655221899885,198.67883942961828,229.616804147545,193.8059804054164,167.54944383719302,173.74402097914492,185.5893344819672
3.8705372038705375,35.793506704852376,20.737062758176123,198.8727868680986,232.7605660282937,193.495845128068,167.61420129408654,173.76400575759857,185.433983064388
3.903903903903904,35.644190548257825,20.78831381866007,199.0285718474481,235.6332664888351,193.1759041503202,167.70748149242536,173.95564997711685,185.26030095339007
3.937270603937271,35.49952526413149,20.811973863422907,199.15232794344345,238.01878264941533,192.8575394070331,167.79180383388473,174.2563669619244,185.1256006571467
