Time,Left Shoulder Angle,Right Shoulder Angle,Left Elbow Angle,Right Elbow Angle,Left Hip Angle,Right Hip Angle,Left Knee Angle,Right Knee Angle
0.0,34.359235674690446,37.677639193265,166.90488790985674,171.43907604010306,131.75297531832948,130.61274568161292,206.08174483736707,212.8986301719929
0.0333667000333667,33.8793523752857,37.58452027592786,166.2531671335805,171.11801336177373,132.5109698693906,131.23902730377745,205.30897996326505,212.158677965528
0.0667334000667334,33.48986554005512,37.57498388604253,165.73226287345418,170.91354492477518,133.16687246353976,131.76474388843982,204.6313868142453,211.51274283866184
0.1001001001001001,33.18576022295367,37.64178302567409,165.33579764398098,170.81648436586764,133.72640698038103,132.19600487016714,204.04340553351537,210.95565092006893
0.1334668001334668,32.96202147793627,37.77767069688758,165.05739395966407,170.81764532181137,134.1952972995186,132.53891968352642,203.53947626428263,210.4822283384236
0.1668335001668335,32.81363435895788,37.97539990174807,164.89067433500662,170.9078414293666,134.57926730055655,132.7995977630847,203.11403914975463,210.0873012224
0.2002002002002002,32.73558391997343,38.227723642320605,164.82926128451183,171.0778863252937,134.88404086309907,132.98414854340905,202.7615343331388,209.76569570067275
0.2335669002335669,32.72285521493788,38.52739492067026,164.86677732268285,171.3185936463528,135.1153418667503,133.0986814590665,202.47640195764248,209.51223790191605
0.2669336002669336,32.77043329780615,38.86716673886208,164.99684496402287,171.62077702930424,135.27889419111435,133.14930594462413,202.25308216647323,209.32175395480425
0.3003003003003003,32.87330322253321,39.239792098961125,165.21308672303502,171.97525011090823,135.38042171579536,133.14213143464897,202.08601510283847,209.18906998801177
0.333667000333667,33.02645004307398,39.638024003032456,165.5091251142225,172.3728265279251,135.42564832039747,133.08326736370805,201.9696409099457,209.10901213021288
0.3670337003670337,33.22485881338341,40.054615453141125,165.87858265208854,172.80431991711504,135.42029788452484,132.97882316636844,201.89839973100229,209.076406510082
0.4004004004004004,33.46351458741645,40.48231945135221,166.31508185113623,173.26054391523834,135.37009428778157,132.83490827719717,201.8667317092157,209.0860792562933
0.4337671004337671,33.73740241912803,40.91388899973074,166.8122452258688,173.73231215905523,135.28076140977186,132.65763213076133,201.8690769877935,209.13285649752137
0.4671338004671338,34.04150736247311,41.34207710034178,167.36369529078937,174.21043828532606,135.15802313009976,132.45310416162792,201.89987570994305,209.2115643624404
0.5005005005005005,34.370814471406625,41.759636755250405,167.96305456040116,174.685735930811,135.0076033283695,132.227433804364,201.95356801887172,209.3170289797248
0.5338672005338673,34.72030879988351,42.15932096652166,168.60394554920734,175.14901873227032,134.83522588418515,131.98673049353664,202.0245940577872,209.44407647804888
0.5672339005672339,35.08497540185899,42.53388273622095,169.27999077171242,175.59110032646572,134.64661467715197,131.73710366371398,202.1073939698984,209.58753298608875
0.6006006006006006,35.40747039166064,42.75979855569952,169.95559493544118,175.88114465605258,134.47719995874056,131.53066168513084,202.2309189375942,209.7803356035797
0.6339673006339673,35.77258568017163,42.987663333978375,170.68670221243246,176.155591471039,134.34081817150928,131.33886239528158,202.2767526028725,209.9151645932548
0.6673340006673341,36.1642277809922,43.17006155102416,171.4715780416436,176.38372870283652,134.22526861375903,131.17195327209484,202.2842023239592,210.01642292695345
0.7007007007007008,36.54480655889884,43.34270593958405,172.22929113348548,176.6270154871898,134.12335772936368,130.98953944332197,202.26443152641173,210.11884022812853
0.7340674007340674,36.90720009726902,43.44750384587873,172.97867636720264,176.79578846651216,134.03755623765448,130.83581756103405,202.203905690762,210.19229615037312
0.7674341007674341,37.26083341033342,43.49163551626624,173.71720873493632,176.86178607826287,133.96491491704023,130.69035351011166,202.0938058450231,210.26655489389492
0.8008008008008008,37.596863528259625,43.46416167764161,174.43645366258053,176.82580011924023,133.87939683604787,130.5637387445423,201.97742495221,210.3183640769307
0.8341675008341676,37.88242298849806,43.35360447832514,175.1110120743912,176.6711295932611,133.82296530088036,130.46709494682818,201.839867930884,210.34820750466324
0.8675342008675342,38.12230490269227,43.13893824155716,175.7519182734909,176.40854622079613,133.78121155188,130.42099335572652,201.70186985911064,210.35128998174875
0.9009009009009008,38.30644465433349,42.88162298511895,176.2881468055186,176.0578070616708,133.71739519335455,130.41007947386257,201.5946447656729,210.33540481017084
0.9342676009342676,38.42242396923228,42.51774055360621,176.74247185375492,175.6115221086395,133.6445468249645,130.4558932458317,201.5134245185868,210.30113118044025
0.9676343009676344,38.48712141411157,42.08927462577595,177.12386321327472,175.1119153580949,133.57414520718962,130.5521059825112,201.4427457405056,210.2408916782912
1.001001001001001,38.51325884305341,41.577176481793046,177.45842099399454,174.53481817640875,133.49278414734624,130.6751041473595,201.35669529464772,210.16511987939
1.0343677010343677,38.4643874753742,41.0394650156525,177.6252528188613,174.03063595531614,133.40647261353962,130.83605511587402,201.30488426288167,210.08889770867623
1.0677344010677343,38.36453987471112,40.41156717762309,177.75178665062796,173.47147588152745,133.30999191246443,131.05055885739696,201.2887382898228,210.0029919704914
1.1011011011011012,38.23712291586517,39.66624457944322,177.715365161203,172.77127359176222,133.18272797651363,131.29948948610277,201.3359362822186,209.9187731377365
1.1344678011344678,38.05266852094567,38.868628880520966,177.67542801443105,172.0151060382699,133.06567211923905,131.5807524600321,201.4097116403657,209.827526291322
1.1678345011678346,37.94582129226029,38.26040936404632,177.76468659364866,171.4683309988599,132.87940897669654,131.81500708680247,201.55233141459163,209.76517448319763
1.2012012012012012,37.82696234156972,37.60849736857719,178.00794169350812,170.87315156000358,132.7451033278502,132.08022017839116,201.651437001676,209.68426176298732
1.234567901234568,37.78228258056058,36.96523236976188,178.29798113571638,170.251953882201,132.6461433307967,132.3451800742189,201.65544275288264,209.59956937666612
1.267934601267935,37.741911106460925,36.25356166641441,178.78438617587847,169.58130852641585,132.57515538322426,132.64855957030937,201.6502721721698,209.49780453668336
1.3013013013013013,37.644562887518575,35.59227245316932,179.33619572711424,168.90557416880554,132.54102599544944,133.00482634105992,201.66782682656404,209.3685932807992
1.334668001334668,37.42782356635302,34.88396520934001,179.91170474375525,168.23592213780347,132.50952169251968,133.38862157806565,201.70493378918508,209.2300204562229
1.3680347013680347,37.28467064246546,34.19474897333469,180.54487164884972,167.73717818982684,132.44431156102405,133.7982766672668,201.7655971654717,209.08797751751524
1.4014014014014016,37.05678947583312,33.3867394131774,181.22397190569043,167.20519129805626,132.35379646292768,134.22246188667577,201.86976437697825,208.959317348732
1.4347681014347682,36.87418131314641,32.48986601287466,182.0824805022788,166.62672300319326,132.3474628357003,134.65538307568207,201.89523657030333,208.82800993486825
1.4681348014681348,36.484543313889375,31.45773423594563,182.8496020037894,165.95833098926948,132.35492874628278,135.09693815451996,201.9343666332212,208.70182342693812
1.5015015015015016,35.97365311296203,30.43816989335589,183.2973652587188,165.40156623912006,132.34580199469244,135.5446002472014,202.03487620786925,208.6031281972723
1.5348682015348682,35.272170479682735,29.313263293254632,183.709297908901,164.79156890375893,132.29215439802735,135.99849951496176,202.1895148165651,208.51463652562504
1.5682349015682349,34.13712912926404,28.151061091288987,183.94411620500293,163.95954466891394,132.21240879040067,136.47099443016168,202.40273863816492,208.4360771543932
1.6016016016016017,32.778150952532954,26.81108022647461,184.1503026918201,163.01392034098598,132.15541005156658,136.93349114382312,202.5861686383703,208.3503365775307
1.6349683016349683,31.553546247407727,25.348161815252748,184.10631383125,162.02688337187308,132.058397580737,137.38013741277214,202.80434668402512,208.2466016284431
1.6683350016683351,30.15826412855082,23.79146583843548,184.1206633133618,160.74746949710155,131.96345696779449,137.81295697819706,203.05996951572328,208.1219557063208
1.7017017017017018,28.55532704265091,22.167577898075937,183.5036660718009,159.9688858956708,131.80072342155992,138.20754771475924,203.35551040019163,208.00787981438063
1.7350684017350684,26.823194413988567,20.441564776104173,182.91580204313124,158.982115372665,131.67010797096594,138.62716484482604,203.68698632130764,207.85006085148083
1.7684351017684352,24.830091545793145,18.777022387800315,187.5077870509487,159.74194678759144,131.5196965467034,139.0558692953031,204.01443123621377,207.63282742388463
1.8018018018018016,22.80783135664435,17.14459708262839,192.37060928894488,159.8108220505966,131.36623594402386,139.488374055362,204.3857215071154,207.394849629846
1.8351685018351689,20.88515138371484,15.345603549451631,188.32559591480097,158.129391953894,131.26824715016005,139.94080386338254,204.8289257040624,207.1672709779144
1.8685352018685355,18.91914028020368,13.487341445476597,185.0775751039645,155.0255714675815,131.18769859659332,140.4380527047549,205.30696108598707,206.9199822724235
1.901901901901902,16.929412693842202,11.610129831546333,185.86540464258235,154.26084872134624,131.09267090673936,140.96350760354247,205.8023072653368,206.6731737500457
1.9352686019352687,15.020664364168187,9.892042185442811,186.07163279887584,152.904177688057,130.9957382992477,141.50533908244745,206.3331857273381,206.40503354885752
1.968635301968636,13.078130923631404,8.022763961575956,185.67217978681813,148.2638459487721,130.91786677585833,142.03383746488777,206.8853693374713,206.1358901785796
2.002002002002002,11.314400734251825,6.329374294126926,184.75958996138405,143.76709232696345,130.81568034839373,142.54670731883994,207.4824795353883,205.88598296734872
2.035368702035369,9.572599574193225,4.399747778426971,183.269421968852,137.79683284293768,130.63865510577088,143.0624094233382,208.1278970359892,205.65395452931008
2.0687354020687354,7.980064022378777,3.527516822807829,181.2550467197749,134.4267872747775,130.46663986222896,143.57819936269777,208.77286783159929,205.42509234982103
2.1021021021021022,5.849103626600098,3.442531356129421,178.17079809178736,132.65985889427952,130.29789623879375,144.01880284179404,209.41480186812169,205.2234221943876
2.135468802135469,4.444272797679093,3.442531356129421,175.07544587385178,130.40244230313485,130.1415475347692,144.40286629160678,210.05169708118652,205.0531977620172
2.1688355021688355,3.247266942735746,3.442531356129421,172.34382327629064,127.62243566786336,130.04666244445386,144.9255087862859,210.6786839833676,204.94169448038883
2.2022022022022023,2.7239040679839945,3.442531356129421,169.57880891785865,125.08899758360384,129.9093121730062,145.2717274146669,211.30859312183145,204.8453527476321
2.235568902235569,2.7239040679839945,3.442531356129421,167.00084663173166,122.55825126064084,129.7598554118277,145.59368162780052,211.9164623688472,204.7665170241445
2.2689356022689355,2.7239040679839945,3.442531356129421,163.96383032677184,120.17420009961292,129.64344727524474,145.77438767714045,212.4536327769097,204.70039567947177
2.3023023023023024,2.7239040679839945,3.442531356129421,161.0355145064853,117.90541940096888,129.55049868269003,145.81316272140722,212.94103738112656,204.65138810815404
2.335669002335669,2.7239040679839945,3.442531356129421,158.3186531626803,115.7866141192011,129.59830504914936,145.7677662139819,213.283965698338,204.58930810209293
2.369035702369036,2.7239040679839945,3.442531356129421,155.58955407820207,113.74993993830851,129.7279095130978,145.59244679827972,213.521778577138,204.527404003219
2.4024024024024024,2.7239040679839945,3.442531356129421,153.245820738978,111.68565190655904,129.87649098212856,145.426734897607,213.75528300302105,204.45151532206432
2.4357691024357693,2.7239040679839945,3.442531356129421,151.3823033266513,109.81647141254254,130.05855084163966,145.36477837888995,213.8892407038062,204.2904885154547
2.469135802469136,2.7239040679839945,3.442531356129421,149.6209978357724,108.10237716514946,130.20047347939183,145.23468266250214,213.9842995452806,204.1397085255885
2.5025025025025025,2.7239040679839945,3.442531356129421,148.3506482708141,106.73179559554372,130.37590131314076,145.22636359839936,213.93285377579943,203.94945392645644
2.5358692025358693,2.7239040679839945,3.442531356129421,147.28420598141778,105.4081593230315,130.59635632558715,145.12403853935135,213.8333919657639,203.80843088555105
2.569235902569236,2.7239040679839945,3.442531356129421,146.4565639960454,104.63558701663518,130.88369292173005,144.88636617474893,213.6968681222086,203.67264632435624
2.6026026026026026,2.7239040679839945,3.442531356129421,145.78121928586347,104.18804797114764,131.06815687373168,144.5621548130017,213.6794412774496,203.5894191278192
2.6359693026359694,2.7239040679839945,3.442531356129421,145.03381093131844,104.22832223848413,131.2397016467959,144.1598460441522,213.7536728411716,203.49469347934303
2.669336002669336,2.7239040679839945,3.442531356129421,144.6602263243912,104.32106716374275,131.32747394355115,143.67299727016544,213.882375006529,203.49828152585224
2.702702702702702,2.7239040679839945,3.442531356129421,144.52773951746389,104.87051128723716,131.33713643677464,143.179003118652,214.0828616982812,203.51036728717523
2.736069402736069,2.7239040679839945,3.442531356129421,144.88431660421958,105.80028433583402,131.23028006123562,142.62574420941672,214.3018579028675,203.6179048179213
2.7694361027694363,2.7239040679839945,3.442531356129421,145.62126159407572,106.73899256854546,131.03841424158395,142.12187680078893,214.59494161651224,203.74960074145875
2.802802802802803,2.7239040679839945,3.442531356129421,147.0385366905164,107.75063231317078,130.7977154886455,141.59959628390158,214.9327546411215,204.0322952548968
2.836169502836169,2.7239040679839945,3.442531356129421,148.9965165692031,108.66640373634328,130.50872107028292,141.13600581887985,215.3457790713568,204.45063943714737
2.8695362028695364,2.7239040679839945,3.442531356129421,152.29907440481645,108.98086456039104,130.2100696979242,140.69150476919458,215.7863754726,204.9607779656972
2.902902902902903,2.7239040679839945,3.442531356129421,156.3532785189584,109.72206316862078,129.92942352390622,140.43215763534258,216.2536939783932,205.5933175715681
2.9362696029362696,2.7239040679839945,3.442531356129421,154.79206651946865,108.43784405661984,129.6243717025393,140.0734626039235,216.79561216947488,206.33630153323443
2.9696363029696364,2.7239040679839945,3.442531356129421,149.963544462985,108.56336419801288,129.25837367534328,139.58062321611496,217.3203430759434,207.2230100005641
3.003003003003004,2.7239040679839945,3.442531356129421,153.51158161207223,109.42700868694858,128.71926842582553,138.67467296715142,217.850532806151,208.9056408402643
3.0363697030363697,2.7239040679839945,3.442531356129421,159.37954588393947,109.57399957895228,128.00899663471782,138.03418456956103,218.35541777141293,209.92855755617896
3.0697364030697365,2.7239040679839945,3.903670568578212,160.97528493431057,106.8328950187887,127.2455181586094,137.4219351743543,218.8270379658937,210.75282651861423
3.103103103103104,2.7239040679839945,4.569275223864084,158.81052452473412,102.7235486806957,126.40390388996435,136.88233797596547,219.2558259133192,211.4077437470092
3.1364698031364697,2.7239040679839945,5.504851124080132,157.20757831661453,100.99940660767152,125.58020468947709,136.3084899772096,219.62909307331972,212.05514639843727
3.169836503169837,2.641490391758333,6.678813316960658,160.62208817752332,99.09151822815195,124.72086881434196,135.80322209703425,220.0059751287565,212.7710675423259
3.2032032032032034,-5.778496223658651,8.236853901148296,163.17181640618043,100.05214184504756,123.94416460916104,135.29343169803045,220.31214750923635,213.55394797855263
3.2365699032365702,-10.64902558026212,10.14637817479941,165.0389832418563,99.82957594382718,123.23256102668468,134.85539209679686,220.57679410423663,214.3217799270812
3.2699366032699366,-12.459617238242569,12.1380217057274,166.34769995146408,98.12641452452937,122.63135566298456,134.466552699445,220.73584608176392,215.09577872093047
3.3033033033033035,-11.101569059002031,14.24202479532963,162.2804894015206,96.20967234459305,122.15002800700611,134.19722554080298,220.75766939238304,215.86337118279167
3.3366700033366703,-7.2463192975716835,16.433242752469504,158.26467310684362,94.92419931731185,121.7366856832502,133.7073052362812,220.69071959698567,216.5872204238916
3.3700367033700367,-1.1493971561906422,18.86145436255749,154.87956266390665,93.04062961490688,121.24200892565966,133.2867838772414,220.97294493411607,217.32371281219
3.4034034034034035,7.1255448356654245,21.35009255508574,151.5912572442238,91.2053371111172,120.97549217026943,132.74934467460395,221.022744199802,218.0229187099577
3.4367701034367704,17.24793428752745,24.067206866588112,149.5919035330499,89.63893584306338,121.08631193049594,132.14998599013626,220.7372592456341,218.7507750983281
3.4701368034701368,28.825122457697223,18.190818272572024,148.05348546250937,88.61296077536012,121.41444926964232,131.57649456134635,220.1563186996895,219.3808724312577
3.503503503503504,41.75105062205729,15.276331764206972,147.39683056583365,87.6522609538064,122.28479676192713,131.02074984097223,219.0561026843637,220.0452836158833
3.5368702035368704,55.54876871574301,14.983003332638248,147.2703980467228,87.13103921397295,123.12872807481487,130.58463277267435,217.91524061857567,220.60728892907343
3.5702369035702373,70.38064296133808,25.374420996373143,147.66935687566985,87.13232580861091,123.94704214951264,130.0965508123373,216.7797967606718,221.1602684269138
3.603603603603604,85.96617954920595,35.214112292034635,148.06779259053775,87.71929858966776,124.76154355966268,129.5713500447434,215.63959752449296,221.6921869090517
3.6369703036369705,102.14754116823528,44.695513964679385,148.40725675498155,89.186034426192,125.7350200695182,129.25529571211294,214.28465646323684,222.085086029714
3.670337003670337,119.04374769961755,53.56405682970784,148.48263422059478,91.17485361010937,126.73880043512236,128.89416992765376,212.93899840911195,222.24929305763143
3.703703703703704,136.23734679683594,61.66060006260239,148.51245694205102,93.1258581269441,127.69575754049636,128.66216627485863,211.7064902853594,222.1309564685272
3.737070403737071,153.1922636799702,69.07519128014061,148.53337903135483,95.30600755132848,128.6148616004886,128.61076842908582,210.46216201823825,221.7310716502363
3.770437103770437,170.0102458152138,75.6541725748557,148.68231893205197,97.88574848477386,129.49205740350394,128.76525242623495,209.2396032462035,221.15393528437727
3.803803803803804,186.6191688882828,81.53477367919062,148.95285636515356,100.70693606669298,130.26423836611062,129.03848462135656,207.9814230306657,220.41653792601892
3.8371705038371706,202.5834679137056,87.15714505636434,149.22635580068192,105.5862546626326,131.001044233113,129.52304977894914,206.6520578853818,219.40174622854929
3.8705372038705375,218.0725913121168,91.87775866721285,149.3948023116693,110.81622076093848,131.6862652996336,130.03781270954218,205.2712189945943,218.2327728039199
3.903903903903904,232.6283662422917,96.35326845162098,148.5194799657614,116.63478270645788,132.32873977272556,130.55972528283203,203.93390176725765,216.8337970574605
3.937270603937271,246.13072755720145,99.8087315050044,148.03569818162268,121.0222256006194,132.90152153794503,131.12324237733324,202.60233948197825,215.293807256822
