Time,Left Shoulder Angle,Right Shoulder Angle,Left Elbow Angle,Right Elbow Angle,Left Hip Angle,Right Hip Angle,Left Knee Angle,Right Knee Angle
0.0,16.473778255767307,26.730352926842706,150.50507269636304,166.21964601629463,130.85883448252784,131.90526072317624,193.0366628147713,199.34254350726863
0.0333667000333667,15.987588365978494,26.945355137295213,149.2235981308637,166.11940019991212,131.15012334545258,131.71186326954722,192.7673572956984,199.0639377649354
0.0667334000667334,15.55933241280042,27.11705618881217,148.118668046117,166.03976214518727,131.4237534506996,131.5274553499935,192.51143317378484,198.8414934467104
0.1001001001001001,15.18604480946546,27.248871613736007,147.18125002942318,165.98021421310185,131.6803774242042,131.35124756159283,192.2696282142396,198.6723100291979
0.1334668001334668,14.86475996920598,27.344216944409105,146.40231166808255,165.94023876463768,131.92064789190172,131.18245050142315,192.0426801822716,198.5534869890022
0.1668335001668335,14.59251230525435,27.40650771317388,145.7728205493955,165.91931816077664,132.14521747972748,131.02027476656227,191.83132684308995,198.48212380272764
0.2002002002002002,14.366336230842943,27.43915945237273,145.28374426066233,165.91693476250046,132.3547388136168,130.863930954088,191.63630596190373,198.45531994697845
0.2335669002335669,14.183266159204136,27.445587694348067,144.9260503891834,165.93257093079103,132.549864519505,130.71262966107824,191.4583553039219,198.47017489835892
0.2669336002669336,14.040336503570291,27.42920797144229,144.69070652225895,165.96570902663012,132.7312472233274,130.56558148461076,191.29821263435352,198.5237881334735
0.3003003003003003,13.934581677173783,27.39343581599782,144.56868024718943,166.01583141099954,132.8995395510194,130.42199702176347,191.15661571840764,198.61325912892625
0.333667000333667,13.863036093246984,27.34168676035704,144.5509391512751,166.08242044488114,133.05539412851618,130.28108686961417,191.0343023212932,198.7356873613216
0.3670337003670337,13.82273416502226,27.27737633686237,144.62845082181627,166.16495848925672,133.1994635817532,130.1420616252407,190.9320102082193,198.88817230726377
0.4004004004004004,13.810710305731993,27.203920077856218,144.79218284611335,166.26292790510809,133.33240053666572,130.0041318857209,190.85047714439503,199.06781344335712
0.4337671004337671,13.82399892860854,27.124733515680976,145.0331028114666,166.3758110534171,133.45485761918906,129.86650824813265,190.7904408950293,199.2717102462059
0.4671338004671338,13.85963444688428,27.04323218267906,145.34217830517636,166.5030902951655,133.56748745525857,129.72840130955373,190.7526392253312,199.4969621924144
0.5005005005005005,13.914651273791582,26.96283161119287,145.710376914543,166.64424799133516,133.67094267080955,129.58902166706204,190.73780990050977,199.7406687585869
0.5338672005338673,13.98608382256282,26.88694733356481,146.1286662268668,166.79876650290788,133.76587589177737,129.4475799177354,190.746690685774,199.99992942132772
0.5672339005672339,14.070966506430484,26.818994882137503,146.5880138294493,166.96612819086675,133.85293974409828,129.30328665865267,190.78001934633448,200.2718436572429
0.6006006006006006,14.229160752015382,26.90591091324741,147.3190800082601,167.26482205646894,134.02155863920078,129.14273385019192,190.85639569539643,200.5794299188456
0.6339673006339673,14.293988044874046,27.06366830772681,147.7965308858838,167.53151506837327,134.14645986017408,128.89194943942553,191.00610195799567,200.9997032377072
0.6673340006673341,14.358116631307562,27.265689512488382,148.21350869332096,167.82227410562274,134.2488883284917,128.587013050889,191.1762232257756,201.44389474799937
0.7007007007007008,14.276686552846629,27.412683609939343,148.29871189338795,168.07135614939008,134.29325763785835,128.2909290679617,191.37366513026788,201.8279702256866
0.7340674007340674,14.194789382956836,27.48513821946201,148.34830728871705,168.26696239938678,134.30928858513283,128.0349772723791,191.5979997467657,202.15400048034743
0.7674341007674341,14.165989774896945,27.62236374010877,148.51683260868043,168.47786106384848,134.44859922742137,127.78118184500596,191.7008968914752,202.4091471414984
0.8008008008008008,14.16790325791989,27.698717571515008,148.7132189311275,168.69079492684588,134.56348260401734,127.57942137189562,191.80512010777764,202.6057522839995
0.8341675008341676,14.17155891084428,27.683566894275195,148.86284220416945,168.7635632944653,134.67044100705857,127.39747749790294,191.8006611795947,202.7346267438276
0.8675342008675342,14.23540009629646,27.57731225494509,149.10096330591364,168.8130473530844,134.68191629399303,127.26291417670242,191.9297678320252,202.8157305114743
0.9009009009009008,14.510741586955092,27.42033977421267,149.7299355135534,168.75486367414194,134.6566108828877,127.0925181753583,192.0307244780304,202.8500735953904
0.9342676009342676,14.89053774244252,27.24845840215897,150.53900869450612,168.73657741696226,134.58570694317353,126.9893835167237,192.14808539775424,202.83318224374923
0.9676343009676344,15.191068697948944,27.163954454773737,151.32158043940836,168.84342963467137,134.57015134353998,126.8423422799799,192.2602614641992,202.86691506809845
1.001001001001001,15.487793863774549,27.13357688111968,152.2294733924418,169.05944323185466,134.50021174839833,126.7937440156114,192.60878349268305,202.8166922479324
1.0343677010343677,15.811015425173794,27.217086195077936,153.30401142754488,169.50201672034535,134.39964509819353,126.8000294397065,193.09388820182852,202.7062576356552
1.0677344010677343,16.236450250715226,27.29474263774838,154.5565615713359,169.97225637313437,134.1998981372484,126.94323291476172,193.7570132504096,202.5008901542888
1.1011011011011012,16.671081474094095,27.43483160310428,155.9080861725062,170.5858956743031,134.00401686553434,127.17863009313112,194.65110124878933,202.1763570164959
1.1344678011344678,17.09617835509096,27.557940046886067,157.37821624896543,171.13322768338827,133.77837503897854,127.49805681606398,195.6489188104448,201.77834056296024
1.1678345011678346,17.529293426845555,27.70569680629634,158.8458112506317,171.63184365267537,133.64362795295352,127.96115620241872,196.4312200926325,201.1932589902553
1.2012012012012012,18.023410367588458,27.7958048870396,160.4279169153777,172.01223636417723,133.42798691936602,128.52229569809376,197.26382684941584,200.57364989990631
1.234567901234568,18.58023392925356,27.905996853880595,161.99875010952542,172.44100512285848,133.15840438657057,129.8769729190116,198.15172938541292,199.0690200718036
1.267934601267935,19.10821311433646,27.904419170371227,163.47263097074227,172.70520672186532,132.58862067869669,131.56479791349102,199.3631567746494,197.34777473902693
1.3013013013013013,19.74569087742272,27.83411850328689,165.16920558761325,172.87845466257048,132.09010102082414,131.6912734387464,200.49195392689683,197.72215908890087
1.334668001334668,20.43616624874435,27.61694472997842,167.11361027038308,172.8178169032745,131.590397212343,131.69142705636125,201.5806168745547,198.3228500047027
1.3680347013680347,21.13535059647502,27.340191686417903,169.00298791196204,172.64412263265444,131.1179793578764,131.76323662732844,202.6456468007624,198.83011303876427
1.4014014014014016,21.837627233968107,26.956997357998628,170.98227824648188,172.3407998880713,130.70694285651922,131.94427276669566,203.567443771333,199.19729512845308
1.4347681014347682,22.528909883359404,26.51607011624272,172.8859162546351,171.77684643704762,130.3412053437449,132.23407543442988,204.3520965335276,199.43246596374132
1.4681348014681348,23.07805280278124,25.94457083273669,174.8268924289585,171.06811088061627,129.99162112162568,132.6055821058903,205.0844068187314,199.56218964691976
1.5015015015015016,23.43287602247433,25.30108340626189,176.3809470272926,169.94451601756822,129.60921875794625,133.0211328337585,205.90664089422287,199.62754441603803
1.5348682015348682,23.68176296086811,24.58902970576121,178.00102114643096,168.8399759836033,129.2119178184206,133.4333742199441,206.74203355881951,199.70366048496896
1.5682349015682349,23.995827393401747,23.85516901953129,179.74225331581798,167.7793889941324,128.85792937791993,133.8884086790461,207.54746791241348,199.74868830893627
1.6016016016016017,24.131214181859693,23.09285009498298,181.53395073075745,166.71492583472644,128.4891404520934,134.37464772835597,208.32370026376617,199.76985923531413
1.6349683016349683,23.595657974132987,22.338984637095937,183.67775229450737,165.54891487545854,128.1230966719829,134.86871624816106,209.063344444657,199.7814043278548
1.6683350016683351,22.798682393561684,21.425406684562127,185.61068950447708,164.355218103924,127.749222415332,135.3591185105285,209.75648511448983,199.78363857029063
1.7017017017017018,21.75551308446773,19.90953150523509,187.97044980592463,163.7896564930843,127.43168108216862,135.88558779733475,210.34930688143191,199.76251911903057
1.7350684017350684,20.74961329730081,18.379654506112526,189.9326058991537,163.25557622395397,127.0990149482582,136.40017817505628,210.8800114698084,199.7462623569878
1.7684351017684352,19.63260716183067,16.678292653780954,190.07229031634537,162.8212678651812,126.66370215466182,136.86246695922284,211.32346653629764,199.7572197497427
1.8018018018018016,18.83475586682743,15.150736354342476,189.4546504013666,162.04522626338957,126.23385812285584,137.31449421437776,211.60884628627483,199.64371421364456
1.8351685018351689,17.682378322012475,13.106153326566524,190.5310281533056,163.510185410839,125.81334035825964,137.7860153753601,211.80971487284427,199.4858554325451
1.8685352018685355,16.731559742442116,11.379728062421249,191.41094971553463,164.22753344291033,125.49657358156864,138.22177668649758,211.86107759359547,199.3017024225823
1.901901901901902,16.200027469073312,10.507917560411572,192.42201235308087,163.88524342669757,125.2454121482833,138.60617469109965,211.8010140773966,199.08393706275376
1.9352686019352687,15.889911041056823,10.014207738937658,192.87821402256105,162.3871156476185,124.89196319136568,138.97996854018243,211.80532552874635,198.85181819174045
1.968635301968636,15.988906979044062,9.188910648641682,193.46148045220053,160.40614691847836,124.4896298174914,139.31275569924537,211.8179046720105,198.62282769174035
2.002002002002002,15.840738450016485,8.800270495606263,193.4726729207396,157.63353930734505,124.03062368389952,139.62483955039673,211.9711639126663,198.367823405716
2.035368702035369,15.93887226212766,9.132290966633606,192.42806996170413,154.14895059420851,123.60114728410326,139.94486903345782,212.06243705546908,198.07302320906987
2.0687354020687354,15.79266035967172,9.854789411868198,190.1128763842381,150.2518076193441,123.2575867389536,140.36857632008403,212.23288362859256,197.72671986087383
2.1021021021021022,14.46318344619494,11.05276533785562,186.28516701130744,146.0485511291762,122.92499468487163,140.82780501824013,212.53536129551867,197.34468333155675
2.135468802135469,13.022561263682482,12.452192974458194,181.95780670756736,141.61850758804377,122.58736121538936,141.37952192255506,212.99141073999792,196.7928943097935
2.1688355021688355,12.08435787580378,12.500513923040224,177.85543679829598,137.3025250132974,122.34185112669076,141.93785961892544,213.4282611396401,196.15344428465696
2.2022022022022023,11.10628849489191,4.544013935855032,173.00732988435345,129.6970358253511,122.2990787850867,142.53347067857663,213.90739564992265,195.41045253332703
2.235568902235569,0.9549150674452408,4.544013935855032,167.63020535989412,124.98880108170658,122.34130714559906,143.1264115705209,214.4075399291532,194.59800750168893
2.2689356022689355,0.9549150674452408,4.544013935855032,162.12835121934697,120.6755495520742,122.39337239888674,143.73785370680864,214.7476370104532,193.77911511219668
2.3023023023023024,0.9549150674452408,4.544013935855032,156.76774485962824,117.55638562389412,122.43098986280192,144.33559370571322,214.9998509854348,192.94708287661828
2.335669002335669,0.9549150674452408,4.544013935855032,151.7297990521573,112.12411332023862,122.29643089650926,144.83635460632385,215.53642942613465,192.30420803444468
2.369035702369036,0.9549150674452408,4.544013935855032,147.13277941657842,106.15211774649453,122.1236453578226,145.27065617434144,216.13873012487048,191.7789461692836
2.4024024024024024,0.9549150674452408,4.544013935855032,143.1075953261025,100.16242929445418,121.90124617580868,144.6805241540679,216.7986436171786,192.5463791323848
2.4357691024357693,0.9549150674452408,4.544013935855032,139.32535444375415,94.28036852406056,121.91066192680428,143.1179228012953,217.13203117872143,194.4230175486921
2.469135802469136,0.9549150674452408,4.544013935855032,135.7832494803892,88.5833259887116,121.87208012237116,142.71199413329384,217.44836540409165,194.74109770727603
2.5025025025025025,0.9549150674452408,4.544013935855032,132.56033368383845,83.05411963113237,121.838067228273,142.487324430639,217.6986385149119,194.76072016222992
2.5358692025358693,0.9549150674452408,4.544013935855032,129.84739151060646,77.58598387775137,121.8241284110341,142.2781375467151,217.90360688669824,194.74402610961047
2.569235902569236,0.9549150674452408,4.544013935855032,127.79069332085926,72.74489344698198,121.7771785814348,142.07287993100388,218.20209278443951,194.72489138992992
2.6026026026026026,0.9549150674452408,4.544013935855032,126.39213050812856,68.26853044979005,121.63171721714906,141.88082060594053,218.5915632263853,194.71501601041865
2.6359693026359694,0.9549150674452408,-0.0145924984135774,125.75589974544005,64.0615169999354,121.4313997522694,141.68385681417638,219.0234460143644,194.74202771790044
2.669336002669336,-5.617871437092649,-1.6581149614028563,125.90414196904167,60.527699009725126,121.19947796848204,141.48549756924504,219.42069524335488,194.82204836656555
2.702702702702702,-8.878614458611201,7.092464723344909,126.73370920540016,57.63648480546252,120.97741019673208,141.33482538751556,219.76954224056453,194.809812673155
2.736069402736069,-9.116827520612,15.996513841746026,128.0930931679074,55.32907665879127,120.7063675324202,141.19363825141298,220.10601068392847,194.78025801310707
2.7694361027694363,-6.74556767494645,25.047194073336414,130.18420269131352,53.62931114601621,120.44145039480696,141.02630607843366,220.3958727481876,194.81894889730225
2.802802802802803,-1.8806023218649888,33.80304662474095,132.5025758843552,52.769663766512274,120.08488824118676,140.82950256921538,220.71419363122263,194.95029447951288
2.836169502836169,5.534528748277036,42.12760719804599,134.881306631412,51.08460981278253,119.59111639416196,140.66489991489038,221.063607374818,195.10398035142532
2.8695362028695364,5.534528748277036,50.042248372256,136.86476916307652,50.2581084515881,118.92007689945946,140.42147873693892,221.47015440466475,195.34821201189897
2.902902902902903,5.534528748277036,57.41815011959903,139.0350700723906,50.77182463886777,117.91337605120142,140.15289344811347,221.99909836921825,195.55636646619843
2.9362696029362696,5.534528748277036,64.16007530557667,143.03390139859036,51.71020699533548,116.82697677631508,139.82164077563192,222.59925959341385,195.83327275196064
2.9696363029696364,5.534528748277036,70.52090663569572,146.3962849689146,53.33528266632421,115.75608727601656,139.44154753212123,223.22554928300465,196.15178739648485
3.003003003003004,5.534528748277036,76.09871780774255,148.81069144921287,52.57437780357458,114.72544666826111,138.94469301730544,223.8485264843368,196.53011906468907
3.0363697030363697,5.534528748277036,80.84161944607796,152.3246370465137,49.983529966031256,113.75135435854466,138.4198280028489,224.768447666118,196.99526970501063
3.0697364030697365,5.534528748277036,84.61264797877519,155.39602534353492,48.39685924235624,112.96195661107517,137.88990640866052,225.57982698388088,197.54840027155012
3.103103103103104,5.534528748277036,87.5757607705445,158.02379605295334,47.35372813161823,112.20492577055616,137.70861634167616,226.1996922960553,197.9710692110337
3.1364698031364697,15.032173537240777,89.54626962990466,159.10073452378705,46.96208694233248,111.56940092076914,137.5256151029566,226.66061120359464,198.4443883058923
3.169836503169837,26.333866895200472,90.50492745535112,159.38757360761142,47.32104276338757,111.01529393552153,136.95867491883567,227.14883251122328,199.1332691697853
3.2032032032032034,39.22873127168842,90.45049022412316,159.48245603088284,48.52968274612567,110.72007520077672,136.26100202261242,227.4693156839503,199.886777937528
3.2365699032365702,53.22684518705646,88.64447410795545,159.147984640892,50.43987583703673,110.74471290575846,135.59476150451053,227.4640735532335,200.5838980613714
3.2699366032699366,68.23270663758443,86.48488612950578,159.36435945686313,52.92397693204957,111.03155200576276,134.91955419071962,227.2238363491837,201.3255360454958
3.3033033033033035,83.80445477677353,85.55595183044433,159.98963401373945,55.804658452097726,111.86444559118203,134.33248227833903,226.0723859489485,202.10520646561463
3.3366700033366703,100.1561178725046,84.18592729756111,160.11003549133068,58.60161677535561,112.6920229720089,133.74902087857888,225.0015610642164,202.91049655082423
3.3700367033700367,116.99422597594274,81.0967880646619,161.62469418780046,65.29595021796221,113.07272730146964,132.9502523647322,224.34061508992332,203.89544080035463
3.4034034034034035,133.9446334151274,77.90114647971448,163.5385446574141,70.15935478484195,113.5133482728966,132.00684244551326,223.72555817848607,204.98304657755617
3.4367701034367704,150.76122294277596,74.54933067613572,165.69200596228163,74.58373806033445,114.19992328952942,131.10369107946406,222.8186666674984,206.0682256943793
3.4701368034701368,168.00219831727034,70.14996125690863,167.27542956676416,77.08267400655016,115.0465809165932,130.2193199532594,221.6116725426652,207.11380778592945
3.503503503503504,185.03994326850372,64.65574484660516,170.08186365724688,81.12812569754303,115.87240567011202,129.4068304138047,220.5522511145827,208.1683239082476
3.5368702035368704,211.892417901184,59.04603542989118,172.60647723777942,87.16950647485237,116.79391670295227,128.57103127373014,219.5231208216237,209.1940400612326
3.5702369035702373,235.94456167676185,52.74299910199474,174.42426268072532,94.67524862419498,117.79777801259112,127.5417183953968,218.3148406758802,210.48769280989825
3.603603603603604,256.71863042465407,45.374891797538055,175.528746754413,102.01624187609818,118.98054844029382,126.48990183429572,216.8558106501047,211.64422294188856
3.6369703036369705,273.7374945468082,37.0203899045289,176.0186627400927,109.05759741449847,120.151193778122,125.5920194793453,215.5559614379385,212.5724351051384
3.670337003670337,287.3284581722436,27.67766273279425,175.4083457861806,114.9293757483885,121.41356273063772,124.82503397076958,214.2024877710932,213.27104464928
3.703703703703704,297.75416773255216,17.439486901934185,174.7285241222394,119.20421459226571,122.68553666089502,124.2434153927413,212.7754493283944,213.77921843935948
3.737070403737071,304.0466066198812,8.284103385685027,173.12065999853223,121.49839495879402,123.982411815003,123.82521638015396,211.17734126721544,214.00605374330823
3.770437103770437,305.887875669375,9.94301480544844,170.74979411505274,121.70660302223,125.25893934191596,123.48439725462048,209.52275894492664,214.0136313094819
3.803803803803804,303.21985084230573,14.06610964294266,167.16469995809354,121.25941878082234,126.51131449297212,123.22772129332454,207.85748668719648,213.7326080761228
3.8371705038371706,296.29856442937967,20.722011060544183,163.43875310784966,119.20029158819004,127.6790406050043,122.94762824242676,206.18423957321087,213.2539045532808
3.8705372038705375,285.32556880045377,19.967424726021733,159.1791805637723,116.24872653155008,128.7500202973016,122.72041186452512,204.57785408275825,212.60953235837616
3.903903903903904,270.3122352967876,19.06275512772183,155.35915569788563,111.8277482344814,129.71531020853885,122.53160372106548,203.0445900542198,211.76802596227225
3.937270603937271,252.91986656428875,18.189238773620666,150.9463899957779,106.85798516508125,130.55652604444225,122.5331389256468,201.57054401484984,210.64885969213208
