Time,Left Shoulder Angle,Right Shoulder Angle,Left Elbow Angle,Right Elbow Angle,Left Hip Angle,Right Hip Angle,Left Knee Angle,Right Knee Angle
0.0,21.061792348720992,18.37479383556582,169.8699389961652,135.30913347252567,121.24870009888902,127.79762641002488,211.89783215141813,221.27948511631567
0.0333667000333667,24.611692940158385,14.701060820418585,178.6739853561692,134.42907928077963,120.66993993174066,128.38007658178788,212.24123084504072,220.0337201302584
0.0667334000667334,26.68829542870372,11.566897004016615,185.7967601899121,133.21429607324788,120.1272814884436,128.9265717436316,212.59988120703747,218.9021810610752
0.1001001001001001,27.466808648136773,8.945353453686426,191.34751009507937,131.6876256280226,119.62014424048348,129.4390271802771,212.97212440211152,217.8775911644653
0.1334668001334668,27.122441432237324,6.809481236754529,195.4354816693564,129.87190972319598,119.14794765934587,129.91935817644531,213.3563015949659,216.9526736961281
0.1668335001668335,25.83040261478515,5.132331420547434,198.16992151042848,127.78999013686013,118.71011121651637,130.3694800168574,213.75075395030385,216.1201519117627
0.2002002002002002,23.76590102956004,3.886955072391654,199.66007621598112,125.46470864710724,118.30605438348051,130.79130798623436,214.1538226328284,215.3727490670684
0.2335669002335669,21.104145510341752,3.046403259613699,200.0151923836997,122.91890703202944,117.93519663172398,131.18675736929725,214.5638488072426,214.7031884177445
0.2669336002669336,18.02034489091009,2.583727049540084,199.34451661126968,120.17542706971896,117.59695743273232,131.55774345076705,214.9791736382497,214.1041932194903
0.3003003003003003,14.68970800504482,2.4719775094973144,197.7572954963764,117.2571105382679,117.2907562579911,131.90618151536486,215.3981382905528,213.56848672800496
0.333667000333667,11.287443686525704,2.4719775094973144,195.3627756367053,114.18679921576845,117.01601257898596,132.2339868478117,215.81908392885484,213.0887921989878
0.3670337003670337,7.988760769132551,2.4719775094973144,192.27020362994173,110.98733488031274,116.77214586720248,132.5430747328286,216.2403517178592,212.65783288813805
0.4004004004004004,4.968868086645124,2.4719775094973144,188.5888260737712,107.681559309993,116.55857559412622,132.8353604551366,216.66028282226875,212.268332051155
0.4337671004337671,2.402974472843205,2.4719775094973144,184.42788956587904,104.29231428290132,116.3747212312428,133.11275929945674,217.0772184067867,211.9130129437379
0.4671338004671338,0.4662887615065756,2.4719775094973144,179.89664070395065,100.8424415771299,116.2200022500378,133.3771865505101,217.4894996361162,211.584598821586
0.5005005005005005,0.4662887615065756,2.4719775094973144,175.10432608567152,97.35478297077093,116.09383812199684,133.63055749301762,217.89546767496032,211.2758129403986
0.5338672005338673,0.4662887615065756,2.4719775094973144,170.16019230872698,93.85218024191649,115.99564831860548,133.87478741170045,218.2934636880222,210.9793785558749
0.5672339005672339,0.4662887615065756,2.4719775094973144,165.17348597080382,90.35747516865972,115.92485231135024,134.11179159128068,218.68182884000657,210.688018923716
0.6006006006006006,0.4662887615065756,2.4719775094973144,161.77424081580656,86.33329087753016,115.9931585575009,134.47255584186303,218.9884018816948,210.1769335800068
0.6339673006339673,0.4662887615065756,2.4719775094973144,158.53551575189087,82.49716284572378,116.00944069175829,134.80139231350924,219.3482908595089,209.6477703619869
0.6673340006673341,0.4662887615065756,2.4719775094973144,155.26508647183925,79.94693548558253,116.01440878396296,135.0750612169871,219.6971543019531,209.19273641559943
0.7007007007007008,0.4662887615065756,2.4719775094973144,152.3696806682574,78.28746219204531,116.05704430940662,135.30972098743985,220.0037683710796,208.78003070601
0.7340674007340674,0.4662887615065756,2.4719775094973144,149.68929217899122,76.78141126576193,116.13118129603605,135.50493590843658,220.2718891370059,208.43276146420817
0.7674341007674341,0.4662887615065756,2.4719775094973144,147.62781386013586,74.17965460143205,116.19111747438347,135.70672478313298,220.568823723261,208.0333698505504
0.8008008008008008,0.4662887615065756,2.4719775094973144,146.09735770544364,71.41607246092303,116.27940950445182,135.92740319742168,220.85398786139115,207.5521902235224
0.8341675008341676,0.4662887615065756,2.4719775094973144,144.84263676603496,67.98679514025747,116.38827801481082,136.17281129251086,221.12722146857868,207.01382111579167
0.8675342008675342,0.4662887615065756,2.4719775094973144,143.71991138737977,64.81247527130569,116.49486422143598,136.42902577800842,221.4104367428568,206.43411273750365
0.9009009009009008,0.4662887615065756,2.4719775094973144,143.61381735929933,62.10541432902587,116.6005402311279,136.67024997280777,221.65646659594748,205.84279497439863
0.9342676009342676,0.4662887615065756,2.4719775094973144,143.9544287044592,59.4492078372023,116.6824536969674,136.8605962965711,221.9612046590153,205.27461111664724
0.9676343009676344,0.4662887615065756,2.4719775094973144,145.15406343808127,57.14758946012695,116.76270545897104,137.00938037181936,222.2528478874713,204.73612160704303
1.001001001001001,0.4662887615065756,2.4719775094973144,147.35463805071606,54.98124999603175,116.85880902260044,137.14062784513484,222.47789255676864,204.20325715319427
1.0343677010343677,0.4662887615065756,2.4719775094973144,150.70457251461482,53.30176093054772,117.01190074692327,137.28159335094838,222.5989070431683,203.6590756392299
1.0677344010677343,0.4662887615065756,2.4719775094973144,154.88672031662657,52.8807817076237,117.21312990288764,137.44783773885237,222.64121624675272,203.11342101135736
1.1011011011011012,0.4662887615065756,2.4719775094973144,155.82696724649057,51.303717170742615,117.44789894142367,137.5787317314239,222.63103915484825,202.59558653352968
1.1344678011344678,0.4662887615065756,2.4719775094973144,157.07784506215864,50.7239325621441,117.75423539526368,137.71385299313295,222.45747946684696,202.05878285524145
1.1678345011678346,0.4662887615065756,2.4719775094973144,158.47561362253694,50.65001650227986,118.03056638601863,137.82054723202168,222.2436869997772,201.55043579959096
1.2012012012012012,0.4662887615065756,2.4719775094973144,160.09203056333763,49.97203489005182,118.30934418070828,137.97461691736257,221.9616700391836,200.93254427279984
1.234567901234568,0.4662887615065756,2.4719775094973144,161.3935285425261,49.49631526245769,118.58933768488004,138.09564854424124,221.59805234820973,200.36644106634063
1.267934601267935,0.4662887615065756,2.4719775094973144,159.98852966747734,51.18282094831875,118.85095486645416,138.1471662235823,221.14402841823608,199.91057282189
1.3013013013013013,0.4662887615065756,2.4719775094973144,158.9572156106008,52.33352564125722,119.04567716714163,138.12822012595225,220.7108741262683,199.5516747030456
1.334668001334668,0.4662887615065756,2.4719775094973144,158.03130291015074,53.72650532833428,119.20591893950838,138.01129997757474,220.2515537945518,199.23301167280067
1.3680347013680347,0.4662887615065756,2.4719775094973144,158.26458436920328,58.34782503672172,119.38626190864458,137.8482826137423,219.7068406902636,198.98859036791973
1.4014014014014016,0.4662887615065756,2.4719775094973144,159.22201817811904,62.9919574524487,119.3563484774518,137.61159292647048,219.44140849885665,198.9490213157277
1.4347681014347682,-0.6659802135849873,2.4719775094973144,159.78048336958236,67.28143029445422,119.3417991865982,137.30234909729336,219.0809799112168,199.04448314077723
1.4681348014681348,-0.8186236186517206,2.4719775094973144,160.6928975174098,70.74712460416018,119.3626700116215,136.99154476150716,218.5232278010427,199.2120307607705
1.5015015015015016,0.1835673800854804,2.4719775094973144,161.3932048450269,71.88356506167004,119.46774031599844,136.68536423504744,217.8163686884784,199.4216975634025
1.5348682015348682,7.244465634913346,2.4719775094973144,162.0005021714168,70.32460919002702,119.52900752873228,136.56066499570943,217.21355652108195,199.61344805146
1.5682349015682349,16.392510627058634,2.4719775094973144,163.06397224247115,69.44815670821512,119.75216499159806,136.48604120841372,216.40617960715247,199.71437865894143
1.6016016016016017,27.467045355809063,2.4719775094973144,164.33265502457212,71.51656665640006,120.13869745469472,136.47805507691626,215.2113275475036,199.74218986269503
1.6349683016349683,40.21086574790517,2.4719775094973144,165.80375728698004,73.94099463406536,120.70885118707972,136.3986171518356,213.7954033316912,199.7549283994816
1.6683350016683351,54.40877587760925,2.4719775094973144,167.71305807976296,75.89528068690592,121.44015112479148,136.23285469620447,212.2155426345396,199.8107258811854
1.7017017017017018,69.7922059013647,2.4719775094973144,169.6457770468455,78.72436086139196,122.29828795903924,136.01526221334757,210.5491209274112,199.87196262185265
1.7350684017350684,86.1365860093851,2.4719775094973144,171.61928286212606,81.42587230037942,123.26637933628643,135.81471366224065,208.8100807321105,199.87933154772333
1.7684351017684352,103.1527179890656,2.4719775094973144,173.26784668054046,84.95591092552,124.267319752657,135.56421395679536,207.0985596872559,199.9006693308013
1.8018018018018016,120.7582032925792,2.4719775094973144,175.01742101571966,89.05549253495255,125.17214550755035,135.1774554280668,205.3692138978424,199.9700995679032
1.8351685018351689,138.67601240642148,2.4719775094973144,176.6782889450262,92.79342729686472,126.0914162914773,134.83445713053987,203.6921787220557,199.9971056675141
1.8685352018685355,156.71299624017374,2.4719775094973144,178.1725347022428,95.76241589601632,127.04483227739544,134.75451668213014,202.00865709334727,199.8783420994382
1.901901901901902,174.2624842778194,2.4719775094973144,180.01939307758153,98.39439187867524,127.9901684620408,134.7551055672579,200.4182250759666,199.7045130961137
1.9352686019352687,191.25482651317972,2.4719775094973144,182.59120023998508,106.78912655825248,128.85447698229032,134.8320943878629,198.9809212049052,199.49353755360693
1.968635301968636,207.50759119812184,2.4719775094973144,184.02014313911124,113.1281352784034,129.65586005939113,134.8588332326167,197.69161101183056,199.3322606726318
2.002002002002002,222.9771966966971,2.4719775094973144,185.29072336028923,119.82220799376564,130.25765836288707,134.84060898322917,196.46875230598857,199.20034816426187
2.035368702035369,237.71715146510283,2.4719775094973144,185.2924602250376,124.39414638380131,130.8706028345755,134.79318661108596,195.5440484299244,199.064419399986
2.0687354020687354,251.14887355963936,2.4719775094973144,184.470617456016,125.98521974030504,131.41244943852746,134.70637634895047,194.8170377226736,198.97909858945567
2.1021021021021022,263.442812056638,2.4719775094973144,183.2430668216576,124.49000465381692,132.00658369895208,134.6065898744692,194.0724131982031,198.94358169292653
2.135468802135469,284.1210677207587,2.4719775094973144,181.7172147687808,125.08246190667208,132.62433864233873,134.50147283266244,193.6619679055841,198.9426152959299
2.1688355021688355,300.7333869908195,2.4719775094973144,178.41129002637942,125.79752315365243,133.2410332794423,134.34345833422802,193.40091449091165,198.98030749514336
2.2022022022022023,313.44113482655246,2.4719775094973144,175.28383884824257,124.34948816599407,133.85471919629612,134.1984465811763,193.1780014395117,198.94382746714663
2.235568902235569,321.9256962617312,2.4719775094973144,171.40360900283065,124.45277712145504,134.48403271507678,134.01910076041108,192.93460029032315,198.902542951114
2.2689356022689355,326.5013294649383,2.4719775094973144,166.40993648964383,125.32030534269197,135.11756355891112,133.86326067144722,192.662259679691,198.82844081517817
2.3023023023023024,326.66379553712244,2.4719775094973144,160.27918717773153,125.36523985224812,135.70749533419954,133.66115702150992,192.47038085052927,198.80548984095265
2.335669002335669,321.44645450760265,2.6842057068119054,152.81478069501304,124.2520271712302,136.2696794266445,133.38157797406387,192.1315534280691,198.89223196084995
2.369035702369036,311.80317776966444,3.193462708810376,143.89356727197696,119.75643955038144,136.79286532569995,132.9617287602152,191.8672412520816,199.22221590486416
2.4024024024024024,297.56300154658345,3.9727995828192206,134.3680337044411,120.05911144205044,137.20242441381382,132.4383059593344,191.7365849924204,199.73912073328884
2.4357691024357693,279.0369816487336,4.995267396164966,127.32202431384546,118.79076161677402,137.54492178493675,131.89966639443577,191.70544285966665,200.3136526782904
2.469135802469136,256.1889214635286,6.23391721617412,120.39013117651552,116.42741935272896,137.86220394023002,131.35071549563088,191.82343564007124,200.9599976792962
2.5025025025025025,242.1476165060621,7.661800110173182,113.73544094592836,113.00629259250432,138.18070339512795,130.86948416721117,192.0617231038116,201.71705046766405
2.5358692025358693,227.39303963926585,9.251967145488688,104.70710769793752,109.9502980014191,138.48182431680056,130.4715818638537,192.4496232283097,202.5842317731056
2.569235902569236,212.01335081809805,10.977469389447151,95.2081311783129,106.85828723453992,139.06023693405376,130.2000408011355,192.47066159132376,203.3288839415144
2.6026026026026026,196.32961086381147,12.219881541981918,89.4740463884749,103.06875185641424,139.7102908488661,130.04807042439924,192.48354226234605,204.07443972164864
2.6359693026359694,180.28943287248453,13.57285022767685,84.28809801689674,99.57904144829774,140.47915894892617,129.96122977483947,192.48384482581667,204.6950461415708
2.669336002669336,164.11276809618803,15.084086204382036,81.1782940518263,95.79480566112144,141.36712989613793,129.95084943363324,192.4954095633278,205.20587712622097
2.702702702702702,147.9778820731528,16.75936451465626,77.86485093759887,94.89152323606048,142.54534715562824,129.82507456238315,192.08993884306267,205.6156532445708
2.736069402736069,133.27113353895362,18.634964667156748,73.53507861135533,94.82036208876626,143.8247999660893,129.7010970758243,191.54891127447223,205.964398813598
2.7694361027694363,118.7149554949473,20.41352028389187,69.46278529965089,93.3465619193905,145.17961100575016,129.53054046065165,191.0623532031568,206.20745033180185
2.802802802802803,104.00007859237864,22.164098705093625,65.65687812903981,91.49109458622948,146.55441338521572,129.40191440561682,190.59276500423653,206.37191400796257
2.836169502836169,89.87114748873968,24.15521052635761,61.97299641772835,90.6393998818265,147.91052823038575,129.38392485367726,190.09322795950712,206.28321233128256
2.8695362028695364,75.90364804815181,26.28590552866544,59.0817519695779,90.2718587611144,149.17425024095022,129.46486403181797,189.530552114942,205.9481967244287
2.902902902902903,62.775599924797255,28.50749995425953,56.7153808558074,91.03846227134709,150.31669768763166,129.61197077639025,188.8567275576898,205.42708853710653
2.9362696029362696,50.45840687479244,22.10935722612193,54.88414043938699,92.82126357286266,151.36571009200972,129.85575467776448,188.0686888920856,204.76896430397056
2.9696363029696364,39.25778240709701,18.756706117634977,53.44320415963311,95.76325443641451,152.45165573861814,130.35170927687787,187.19630076358595,203.89030231695605
3.003003003003004,29.484334486526805,17.99509532102997,54.57344783495594,99.32501978223672,153.4639087515724,131.03618521585534,186.2211171729723,202.83778980907115
3.0363697030363697,21.28632636385348,19.57892585352282,55.399098573486086,104.23633083592132,154.35789017716866,131.64689594406772,185.27731159430675,201.73285334825164
3.0697364030697365,14.92254955744374,23.23951265107514,54.13163679832931,110.64918156354092,155.16840695440018,132.2062691533794,184.31640089005325,200.55090122486365
3.103103103103104,10.584100919523694,28.49454553175115,52.13514657478072,111.51502689716088,155.94893719574603,132.749934070143,183.31453838399835,199.2417670513646
3.1364698031364697,8.57856642517165,44.0674473179898,50.78057696934881,112.5991010415028,156.67496085321733,133.38512234933643,182.2930127676804,197.71942626916768
3.169836503169837,8.996968321413723,58.65021840832544,49.01132825566595,111.4364955261797,157.4879014748203,134.08573386006702,181.41894831779047,196.09658458671592
3.2032032032032034,12.043126229215952,72.25518775338591,47.88956505387154,109.24609394985704,158.26063862175948,134.81409502420306,180.39216834694645,194.53416017484727
3.2365699032365702,18.28581994666369,84.5904030313485,47.21150661335544,107.65004908640628,159.05845659375933,135.58659235347852,179.3418070109464,192.8977700143849
3.2699366032699366,27.78170122274123,96.43738809032776,46.58765531043205,108.4045477592487,159.81965583438506,136.3836675671399,178.3945417240141,191.14169954518349
3.3033033033033035,27.804087777943725,106.90497668290531,45.6932405760229,107.11065097642668,160.5342954076953,137.22142840692825,177.20969965238305,189.27086726431423
3.3366700033366703,27.772781097425003,115.72967326438174,46.117152439846905,106.00963314296168,161.20195339711475,138.1325246873589,175.88059763477162,187.37765481134213
3.3700367033700367,27.18128584121291,122.96245979751788,45.88641682613716,107.65837952182716,161.80259338830535,139.06198301975715,174.53322774247476,185.55471936129945
3.4034034034034035,26.35704722409769,128.5177364496491,45.565573072193736,108.18526753399308,162.3323638285438,140.00382650193515,173.17818513256728,183.76316338341988
3.4367701034367704,24.5378991117488,132.95726825808396,45.53635288485661,107.90920104615375,162.77628912418442,140.93564065049736,171.8602655192438,182.0352902857433
3.4701368034701368,22.25016848871096,136.1765534492293,45.63660526123528,107.27710455448684,163.12448246162418,141.8481403611613,170.58278291352184,180.3625917771756
3.503503503503504,20.512770484818,138.32086501391305,46.26215830765201,106.83156621561037,163.39425747253617,142.80754422022898,169.6100738131524,178.69094770499632
3.5368702035368704,18.65082730049244,138.31093461565268,47.39911652447904,111.9958056648347,163.57299374085625,143.76257103573366,168.814860759318,177.0727964373016
3.5702369035702373,17.133571571349094,136.84965252080164,48.414921660395535,114.02942692133216,163.74344336116255,144.77647945902282,168.1578272032156,175.46958982843688
3.603603603603604,15.38651612894283,134.22340169052006,49.59451054794392,115.95722522101175,163.90682547365913,145.82826521982545,167.6922886051633,173.8953403280757
3.6369703036369705,14.297946467894818,130.5066010633531,50.97855047490271,118.67406204435144,164.0652908104196,146.90751296004905,167.3363549535709,172.39099222981187
3.670337003670337,13.410643901254128,125.39874089335626,52.78435979742611,122.0632163548872,164.18856198099306,147.97567190513448,167.1202332861042,171.0496877100525
3.703703703703704,12.91562279933843,119.24752756580904,57.16821626885813,124.3682324108852,164.2664772867377,148.9923968422977,167.04280466759727,169.8095645026023
3.737070403737071,12.829300674405427,111.8733775870667,63.14993862790926,126.47743504543048,164.27439080889616,149.91884567987393,167.15616057476683,168.75782841816113
3.770437103770437,13.149866941985556,104.06161954933744,67.08441192408748,128.48721403480684,164.281266718737,150.75658604860172,167.31216369024676,167.76686339504732
3.803803803803804,13.759440334891227,95.35009040618004,70.65105060888543,130.21484748283663,164.2596013942458,151.50871575531912,167.55674331643917,166.94764603843348
3.8371705038371706,14.880275757482856,86.03445160954844,71.92005354591747,131.70765475280967,164.19508844957312,152.20164927127354,167.82752846198656,166.25943898453377
3.8705372038705375,16.57292529264067,76.02912216631749,72.67750720163315,133.07086121295484,164.10259330572853,152.80740804795337,168.16113925769352,165.72937081502008
3.903903903903904,17.281447523244026,65.34661868107472,74.17132436684244,134.03783336825506,163.97337912937752,153.3399995901755,168.47536836113977,165.27380043372142
