Time,Left Shoulder Angle,Right Shoulder Angle,Left Elbow Angle,Right Elbow Angle,Left Hip Angle,Right Hip Angle,Left Knee Angle,Right Knee Angle
0.0,29.950372169290727,40.721375476991575,156.84067151832662,165.76078118760978,133.67710336531542,123.99968602443892,203.163055147793,212.53639334800144
0.0333667000333667,29.063165791965574,39.897841411711525,155.51375612574435,165.59442918291583,133.90314040193584,124.61761801253247,202.95488867858967,212.16415048955977
0.0667334000667334,28.3096699015346,39.20371909927389,154.4020932838588,165.5403494002599,134.09272364380695,125.14598487390828,202.77581539572952,211.8745041440412
0.1001001001001001,27.68303744393238,38.63002573648418,153.49537566529483,165.58631273808373,134.24693898855514,125.59055519516905,202.62548164112235,211.66115402339813
0.1334668001334668,27.17642136509352,38.16777852014791,152.78329594267737,165.72009009482906,134.36687233380687,125.95709756291744,202.503533756678,211.51779983958343
0.1668335001668335,26.7829746109526,37.807994647070586,152.2555467886313,165.92945236893758,134.45360957718856,126.25138056375624,202.4096180843064,211.4381413045497
0.2002002002002002,26.495850127444204,37.54169131405773,151.90182087578154,166.20217045885107,134.50823661632668,126.4791727842881,202.3433809659172,211.4158781302495
0.2335669002335669,26.308200860502925,37.35988571791485,151.71181087675296,166.52601526301123,134.5318393488476,126.64624281111573,202.30446874342047,211.44471002863543
0.2669336002669336,26.21317975606335,37.253595055447455,151.67520946417045,166.88875767985985,134.5255036723778,126.75835923084178,202.29252775872595,211.51833671166025
0.3003003003003003,26.203939760060067,37.213836523461055,151.78170931065893,167.2781686078386,134.4903154845437,126.82129063006902,202.3072043537435,211.63045789127645
0.333667000333667,26.273633818427665,37.23162731876116,152.02100308884326,167.68201894538927,134.42736068297174,126.84080559540013,202.34814487038287,211.77477327943672
0.3670337003670337,26.41541487710073,37.297984638153295,152.38278347134838,168.08807959095358,134.3377251652883,126.82267271343778,202.4149956505541,211.9449825880937
0.4004004004004004,26.622435882013853,37.40392567844297,152.85674313079917,168.48412144297328,134.2224948291199,126.77266057078472,202.5074030361669,212.1347855292
0.4337671004337671,26.88784977910161,37.54046763643568,153.43257473982052,168.85791539989006,134.0827555720929,126.6965377540436,202.62501336913115,212.3378818147082
0.4671338004671338,27.204809514298617,37.69862770893695,154.09997097103732,169.1972323601457,133.91959329183376,126.60007284981717,202.76747299135667,212.547971156571
0.5005005005005005,27.56646803353944,37.86942309275228,154.8486244970745,169.48984322218192,133.73409388596895,126.48903444470808,202.9344282447533,212.75875326674105
0.5338672005338673,27.96597828275866,38.0438709846872,155.66822799055691,169.72351888444047,133.5273432521248,126.36919112531903,203.12552547123096,212.9639278571709
0.5672339005672339,28.396493207891105,38.21298858154754,156.5484741241107,169.88603024536445,133.30042728792893,126.24631147825386,203.340411012701,213.15719463981492
0.6006006006006006,28.80979758028279,38.34888837034265,157.43091526933227,169.91383931505877,133.0211252801668,126.15397488146589,203.66462548139253,213.3113454921117
0.6339673006339673,29.236943104146068,38.41256333751995,158.41620953619358,169.71142048432847,132.80001438135332,126.10287540009698,203.94262239988453,213.3839224173209
0.6673340006673341,29.73041429620412,38.38851248664727,159.38752240847228,169.2491602146618,132.5322473541973,126.0745679184618,204.1870606208728,213.38141680262228
0.7007007007007008,30.281421924741853,38.29417184537662,160.45563080245952,168.6107773065493,132.20749309783474,126.0634108612422,204.4954080498429,213.35332487259137
0.7340674007340674,30.86710357954156,38.2794178305394,161.5596798703296,168.09323663470818,131.87933629352102,126.06148718888656,204.8821735237097,213.2929126377238
0.7674341007674341,31.42214914972008,38.190522772068405,162.6176477616642,167.43112279793618,131.53914157331198,126.10013942353255,205.27680157773003,213.1816852085012
0.8008008008008008,31.82602935491504,38.11294170302022,163.56492135276886,166.7939048681694,131.18878028056596,126.1691101591974,205.66132025649017,212.99614421863868
0.8341675008341676,32.205809481571016,37.91803682123759,164.5253833944253,165.92277072184345,130.82784608471675,126.31045266038228,206.05547142557512,212.74337208273283
0.8675342008675342,32.49178786366351,37.566291912171096,164.115625806087,164.88596253329288,130.42567491901,126.46900772925912,206.47409047695191,212.4544581942833
0.9009009009009008,32.729884783194194,37.07101073280282,164.25692914814385,163.6321764985551,130.03378612384014,126.66262248035903,206.8913506006625,212.13653708014783
0.9342676009342676,33.08653617650062,36.37427297598302,164.03154165964548,162.09929044271308,129.64729515243303,126.80542763322585,207.32731523213468,211.7907718089881
0.9676343009676344,33.40327859169713,35.566522522251574,163.89007116560674,160.40141947914043,129.24964180902097,126.986034627489,207.7802600966981,211.43546732016543
1.001001001001001,33.80205841769317,34.93070527956169,164.07130876581226,159.32041794355348,128.8268551337533,127.23910985074744,208.2325505754487,211.0798090351525
1.0343677010343677,34.129099281459624,34.24465330112004,165.46447488512902,158.06192081820828,128.38239002804616,127.56366721820228,208.6684489043685,210.7172653441629
1.0677344010677343,34.65791413512883,33.51646158114982,166.8623765004376,156.90323850267856,127.96777311971309,127.9476112944777,209.0585044343536,210.3372007511076
1.1011011011011012,34.953731385104945,32.69654127854824,168.83755355396485,155.47547527510176,127.58662072997772,128.4076695696299,209.3993560615725,209.9394751838728
1.1344678011344678,35.0315788843167,31.768159175390025,174.26130830602293,153.79792575571952,127.24174033637276,128.98000718463058,209.6743079805267,209.49101686383577
1.1678345011678346,34.71223860721083,30.69821081195156,178.77148478841738,151.80244995527096,126.90933379045704,129.59519030908433,209.92674892047296,209.0390077254007
1.2012012012012012,33.970478322669045,29.621764449640786,181.9355519855467,149.7040346001919,126.5585690851162,130.22697971214097,210.17732460659025,208.5956485181069
1.234567901234568,33.11218529273312,28.38640568815361,184.50859289497564,147.26454805890194,126.1727666971948,130.81226883146414,210.45437777963664,208.1996999020705
1.267934601267935,31.99874266527429,27.01215915191272,186.9598529701244,145.13665545712752,125.76203178299076,131.36408425049038,210.7653359018205,207.86398497946777
1.3013013013013013,30.71090759804024,25.5346119904862,188.56330731938976,142.7183402390803,125.33028636971451,131.85567310873438,211.10112436281025,207.6097599244028
1.334668001334668,28.320389387388573,23.53754080041437,188.55070982931812,140.51452096444672,124.95051278639058,132.313863851916,211.44174186293748,207.42783121468145
1.3680347013680347,26.10973061420036,21.421796903631414,188.04906379944512,138.87687390892972,124.59058438084678,132.70781133055806,211.82046012686016,207.32924668810057
1.4014014014014016,23.99489789584719,18.989633298242943,186.8936601440745,134.05674949319135,124.23345175382843,133.03610952894118,212.22587426841065,207.3066356605582
1.4347681014347682,13.0465816679512,16.895645610189835,185.45668049060143,130.74607142163623,123.848757314238,133.33141575630097,212.6513338560527,207.35213550330943
1.4681348014681348,5.290948895056158,15.040308475769866,184.03898172914217,129.7388144271531,123.47659767063658,133.59632928775963,213.08414631745248,207.4731162797929
1.5015015015015016,0.7067499299310347,13.445058331718013,182.33641674147952,127.94102199731935,123.1748314435007,133.86721209797855,213.441772932364,207.61567183552165
1.5348682015348682,0.7067499299310347,12.4634505318458,180.4816919381628,124.61928043311468,122.96084090382664,134.1388501095862,213.73248325158283,207.7949874796109
1.5682349015682349,0.7067499299310347,11.941491772274146,178.43923595970116,119.38589056759092,122.7499011116426,134.40690972711258,214.01978751560995,207.97862064999484
1.6016016016016017,0.7067499299310347,11.89879730737396,175.9888177966173,114.00061108247402,122.54651862743216,134.59929028577443,214.28408206781373,208.1950791353713
1.6349683016349683,0.7067499299310347,12.37468863115878,173.43851768123628,108.75508391961006,122.34002048082247,134.70886878305967,214.5904265537173,208.42387012001024
1.6683350016683351,0.7067499299310347,13.401202598676974,170.54408020364735,103.57534054908557,122.16503669167189,134.74383702844568,214.8743669102873,208.65054817554315
1.7017017017017018,0.7067499299310347,14.55103187505903,167.54302235822894,98.05840090706316,121.94660844836312,134.75965649527836,215.18535333035155,208.8510337922249
1.7350684017350684,0.7067499299310347,15.938662637296389,164.65437581090208,92.84552473359716,121.70465921702863,134.69192466036017,215.4830513913179,209.01351882666788
1.7684351017684352,0.7067499299310347,17.404222724742723,161.5380035242248,87.60789791681968,121.4554474155332,134.62870853452907,215.7322299471574,209.1276451977963
1.8018018018018016,0.7067499299310347,19.08578751288373,158.4331289714298,82.65536402242222,121.22812015379262,134.56472372562706,215.92196327610787,209.1933400898669
1.8351685018351689,0.7067499299310347,21.002948214326725,155.5375083617675,78.0835533812276,121.04758637120908,134.47708668686053,216.120171708748,209.2688002201457
1.8685352018685355,0.7067499299310347,23.178746759802262,152.7131450420089,73.82887000619432,120.8855666776023,134.3199798606604,216.3289961665985,209.3587067813292
1.901901901901902,0.7067499299310347,25.397789107854816,150.09722992407063,69.64865696236318,120.73181373961566,134.1305519458467,216.49404745961132,209.44442280026072
1.9352686019352687,0.7067499299310347,27.514806203780413,147.4049914729895,65.52285098914338,120.64339758398852,133.91894195723728,216.59635438817483,209.50694924224103
1.968635301968636,0.7067499299310347,29.55560018298145,144.69139613429687,61.53683116317932,120.586675310223,133.69129972736405,216.67677651108693,209.5840685849711
2.002002002002002,0.7067499299310347,31.447726953449525,142.34468737598024,57.86005318058868,120.55202347021586,133.4114332446003,216.7361799286816,209.68421823325912
2.035368702035369,0.7067499299310347,33.52863753353898,141.81048167805625,54.771670505225565,120.56432384530518,133.11187856957048,216.76809628933867,209.79427867762487
2.0687354020687354,0.7067499299310347,35.67819186438542,141.62707170203032,52.38399527429968,120.60448784023738,132.78459211118684,216.79040710074605,209.9120675788664
2.1021021021021022,0.7067499299310347,38.00011212767068,142.79886264294987,50.84618714987562,120.65396795991606,132.54930918593047,216.7960105767297,210.0414105733808
2.135468802135469,0.7067499299310347,40.39503418580719,145.1035447078653,50.14350020938888,120.71918828944516,132.34897613821053,216.782813807531,210.16804066724936
2.1688355021688355,0.7067499299310347,42.55219163114569,148.41570243178998,49.37810962859459,120.81443967577484,132.14997788548936,216.75794032263687,210.28038398367792
2.2022022022022023,-0.9879507071492926,44.52400590596282,151.6361251068504,49.08045200987825,120.94929616742314,131.9724052135054,216.7193771438388,210.36827741844
2.235568902235569,0.0564282502504527,46.25645315102964,155.9747680186799,48.88502938596428,121.06806979489755,131.83721298894187,216.6930923316077,210.4278298063413
2.2689356022689355,3.759791809765445,47.79421427175952,160.87407293611645,49.162846583743686,121.20708163034466,131.7327783660562,216.6491879154749,210.46293046747388
2.3023023023023024,3.759791809765445,49.08875441163846,162.22640976806474,49.88023594285429,121.32395925533348,131.60599862551334,216.6442479819996,210.5111980486736
2.335669002335669,3.759791809765445,50.10680731143605,163.27816807768528,51.0433178908576,121.42180185555662,131.54332340625973,216.7190413354373,210.50645244241545
2.369035702369036,3.759791809765445,50.6701097796695,164.53756175115296,52.49008189015403,121.51000078363586,131.50846299105817,216.846005355182,210.4944101867709
2.4024024024024024,3.759791809765445,50.914082417153736,165.62794802496168,54.56705515428839,121.6184671397897,131.50982752284366,216.9962938589159,210.5098988744744
2.4357691024357693,3.759791809765445,50.82760063788661,165.8915656403613,56.54699423119352,121.69150758517289,131.51330378113673,217.19286874731472,210.55355261424123
2.469135802469136,3.759791809765445,50.45851303709985,165.81045057394724,59.12750825190712,121.669641875864,131.52380575251183,217.4942991491654,210.62326893832872
2.5025025025025025,3.759791809765445,50.3080130770236,166.5259551436282,61.18234663235218,121.5464858069134,131.50655948571648,217.8336509771729,210.72059687375645
2.5358692025358693,3.759791809765445,50.46421456128655,167.15432069694825,61.68525786105411,121.29127428670712,131.49834949220198,218.28823181767635,210.81645288809915
2.569235902569236,9.781680628060972,51.16353924298628,167.9598147150834,65.54965643622043,120.98058034437346,131.44513856406576,218.73169823641285,210.96661833402945
2.6026026026026026,18.082600243328702,51.74934750646145,168.7207220384243,69.3489087957689,120.484844138922,131.34083694566124,219.3950756029702,211.0692470120629
2.6359693026359694,28.213060329887853,52.4190612432332,169.1884046879453,70.45292036751322,120.00320984311864,131.17467725395375,219.93125860948464,211.20555720961207
2.669336002669336,40.18878546714647,53.08824224960669,169.54393754662385,68.21379698286016,119.53125035169532,130.96111341788094,220.29130717550703,211.4262227894644
2.702702702702702,53.69226127272629,53.568020096249626,169.9527284121539,66.2061030896738,119.08933524196034,130.66733133899845,220.48949648575245,211.6989273607092
2.736069402736069,68.542674329035,56.09348855722376,170.84080009038362,65.75150665280073,118.6107921783772,130.03661019726343,220.54484495804363,212.1804452576352
2.7694361027694363,84.25638141745698,57.48659680824651,170.64632023563317,65.26538097804476,118.08835088910416,129.36690575848334,220.52633133879124,212.70828732639063
2.802802802802803,100.69664837574447,57.537277348062766,169.90523800957638,67.11005241594047,117.69202929703334,128.74364762341924,220.36819906258472,213.2666211791885
2.836169502836169,117.50000731534816,57.33156079718339,169.534753479043,68.82990941358356,117.43056372043964,128.201617432245,220.0760682734361,213.7439745100778
2.8695362028695364,134.8552845821745,57.52900088183841,164.8197612537221,65.78165259029662,117.3548465833876,127.76513159383076,219.60677097079608,214.12837467482635
2.902902902902903,152.41785120609364,57.59119219072279,161.21232041260194,63.6375271303203,117.49380259926336,127.47825505473315,218.96658489022457,214.39648686668
2.9362696029362696,169.9696283424673,57.39860004859561,163.0696697084607,62.007608840857365,117.65128880041584,127.29963488984043,218.18114151644525,214.6466292770785
2.9696363029696364,187.3239058600182,56.84496151777207,164.76713100787154,60.8834349657075,117.95695626653952,127.1144911107767,217.2820975767696,214.8700805446068
3.003003003003004,204.32568281308508,55.06919850916793,167.2058141091233,58.651486984760496,118.30082261899828,126.89971165239072,216.231203032376,215.1315440539393
3.0363697030363697,220.58842744642823,53.10883651423136,169.8172588670405,57.27812382559616,118.7621228408123,126.68911423808466,215.0715110319746,215.3567190137385
3.0697364030697365,236.04193772981804,50.97991630121179,173.1573297537078,56.68904760448809,119.31570552174657,126.5083563973986,213.8678318159141,215.5015111677404
3.103103103103104,250.32024103591004,48.95942993849198,175.76229807338785,57.16777666673089,119.85279205304026,126.3038415789506,212.7761141797098,215.6186673954452
3.1364698031364697,263.37747662869447,46.70510249365001,176.82376632663983,58.20143550065416,120.42670369519882,126.22059201391224,211.69164814022088,215.6418342402088
3.169836503169837,274.5198988159058,44.691837370267855,177.52398781199142,60.24618391923404,121.09846403302556,126.22765288030892,210.58776038551457,215.56423812514896
3.2032032032032034,283.7500939211229,42.54198489681626,178.4079380823964,62.63129772244212,121.8413624631374,126.29125216154137,209.44630493997272,215.4560083392312
3.2365699032365702,290.864879591932,40.5245805412624,178.93372622909956,65.68142001988464,122.64561391617998,126.41489393597452,208.31929433807537,215.25547792988945
3.2699366032699366,295.901559623689,38.610180054662685,179.2118428662002,69.62672538136842,123.52754082107228,126.60857678379844,207.1394912515191,214.9788531993622
3.3033033033033035,298.8628639390864,36.86236105046056,180.4134213916348,74.36959890519987,124.48419083081768,126.8571094251042,205.9982944259222,214.59678294229047
3.3366700033366703,299.3957720350368,35.31977921443779,182.68557964906063,85.43222892331137,125.48689261530568,127.45441131465364,204.8932593330373,214.07044893878148
3.3700367033700367,297.4977716562325,34.0771152812815,184.01238661697863,95.5198362741327,126.51844202422416,128.1103012957544,203.86032861496443,213.4214923381253
3.4034034034034035,293.0435161255477,33.13222077422372,184.08124961224465,103.74131026378647,127.53486638604096,128.65420179016903,202.9498975467704,212.7252241937735
3.4367701034367704,287.1502794183316,32.38337275528758,183.2163991734512,110.99084746928222,128.5387694548725,129.170668347048,202.1606807357013,211.92255733222893
3.4701368034701368,278.72723035052,31.519639144371407,181.47220280278964,117.08222782838706,129.4816474014504,129.44360722779572,201.55821992620736,211.06528197280656
3.503503503503504,267.8628057393484,31.26704456899956,178.30984289493546,121.92128827652536,130.33847372165457,129.68409656122626,201.11725090893933,210.213224523588
3.5368702035368704,266.4023236744788,31.90079805204992,174.4717023126504,125.35447284900644,131.0980032946317,129.852530032018,200.8622521779864,209.40982230557043
3.5702369035702373,265.1633427521024,32.97510356869159,170.1523794730821,128.25043152990605,131.72920424798787,130.00389772098586,200.79544962416608,208.57346288800449
3.603603603603604,263.68133029414014,34.59866237222805,163.4776885412421,129.32779960616898,132.27067808835017,130.28948845623233,200.8346305792965,207.6922713390996
3.6369703036369705,262.03316586185105,36.09706886271728,157.1244082926845,128.06351365880795,132.77006382913805,130.45304336681394,200.91534560568536,206.75650691179507
3.670337003670337,271.53358176192586,37.75980087465383,153.9881002494207,126.24686216132552,133.17812793650782,131.0057438066847,201.0649310145599,205.8320561461973
3.703703703703704,278.6903950722852,38.772377597293165,150.23336725260188,123.37728028599405,133.57856713894492,131.50396927049317,201.1895202492392,204.92683480725427
3.737070403737071,283.1935664881614,39.04872378037253,146.24067682738735,118.54056305872793,133.95390383833387,131.82140519770155,201.3420348251856,204.0229066416095
3.770437103770437,284.9250380358506,39.77440668604506,141.95435005547276,112.34596737853944,134.4879405894584,132.05247268989746,201.18494651052737,203.21859389391824
3.803803803803804,282.9900066804862,40.56502359012403,137.4130152829892,104.72230769150818,135.01480761967952,132.11950852975946,200.98800451926823,202.560826122546
3.8371705038371706,279.1009880602492,41.244951387919,132.70336375499917,98.36651931596296,135.56540369101606,132.08822879763616,200.77731735699925,201.9405421574114
3.8705372038705375,273.5498146785845,33.30396159628763,126.65673995193023,90.94763215683238,136.11750071338864,132.0333094919157,200.61683554047784,201.3374380087204
3.903903903903904,266.201466380382,25.96302726606494,118.554421899436,83.83099551147457,136.7421666363025,132.32281696146148,200.43295425146232,200.5082339212545
3.937270603937271,257.97069545161344,22.308592721815096,111.04884052260198,77.17716975745938,137.48661488541768,132.67702209476053,200.18867628527835,199.6223158434682
