Time,Left Shoulder Angle,Right Shoulder Angle,Left Elbow Angle,Right Elbow Angle,Left Hip Angle,Right Hip Angle,Left Knee Angle,Right Knee Angle
0.0,25.315704300348145,17.362956297805816,135.0637845070131,159.78382509359392,203.57003267135093,225.6354715515851,162.35554379757932,164.84276174137293
0.0333667000333667,24.78023820444725,19.703059748390466,157.43981065147352,167.74533383879256,201.7288409303341,225.6199493832568,166.18080301221462,167.16937910145995
0.0667334000667334,24.63665014723412,21.66220674371938,175.7780389425851,174.38735538980882,200.3684018115805,225.4866632173793,169.11430448452225,169.06887891091554
0.1001001001001001,24.850594974269328,23.26381533261092,190.341764976372,179.79730800953686,199.45531328430064,225.2479098411079,171.22282205488446,170.57023882303832
0.1334668001334668,25.3877275311135,24.53130356388342,201.3942843488581,184.06260996087087,198.9561733177053,224.91598604159765,172.57312956368358,171.70243649112683
0.1668335001668335,26.213702663327243,25.48808948635524,209.1988926560677,187.2706795067049,198.83757988100496,224.50318860600368,173.23200085130182,172.49444956847967
0.2002002002002002,27.29417521647115,26.157591148844723,214.0188854940248,189.5089349099333,199.06613094341043,224.0218143214811,173.2662097581215,172.97525570839537
0.2335669002335669,28.59480003610584,26.563226600170225,216.1175584587535,190.86479443345007,199.6084244741324,223.48415997518504,172.7425301245249,173.17383256417256
0.2669336002669336,30.081231967791894,26.72841388915009,215.75820714627795,191.4256763401495,200.43105844238133,222.90252235427064,171.7277357908943,173.11915778910975
0.3003003003003003,31.71912585708994,26.67657106460267,213.2041271526221,191.2789988929256,201.50063081736803,222.28919824589292,170.28860059761192,172.84020903650557
0.333667000333667,33.47413654956057,26.43111617534631,208.71861407381016,190.51218035467264,202.7837395683032,221.65648443720724,168.49189838506007,172.3659639596586
0.3670337003670337,35.3119188907644,26.01546727019937,202.56496350586616,189.2126389882848,204.2469826643973,221.01667771536853,166.40440299362106,171.72540021186734
0.4004004004004004,37.19812772626202,25.45304239798018,195.00647104481425,187.4677930566561,205.85695807486127,220.382074867532,164.09288826367714,170.94749544643045
0.4337671004337671,39.09841790161405,24.767259607507107,186.30643228667844,185.36506082268093,207.58026376890552,219.76497268085268,161.62412803561057,170.06122731664644
0.4671338004671338,40.97844426238108,23.9815369475985,176.72814282748286,182.9918605492533,209.38349771574084,219.17766794248573,159.06489614980367,169.09557347581392
0.5005005005005005,42.803861654123736,23.119292467072697,166.5348982632516,180.4356104992673,211.23325788457785,218.6324574395864,156.4819664466387,168.07951157723147
0.5338672005338673,44.54032492240259,22.203944214748056,155.98999419000876,177.78372893561732,213.0961422446272,218.1416379593097,153.94211276649787,167.04201927419763
0.5672339005672339,46.1534889127786,21.25891023944309,145.3567262037796,175.12363412119882,214.9387487651012,217.7175062888125,151.5121089497648,166.01207422001232
0.6006006006006006,47.91134494828536,21.58685141618185,137.1355620852373,177.6342620024661,216.6963648471023,217.3325346232071,150.2205490124793,165.2692379187883
0.6339673006339673,48.14229042816654,21.15266887948515,127.91182389363983,179.568441508691,218.18309666056612,217.15841494177744,149.53859734903878,164.65032810453354
0.6673340006673341,47.71541099396223,19.59372665472232,120.18697293810077,180.06041159110757,219.31408244226915,217.2207331100024,149.14924098387155,164.26257890653685
0.7007007007007008,46.29198904955023,17.180507567328114,118.2307046982768,176.2627075269585,220.2979310461032,217.61868146504085,148.91201421660705,163.81918722384154
0.7340674007340674,44.43247561389087,14.49136222700858,117.80056798779964,173.49796818317836,220.95071592369783,218.24274886061752,149.081346994436,163.5244510452305
0.7674341007674341,42.55896392515506,11.986633277808458,118.29820781450282,171.26198920806007,221.3286003422208,219.07380516395472,149.65129854358003,163.3860488971763
0.8008008008008008,42.03878428638704,10.37427412616258,118.94795789820355,168.5961206592843,221.50123110202475,220.1450565191897,150.58300930612694,163.3218152579856
0.8341675008341676,44.53420755102446,9.695627378146789,121.77552164190956,166.03597944896552,221.4117645444752,221.19813838291685,151.8613355581511,163.4569548143292
0.8675342008675342,46.356916556743634,10.59131395209121,125.21428780528262,163.17123714482267,221.2875046666157,222.2675048862679,153.48264758653602,163.7927632662786
0.9009009009009008,45.686366542206926,12.569707549302898,131.02143492279356,160.55451503781276,220.89898338967896,223.30481016525988,155.40255113917152,164.39923671382445
0.9342676009342676,46.38873442498363,13.990810137866063,134.5099352342834,159.14912088430074,220.39403124701465,224.2424562859782,157.38220439156535,165.26331241054834
0.9676343009676344,46.57081160108591,15.454781590989194,139.60428546749208,159.2216328927448,219.74830975261293,225.06324709214525,159.53970752189807,166.4801057851002
1.001001001001001,47.11153638888367,21.3868304305818,144.01407009536024,168.81477986786666,218.94068619377148,225.6538375975369,161.82795578718228,168.05360508946137
1.0343677010343677,47.9063565187774,25.54698997301788,155.78388024202593,172.53436598388512,217.73843519401044,226.53438639645432,165.10207788123293,170.0296039316781
1.0677344010677343,48.57191017664518,30.103129046622183,167.63787933415765,176.4249612547535,216.4532476887753,227.27168770485852,168.38391650200904,172.1764248167278
1.1011011011011012,49.062816968340535,35.01715202691135,179.25242528197657,180.3913805975237,215.1082554713161,227.83444869546065,171.6076727547431,174.47534290172152
1.1344678011344678,49.33369649971743,40.25096328940198,190.30387599570545,184.3384389292493,213.7265903348852,228.1913765409735,174.70754774466903,176.90763334377158
1.1678345011678346,49.33916837662986,45.7664672096108,200.4685893855672,188.1709511669835,212.3313840727344,228.3111784141101,177.61774257702072,179.45457129999036
1.2012012012012012,49.0338522049318,51.5255681630544,209.42292336178429,191.79373222777983,210.94576847811592,228.16256148758336,180.27245835703195,182.09743192749025
1.234567901234568,48.372367590477225,57.49017052524941,216.8432358345796,195.11159702869173,209.59287534428177,227.71423293410624,182.6058961899367,184.8174903833836
1.267934601267935,47.3093341391201,63.62217867171255,222.4058847141756,198.0293604867725,208.29583646448407,226.9348999263917,184.55225718096875,187.5960218247828
1.3013013013013013,45.799371456714425,69.88349697796039,225.78722791079525,200.45183751907564,207.07778363197485,225.79326963715272,186.045742435362,190.41430140880016
1.334668001334668,43.797099149114175,76.23602981950972,226.6636233346615,202.2838430426546,205.9618486400062,224.2580492391022,187.0205530583504,193.2536042925481
1.3680347013680347,41.257136822173294,82.64168157187703,224.71142889599665,203.43019197456263,204.97116328183017,222.29794590495308,187.4108901551676,196.0952056331389
1.4014014014014016,38.13410408174581,89.06235661057906,219.607002505024,203.7956992318533,204.12885935069883,219.8816668074184,187.1509548310477,198.92038058768503
1.4347681014347682,34.38262053368568,95.45995931113244,211.0267020719656,203.28517973158003,203.4580686398643,216.97791911921087,186.17494819122453,201.7104043132988
1.4681348014681348,29.95730578384688,101.79639404905384,198.6468855070445,201.8034483907961,202.9819229425786,213.5554100130437,184.41707134093187,204.4465519670925
1.5015015015015016,24.81277943808339,108.03356519985996,182.1439107204833,199.2553201265549,202.7235540520938,209.58284666162973,181.81152538540368,207.1100987061787
1.5348682015348682,18.903661102249195,114.13337713906724,161.19413562250492,195.54560985591,202.70609376166195,205.02893623768188,178.29251142987377,209.6823196876696
1.5682349015682349,12.184570382198268,120.05773424219262,135.47391812333214,190.57913249591465,202.9526738645352,199.8623859139132,173.794230579576,212.1444900686776
