Time,Left Shoulder Angle,Right Shoulder Angle,Left Elbow Angle,Right Elbow Angle,Left Hip Angle,Right Hip Angle,Left Knee Angle,Right Knee Angle
0.0,9.023941873092548,4.933527539817237,179.1875681467796,172.71983368760203,166.45391974640663,206.3589553580856,182.56097549118417,172.67140854594732
0.0333667000333667,5.998674510313474,3.2387538672199256,180.33241643835228,171.67114848902554,166.7515224681319,207.66174801921733,182.5921426485052,172.28827750971192
0.0667334000667334,3.686557389622256,1.841273797220793,181.60712491421896,171.2070072181978,167.0313485717292,208.72789293082965,182.6398138368334,171.94034914884875
0.1001001001001001,2.0488113781128376,0.7300065149358996,182.9787473852599,171.25763369731618,167.29238200740224,209.5704895686069,182.7021968993961,171.627198830293
0.1334668001334668,1.046657342879163,-0.1061287945186988,184.41433766235545,171.75325174857812,167.53360672535456,210.20263740823376,182.7774996794203,171.34840192097994
0.1668335001668335,0.6413161510151735,-0.6782129460269442,185.88094955638584,172.62408519418096,167.75400667578984,210.63743592539447,182.86393002013293,171.1035337878448
0.2002002002002002,0.6413161510151735,-0.9973267544727769,187.3456368782314,173.80035785632217,167.95256580891166,210.8879845957736,182.95969576476128,170.89216979782282
0.2335669002335669,0.6413161510151735,-1.07455103474014,188.7754534387724,175.21229355719908,168.12826807492368,210.9673828950556,183.06300475653228,170.71388531784922
0.2669336002669336,0.6413161510151735,-0.9209666017129754,190.13745304888903,176.7901161190091,168.28009742402952,210.88873029892488,183.17206483867304,170.56825571485925
0.3003003003003003,0.6413161510151735,-0.5476542702752258,191.3986895194617,178.46404936394964,168.4070378064328,210.66512628306583,183.28508385441063,170.45485635578814
0.333667000333667,0.6413161510151735,0.0343051446891697,192.52621666137068,180.16431711421808,168.50807317233716,210.3096703231631,183.4002696469721,170.37326260757115
0.3670337003670337,0.6413161510151735,0.0343051446891697,193.4870882854962,181.82114319201185,168.5821874719462,209.835461894901,183.51583005958457,170.32304983714351
0.4004004004004004,0.6413161510151735,0.0343051446891697,194.24835820271852,183.36475141952823,168.6283646554636,209.255600473964,183.62997293547508,170.30379341144044
0.4337671004337671,0.6413161510151735,0.8138308282962656,194.7770802239181,184.7253656189648,168.64558867309293,208.58318553603647,183.7409061178707,170.31506869739718
0.4671338004671338,0.6413161510151735,0.8138308282962656,195.04030815997507,185.83320961251883,168.63284347503784,207.8313165568032,183.84683744999853,170.35645106194897
0.5005005005005005,0.6413161510151735,0.8138308282962656,195.0050958217697,186.6185072223877,168.58911301150198,207.01309301194823,183.94597477508563,170.42751587203108
0.5338672005338673,0.6413161510151735,0.8138308282962656,194.6384970201824,187.01148227076888,168.51338123268891,206.14161437715623,184.03652593635903,170.5278384945787
0.5672339005672339,0.6413161510151735,0.8138308282962656,193.907565566095,186.94235857986143,168.4046320888038,205.22998012811328,184.1166987770473,170.65699429652855
0.6006006006006006,0.6413161510151735,0.8138308282962656,192.8089180901478,184.2858458279113,168.12059369764827,204.303741420755,183.93350741210872,170.85325539644444
0.6339673006339673,0.6413161510151735,0.8138308282962656,190.91879177870584,181.6809605734344,167.8005207004995,203.39296208277045,183.7090841523396,170.8789889691081
0.6673340006673341,0.6413161510151735,0.8138308282962656,187.25513964155823,175.24395128004656,167.45203494963607,202.52402799464124,183.5259641383617,170.81909377771842
0.7007007007007008,0.6413161510151735,0.8138308282962656,179.1820508423995,170.88874663812624,166.88227456515924,201.5104937720955,183.6753236379522,170.70875484221787
0.7340674007340674,0.7940086696148132,0.8138308282962656,178.15774987159762,168.19947402761775,166.12557872759064,200.2783159510976,184.04239596195185,170.77276301002652
0.7674341007674341,0.7940086696148132,0.8138308282962656,170.4844808776459,159.09660456459008,165.6714820848299,199.34346886042823,184.2823284359984,170.8612644206593
0.8008008008008008,0.7940086696148132,0.8138308282962656,163.30771373021798,151.42514939706732,165.31463471158995,198.55846750926528,184.3507784288147,171.07451431795465
0.8341675008341676,0.7940086696148132,0.8138308282962656,157.9328157090565,144.00349870654657,164.9486909929921,197.93947435808064,184.4244703363643,171.54895628454966
0.8675342008675342,0.7940086696148132,0.8138308282962656,154.85904842469668,138.26096884770973,164.72867880134564,197.4932508693468,184.5318225326832,172.24766894189898
0.9009009009009008,0.7940086696148132,0.8138308282962656,155.67246839773438,133.6848937731587,164.39535095057724,197.1714182844596,184.7224461854704,173.13425613130366
0.9342676009342676,0.7940086696148132,0.8138308282962656,143.21004075310466,128.06705629018586,164.31549280500076,196.9752808901773,184.97933108694764,174.23757228854907
0.9676343009676344,0.7940086696148132,0.8138308282962656,133.97014235595415,123.42168684961558,164.35243388551632,197.3375323152709,185.16997286692364,175.22051592124518
1.001001001001001,0.7940086696148132,0.8138308282962656,131.12726831883197,114.43256633716048,164.61965961816188,197.83179444821943,185.23471572488148,176.39524045089215
1.0343677010343677,0.7940086696148132,0.8138308282962656,129.2465742243395,109.9873225485022,165.06118887671565,198.41010878105973,185.2350825602037,177.58537803104423
1.0677344010677343,0.7940086696148132,0.8138308282962656,131.31811567814657,103.83926953154366,165.66851043700805,199.07990859641524,185.1831843339151,178.78685072276448
1.1011011011011012,0.7940086696148132,0.8138308282962656,130.37180891877878,95.82219385595934,166.2781922816943,199.6385221163793,185.1477080891981,180.14037963361483
1.1344678011344678,1.4659557657720257,0.8138308282962656,127.5869481007347,98.95934864957324,167.00193045337886,200.35052468673348,185.00476137854804,181.44405465128392
1.1678345011678346,1.4659557657720257,0.8138308282962656,133.06814134438983,95.58563715821886,167.68495970982627,201.2334516546977,184.92325941667616,182.76903484277685
1.2012012012012012,2.618378306580757,0.8138308282962656,129.5494052676115,92.7760646469759,167.32656918084558,202.93748708454288,184.2277510100457,184.6103527549579
1.234567901234568,4.212497159134943,0.8138308282962656,133.28012023292956,94.144684122469,167.60808449546133,204.1359721996593,184.56342592658416,185.35346826978
1.267934601267935,6.20953319052853,0.8138308282962656,134.93580011559663,97.25500904382469,168.49253341498667,204.48537061694373,184.5683962071909,186.41373173262863
1.3013013013013013,8.57070726785547,1.7798419656621212,138.14423309167108,102.36798246081143,169.43382943694863,204.75012128721937,184.3416913103033,187.40874727228467
1.334668001334668,11.257240258209697,1.7798419656621212,138.7423288689689,107.7741799960176,170.57325471339092,204.8293250727097,183.8987408294481,188.52039810719248
1.3680347013680347,14.230353028685151,2.9212577419027967,142.23745217345123,114.0061098597142,171.5701499550674,204.8509950295469,183.36586313060465,189.58570356481755
1.4014014014014016,17.45126644637577,4.226997342134343,148.1083758746349,118.36598049436472,172.614278499208,205.0477006313924,182.72057766307,190.5826940252989
1.4347681014347682,20.88120137837553,5.685979951472829,154.00008832786267,122.39279475079796,173.60218635584826,205.1392656570588,182.0204785569878,191.50578058229848
1.4681348014681348,24.48137869177833,7.287124755034301,159.75803023243878,125.92038485195852,174.51073729332123,205.11722232045443,181.27101481410625,192.34614570468648
1.5015015015015016,28.213019253678222,9.019350937934828,165.22764228766871,128.78258302079234,175.31679507996137,204.973102835489,180.4776354361751,193.0949718613344
1.5348682015348682,33.72639188203526,11.843865658461006,170.25436519285802,130.81322148024523,175.9972234841032,204.69843941607223,179.64578942494396,193.7434415211136
1.5682349015682349,38.86124573603163,13.660269558574049,174.68363964731216,131.84613245326312,176.52888627408112,204.284764276114,178.78092578216257,194.2827371528958
1.6016016016016017,43.38852737033847,16.812039518481175,178.36090635033673,131.71514816279176,176.88864721822966,203.72360962952405,177.88849350958066,194.7040412255524
1.6349683016349683,47.57031529783712,20.014832470268573,181.1316060012371,130.25410083177707,177.05337008488326,203.00650769021212,176.97394160894794,194.9985362079548
1.6683350016683351,51.48368187112354,22.59902895597041,182.8411792993188,127.2968226831649,176.99991864237637,202.12499067208816,176.04271908201406,195.15740456897464
1.7017017017017018,54.6515862372626,25.053019313887827,183.3350669438873,122.67714593990112,176.7051566590435,201.0705907890618,175.1002749305288,195.1718287774833
1.7350684017350684,56.84877912607077,27.186281339229243,182.45870963424812,116.22890282493164,176.14594790321908,199.83484025504288,174.1520581562418,195.0329913023524
1.7684351017684352,57.73300579405168,27.916780962809813,180.0575480697069,107.78592556120232,175.29915614323758,198.4092712839412,173.2035177609028,194.7320746124533
1.8018018018018016,57.68213575598364,28.90012273515456,175.97702294956903,97.18204637165894,174.14164514743348,196.78541608966648,172.2601027462615,194.26026117665765
1.8351685018351689,55.78650864908506,30.036428474065403,170.06257497314,84.25109747924738,172.65027868414126,194.95480688612847,171.3272621140676,193.6087334638368
1.8685352018685355,53.30263711973856,30.288210967592583,162.15964483972527,68.82691110691357,170.80192052169534,192.90897588723723,170.4104448660708,192.7686739428623
1.901901901901902,52.23482731474383,30.52912610519737,152.11367324863042,50.74331947760332,168.57343442843023,190.63945530690228,169.5151000040208,191.7312650826057
1.9352686019352687,47.15798583061677,26.75825055478213,139.77010089916078,29.834154814262504,165.94168417268037,188.13777735903344,168.64667652966736,190.4876893519384
