Time,Left Shoulder Angle,Right Shoulder Angle,Left Elbow Angle,Right Elbow Angle,Left Hip Angle,Right Hip Angle,Left Knee Angle,Right Knee Angle
0.0,30.468291710088607,38.20011244411905,171.41791876870977,163.01571829704858,134.2271117529178,131.9031994073638,199.84558308236245,207.45706610472544
0.0333667000333667,30.84596866425564,38.43982488931748,172.23663892707904,162.7776009041389,134.05870582613852,131.94917275454628,200.1276199231053,207.2909361043652
0.0667334000667334,31.18684220016788,38.673081877082666,172.9478785186589,162.6063776179602,133.89349083320755,131.9745043569961,200.3895522300064,207.1534311472797
0.1001001001001001,31.492568478620576,38.89840421654276,173.55752263285794,162.4970564226175,133.731298427225,131.981799677504,200.63181962859613,207.0426186365624
0.1334668001334668,31.76480366040898,39.11431271682592,174.0714563590847,162.4446453022159,133.57196026129097,131.9736641788606,200.85486174440493,206.9565659753065
0.1668335001668335,32.005203906328326,39.31932818706033,174.4955647867478,162.4441522408604,133.4153079885056,131.95270332385664,201.0591182029632,206.8933405666054
0.2002002002002002,32.215425377173865,39.51197143637413,174.83573300525578,162.4905852226561,133.261173261969,131.92152257528278,201.2450286298012,206.8510098135524
0.2335669002335669,32.39712423374083,39.6907632738955,175.09784610401726,162.57895223170803,133.10938773478134,131.88272739592975,201.4130326504495,206.82764111924067
0.2669336002669336,32.551956636824464,39.85422450875259,175.28778917244085,162.70426125212123,132.9597830600427,131.83892324858823,201.5635698904385,206.8213018867637
0.3003003003003003,32.681578747220016,40.00087595007357,175.41144729993508,162.86152026800076,132.8121908908532,131.7927155960489,201.6970799752985,206.83005951921484
0.333667000333667,32.78764672572272,40.1292384069866,175.47470557590853,163.04573726345168,132.666442880313,131.74670990110246,201.81400253055992,206.8519814196873
0.3670337003670337,32.871816733127815,40.23783268861984,175.48344908976983,163.25192022257903,132.5223706815222,131.7035116265396,201.9147771817532,206.88513499127447
0.4004004004004004,32.935744930230555,40.32517960410146,175.44356293092753,163.47507712948786,132.37980594758093,131.66572623515103,201.9998435544088,206.9275876370696
0.4337671004337671,32.98108747782618,40.389799962559614,175.36093218879023,163.71021596828322,132.2385803315893,131.63595918972743,202.06964127405692,206.97740676016605
0.4671338004671338,33.00950053670992,40.43021457312247,175.2414419527665,163.95234472307015,132.09852548664745,131.61681595305947,202.12460996622823,207.0326597636572
0.5005005005005005,33.022640267677026,40.44494424491818,175.09097731226493,164.19647137795374,131.9594730658555,131.61090198793786,202.165189256453,207.09141405063616
0.5338672005338673,33.02216283152274,40.43250978707493,174.9154233566941,164.43760391703898,131.82125472231357,131.6208227571533,202.1918187702616,207.15173702419648
0.5672339005672339,33.00972438904257,40.39143200872118,174.72066517546395,164.67075032443233,131.68370210912283,131.6491837234975,202.2049381331861,207.21169608743293
0.6006006006006006,33.017595470705075,40.283761928193,174.4340828774646,164.6977488584566,131.42562123114453,131.6929768229195,202.28836081843752,207.24938226783297
0.6339673006339673,33.01861735622651,40.12478647012709,174.13447216067362,164.69429630759564,131.15605993146892,131.76164206992857,202.35419017586057,207.2783306631772
0.6673340006673341,33.00270898577382,39.98760031962734,173.82387770803112,164.77252612132637,130.96349354511426,131.8639689479316,202.36231940356032,207.29893031042585
0.7007007007007008,33.009152267640495,39.807740921824006,173.63076173206957,164.8742770011209,130.81878898444094,132.0233189970841,202.3238138161217,207.3085677325741
0.7340674007340674,33.05339830192761,39.68716366095095,173.51159369848165,165.13555963011802,130.7121264925807,132.19794838619592,202.2470407809708,207.3572483967509
0.7674341007674341,33.08497286770533,39.50623916179988,173.4477368655989,165.3769709620537,130.6345115459372,132.41354722571597,202.1288542421969,207.4231123340848
0.8008008008008008,33.101070242843484,39.25907219830283,173.43750537102153,165.53242545449498,130.5611180233218,132.66027353017384,201.96985733149043,207.48579127354893
0.8341675008341676,33.06901034154861,38.96317228257135,173.46852219247847,165.6233476197684,130.50631385018127,132.9506493755736,201.7793960946132,207.513516968749
0.8675342008675342,33.03566659063126,38.70782776781248,173.5179216330065,165.78845277184826,130.50319945481888,133.28699695656047,201.6626130263267,207.5107732041845
0.9009009009009008,32.97369809385293,38.328955734608144,173.57229079090433,165.82255636403278,130.49769190578965,133.66073966598287,201.5779487513205,207.49980670846452
0.9342676009342676,32.86554107356011,37.833447767768135,173.64132950601095,165.67734330808383,130.55032218314108,134.04739199343095,201.4368679249944,207.4832167795812
0.9676343009676344,32.70049968722445,37.23682038601344,173.75635553678003,165.43158164784222,130.62196604626365,134.48909859373737,201.2609534075829,207.4245436916388
1.001001001001001,32.572520685743854,36.55274654497731,173.89489703770423,165.02133343104134,130.61857011787183,134.9841366928928,201.0481725316648,207.31060224650423
1.0343677010343677,32.41378105525913,35.8063451086165,174.1195002577279,164.56260104700448,130.59627425430426,135.53681557843603,200.83078110657948,207.1401862229848
1.0677344010677343,32.20266851638182,35.090288230791124,174.3906245276849,164.1903530841975,130.65430983058482,136.12013809161655,200.48503939371176,206.98138273044464
1.1011011011011012,31.94861453616237,34.278567337107425,174.7432148563752,163.72823534173943,130.72704373570068,136.73059141176162,200.1436530019056,206.79419886726924
1.1344678011344678,31.675661410945366,33.45224450317512,175.12986269897962,163.19935307311837,130.79310846997157,137.39004622525232,199.8292006958823,206.51056900591888
1.1678345011678346,31.316158814028284,32.57120075665746,175.51103810740523,162.70464975691257,130.8369957330433,138.0920045040637,199.57404351899257,206.1586957326252
1.2012012012012012,30.930097513818268,31.81028344645132,175.7752346263951,162.27565081462802,130.76283184082408,138.73941746407675,199.44440755845864,205.7933856154887
1.234567901234568,30.462706586572185,30.9768410229593,176.03093110747068,161.84372755716805,130.63634543055937,139.39563414161458,199.4138482397575,205.41043881472257
1.267934601267935,29.94437502040708,30.107427397143613,176.1724595793573,161.4408044003704,130.4849777243886,140.06061610647063,199.49364494184425,205.00533973732388
1.3013013013013013,29.31710177732728,29.121811218518506,176.3101903407726,160.9846956408567,130.31710928456414,140.73337233683674,199.6791645994201,204.5797716703649
1.334668001334668,28.63155628184632,28.067433216428395,176.41898577664435,160.43031822751533,130.1383954958872,141.40450858842,199.97421184799435,204.13255482389
1.3680347013680347,27.902526159878697,26.942175358478664,176.67078793881592,159.92838817651682,129.95887453979685,142.08679227326226,200.3390981795114,203.66470602037083
1.4014014014014016,27.1141364054654,25.80918154063407,176.85487089265078,159.3386192758728,129.79393985499783,142.76677553386762,200.780525837019,203.180768251828
1.4347681014347682,26.23342860293711,24.60236231752052,177.06457443400657,158.75914063548078,129.63256759716987,143.46172326953177,201.2638057129662,202.68196796465307
1.4681348014681348,25.29134855543837,23.390907571837435,177.1116878780903,158.3237065971532,129.46034647637026,144.16025770723974,201.80058397177424,202.1664974364448
1.5015015015015016,24.14770479255793,22.12736083901861,177.1926815914497,157.92916402989314,129.2634831325616,144.84906530429194,202.39444885252908,201.6355726846077
1.5348682015348682,22.66196283078628,20.71003098784336,177.32694742487612,157.731908891375,129.0387644669853,145.5093894121027,203.048836356432,201.1023198375125
1.5682349015682349,21.11560500824511,19.20945688951487,177.4884078675969,157.4649147503842,128.78278258064742,146.19699129834152,203.7369222671153,200.5817868188812
1.6016016016016017,19.48456764652471,17.555995218378932,177.7184159341813,157.19968967103117,128.50246612642937,146.850946183188,204.43286584604343,200.08937437904325
1.6349683016349683,17.86397672678437,15.860382115032568,177.98554756981483,156.81377041892213,128.1750924828524,147.45408766639082,205.1609174152081,199.63485956930435
1.6683350016683351,16.200790085787396,14.170243796958136,178.02784676793627,156.47195445796646,127.79120713785692,147.97911254741143,205.9270006056195,199.2191572776406
1.7017017017017018,14.71322425423326,12.618868877830964,177.9749529474225,156.0966782192978,127.35957539235588,148.43196763566922,206.7401072598443,198.8364787039225
1.7350684017350684,13.721662046608651,11.103199968126496,176.96554584365927,155.96104965023096,126.81760948957265,148.7922943358864,207.6142151663304,198.4973883169457
1.7684351017684352,12.991188359268008,9.797064184198057,176.1149290417033,155.68621374257808,126.32837834232387,149.12588871718256,208.4565675343281,198.1958927564437
1.8018018018018016,12.15522103407322,8.811359981981317,180.7894432870101,156.68747705367787,125.85646788255804,149.437628597945,209.25262947378977,197.93802087398765
1.8351685018351689,11.451054663927016,8.124377127194094,184.60448967600828,157.26647569150217,125.36979378502504,149.71068225456807,210.01927533424708,197.7295783759196
1.8685352018685355,10.5060814401934,7.279110551799769,183.1709686911053,157.44555767343746,124.92598997508958,149.9274636126151,210.7809860475616,197.579005475668
1.901901901901902,9.650947043091202,6.5285937464250985,181.250423638924,157.02905779813344,124.52903945605524,150.12274940951656,211.5312549547431,197.4336341441908
1.9352686019352687,9.1884227810112,6.269413989318696,180.1419396553834,155.93476799330986,124.12552286851174,150.32788349098178,212.2626078595424,197.2947285500357
1.968635301968636,9.003709267137644,6.269413989318696,178.7315443228188,154.14496952847836,123.80682242990056,150.52888767681165,212.96514662625816,197.17462274105472
2.002002002002002,8.949594641066508,6.269413989318696,176.75471952615376,152.15397879928275,123.63085375872012,150.678887791903,213.63191401993032,197.0790198964155
2.035368702035369,9.06399733502909,6.269413989318696,174.62083656988432,149.44631287534733,123.53836196914536,150.79342521504637,214.12400567924027,196.9909329517486
2.0687354020687354,9.369638963364675,6.269413989318696,171.92918453307797,146.6366044187373,123.55492478506092,150.85953271555226,214.4772666556064,196.90359641886732
2.1021021021021022,10.065950476999918,6.269413989318696,169.17977997550827,143.25693241671738,123.6072465249291,150.91994143649535,214.75796223764564,196.79344332208865
2.135468802135469,10.039288065713915,6.269413989318696,165.19652110057422,139.4873898944725,123.81686377864462,150.95567543297872,214.9273232406425,196.6820252629209
2.1688355021688355,10.059098633315251,6.269413989318696,161.00963858955348,135.2349806559909,124.21901763160332,150.9613102063274,215.0279142584945,196.58795497804343
2.2022022022022023,1.960622481138101,6.269413989318696,156.56134949160526,130.94169226621256,124.80329278544204,150.93112129565168,215.0431652859799,196.52534816922545
2.235568902235569,1.960622481138101,6.269413989318696,152.23979887657484,126.3826126043073,125.31755587812,150.8716531904131,215.1659431735193,196.4241991283568
2.2689356022689355,1.960622481138101,6.269413989318696,148.19335658438328,121.52838993212978,125.7459340093075,150.7727854311467,215.32545263210204,196.30323320720245
2.3023023023023024,1.960622481138101,6.269413989318696,144.42847614581402,116.58351985674584,126.08482463925208,150.60071617583182,215.5429158039595,196.23731064970025
2.335669002335669,1.960622481138101,6.269413989318696,140.8108734154614,111.68569316693738,126.3484101651176,150.346185002617,215.8044658386256,196.2300470774871
2.369035702369036,-2.930196483681356,6.401942066215075,137.64487059735808,106.75962296744646,126.65358028987995,150.1044622863235,216.04717963034344,196.2369091461864
2.4024024024024024,-4.848606223953216,6.729351111177317,134.82206438232663,101.72205392192896,126.94672394379114,149.87089658396795,216.31396846486768,196.254672677088
2.4357691024357693,-4.1783090307380055,7.191056918666792,132.56236016143183,96.71983809062324,127.21702600952152,149.63736515244852,216.590539618122,196.2826306009046
2.469135802469136,-0.93440681781341,7.393442325719165,130.8748147070757,91.8956580667251,127.46307208682748,149.39594590750173,216.87530569023468,196.32103905586675
2.5025025025025025,4.435146292855952,7.753044217445514,129.72212380661625,87.35421564433155,127.68373506282092,149.1546327224206,217.1434248490997,196.36517836015744
2.5358692025358693,4.435146292855952,7.073728663828059,128.8863674986837,83.11205438292818,127.87156041569332,148.90946943885842,217.40623402689985,196.41980890417867
2.569235902569236,4.435146292855952,6.819039897001352,128.54945820840769,79.42477556293076,127.99692607001712,148.66102241487786,217.6581460956092,196.48636083777183
2.6026026026026026,4.435146292855952,7.044228332445269,128.6155622796203,76.25989952228547,128.0504374461986,148.40909253057413,217.9179449869532,196.5667154317832
2.6359693026359694,4.435146292855952,7.696102763069814,129.30564551360803,73.52627645413926,128.0431099190829,148.14851681665155,218.16489131705444,196.66638503530703
2.669336002669336,4.435146292855952,8.723712537463218,130.46665137557403,71.29870935225235,127.99028739180724,147.8744622903196,218.37350884641083,196.8024575074059
2.702702702702702,4.435146292855952,10.123334130455763,132.07227062128445,69.44950684770518,127.8754357196248,147.59107677029854,218.5512378261386,196.9591463036273
2.736069402736069,4.435146292855952,11.91705612542417,134.1261714053309,68.17659653840647,127.70130475321746,147.32642592870474,218.70160468722813,197.12403999888744
2.7694361027694363,4.435146292855952,13.876265242502283,136.53148424600622,67.4505001054805,127.4509827340603,147.0772294596088,218.86705410913888,197.2812243124364
2.802802802802803,4.435146292855952,16.032218662032047,139.22993764165906,67.42850503298392,127.13028554907066,146.86628315664512,219.0300673271236,197.4220236227649
2.836169502836169,4.435146292855952,18.35882960876028,142.49403069956415,67.92915427786329,126.72761488071392,146.69243062352894,219.2171065534884,197.5437909205506
2.8695362028695364,4.435146292855952,20.841437652737667,146.26197184184616,69.02402379622785,126.27162105878776,146.5562952928329,219.3981473729673,197.6224525919293
2.902902902902903,4.435146292855952,23.419109450954657,151.67490773140085,70.4044344707512,125.83467904088327,146.47065458127184,219.5681387496601,197.6670510242004
2.9362696029362696,4.435146292855952,26.08273373587453,157.89365318628384,72.63986302456965,125.3866681856573,146.3763233852454,219.71540595464424,197.723204062072
2.9696363029696364,4.435146292855952,28.77148622969345,157.90848177538825,73.75739256256261,124.96597051140763,146.2795158924889,219.86877781802707,197.7722557345417
3.003003003003004,4.435146292855952,31.48148462408589,156.24349413853122,75.06518503760861,124.57292569064764,146.23613833403766,220.06415117725743,197.74433515836324
3.0363697030363697,4.435146292855952,34.121909132979496,158.26324095807902,76.12744936661497,124.17312263374964,146.22701195573353,220.28199278112643,197.6925040026209
3.0697364030697365,4.435146292855952,36.66161171331357,160.70028578405868,77.31449096929278,123.81123226312468,146.28777486703942,220.52767680281656,197.60052199501268
3.103103103103104,4.435146292855952,39.25982468540872,161.80159680633454,78.38658031385677,123.53406370069251,146.33265301939335,220.77650482138748,197.48769760054205
3.1364698031364697,4.435146292855952,41.84271850344671,163.37298274695846,79.9546928281161,123.0890926245937,146.3017675456936,221.0451650847812,197.38320022667887
3.169836503169837,4.435146292855952,44.53619583386788,164.60237585543672,81.41410383240458,122.72526423230995,146.27722378835117,221.3053863729954,197.26557810258169
3.2032032032032034,4.435146292855952,47.278167381574,164.03658122557843,80.68856855480038,122.48106590789078,146.28581906633636,221.58503372908416,197.05756246591665
3.2365699032365702,4.435146292855952,50.05694560330959,162.96347100462498,79.17883591006603,122.35143719257944,146.28818500380964,221.8916352774896,196.9215070493653
3.2699366032699366,4.435146292855952,52.76099125291399,157.91177960910494,77.83442861437308,122.3850782458822,146.27376906188266,222.2140364438825,196.81034693445648
3.3033033033033035,4.435146292855952,55.53669603673927,154.34869464207264,76.39541019509244,122.43121201064702,146.22424983889763,222.5342303123261,196.8215273881065
3.3366700033366703,4.435146292855952,58.39257215628589,155.40251606204504,75.44839122326913,122.36655945758312,146.15514509476031,222.9265389052049,196.86912199408425
3.3700367033700367,4.435146292855952,60.99170770796791,154.4374365704588,74.2438311687699,122.2250140764002,146.06126357249022,223.2813242092688,197.0223063921582
3.4034034034034035,4.435146292855952,63.45181709508513,152.56846526839357,71.75157907007839,121.9543489980407,145.8628546445505,223.7193418692871,197.37532287217408
3.4367701034367704,4.435146292855952,65.88220398500775,151.0942817748383,69.91889514027085,121.76551705178557,145.77810963024527,224.04607224164263,197.6318278432441
3.4701368034701368,4.435146292855952,68.39744394896559,150.9283032516351,66.82828268364347,121.72726499744546,145.86212278819602,224.2606443000316,197.8667264620475
3.503503503503504,4.435146292855952,70.13108684096599,151.01044660380398,64.68454533481547,121.8230752130766,145.98707779302248,224.3262842544928,198.19702232434827
3.5368702035368704,4.435146292855952,71.27991753475514,151.3612764981329,63.52998035668832,121.94552014768335,146.13612293375994,224.36586815660127,198.63918637060368
3.5702369035702373,4.435146292855952,71.44267329919295,152.0085109235782,63.2658447450803,122.14914460182544,146.2686359753434,224.27683637672305,199.17633071301168
3.603603603603604,4.435146292855952,71.30434886640204,153.01727266107525,63.314498703218746,122.38182850549096,146.43230134028354,224.10963514223667,199.8917990701455
3.6369703036369705,4.435146292855952,70.68494035620061,154.12881351400566,64.23877935475083,122.74324619143064,146.5738198334633,223.74469236906373,200.7316638286408
3.670337003670337,4.435146292855952,69.14925519343015,155.61624044795178,65.58203668030652,123.10219986882538,146.6480565963524,223.2685117274999,201.5945999399024
3.703703703703704,4.435146292855952,68.08221296303205,157.21358440688633,67.39345574805122,123.55372031514656,146.64568743529614,222.6113403976329,202.5139659380848
3.737070403737071,4.435146292855952,66.0139286498735,158.85113129824725,69.47275041372724,124.0875759499283,146.6884608829652,221.73797825367063,203.47169535766164
3.770437103770437,4.435146292855952,63.66706522998513,160.53820059813137,72.04139978744696,124.77796488275888,146.6820528255514,220.6647993036877,204.47206912644705
3.803803803803804,4.435146292855952,61.31797851295753,162.53965087637934,74.79800555871297,125.60696705133438,146.50962706291847,219.4449404516864,205.63130856980524
3.8371705038371706,4.435146292855952,58.852690607768,164.57298915675784,78.1708129822631,126.58669378147454,146.2931102439902,218.1513874196465,206.79467124076652
3.8705372038705375,4.435146292855952,55.654663938441125,167.43664868036558,82.56628382379432,127.70598388498703,145.9187056118638,216.74812461951188,207.97616849069016
3.903903903903904,4.435146292855952,52.409748968137855,170.25867393134317,87.43185060101655,129.2003216403404,145.4765935951457,215.10190951537663,209.07601610620287
3.937270603937271,4.435146292855952,48.83359762838898,167.79486099208646,93.27821599189546,130.40910798200156,145.04866115997075,213.48714605084845,210.32785735348256
