Time,Left Shoulder Angle,Right Shoulder Angle,Left Elbow Angle,Right Elbow Angle,Left Hip Angle,Right Hip Angle,Left Knee Angle,Right Knee Angle
0.0,7.766948531232025,3.588411778600981,196.8923032765744,164.88635043384522,159.33879218889558,211.0887994631801,189.7712227095432,178.04481729607568
0.0333667000333667,6.6737915286846645,4.08856074568023,194.9023818327371,165.77207476549637,159.24709921983762,210.6391121329278,189.7494157682665,177.81168408397116
0.0667334000667334,5.721863419642274,4.477511971028983,193.14141852104945,166.51509093388034,159.21505534742712,210.2660012873884,189.6968677845976,177.60239054778546
0.1001001001001001,4.903115958728675,4.763295894763769,191.6006812182148,167.1271376157457,159.23698030600508,209.96458883730685,189.61666818749904,177.41541033565878
0.1334668001334668,4.2095009005676935,4.953942957001119,190.2714378009364,167.619953487841,159.3071938299125,209.72999669342812,189.51190640593333,177.2492170957314
0.1668335001668335,3.632969999783151,5.05748359785756,189.1449561459178,168.0052772269148,159.42001565349037,209.5573467664974,189.3856718688629,177.10228447614352
0.2002002002002002,3.16547501099887,5.081948257449625,188.21250412986225,168.29484750971574,159.56976551107968,209.4417609672596,189.2410540052504,176.97308612503542
0.2335669002335669,2.798967688838675,5.03536737589384,187.4653496294732,168.50040301299225,159.75076313702144,209.37836120645963,189.08114224405816,176.86009569054733
0.2669336002669336,2.5253997879263883,4.925771393306735,186.89476052145383,168.633682413493,159.95732826565663,209.36226939484263,188.9090260142488,176.76178682081945
0.3003003003003003,2.3367230628858344,4.7611907498048405,186.49200468250768,168.7064243879665,160.1837806313262,209.38860744315363,188.7277947447848,176.67663316399205
0.333667000333667,2.224889268340835,4.549655885504686,186.24834998933795,168.73036761316135,160.42443996837125,209.4524972621376,188.54053786462865,176.60310836820537
0.3670337003670337,2.1818501589152124,4.299197240522799,186.1550643186481,168.7172507658261,160.67362601113268,209.54906076253948,188.3503448027428,176.53968608159963
0.4004004004004004,2.1818501589152124,4.017845254975713,186.20341554714147,168.67881252270928,160.92565849395152,209.6734198551044,188.16030498808985,176.48483995231513
0.4337671004337671,2.1818501589152124,3.713630368979952,186.3846715515214,168.6267915605595,161.17485715116877,209.8206964505773,187.9735078496322,176.43704362849203
0.4671338004671338,2.1818501589152124,3.394583022652049,186.6901002084913,168.5729265561253,161.41554171712542,209.9860124597033,187.79304281633247,176.3947707582706
0.5005005005005005,2.1818501589152124,3.068733656108534,187.1109693947544,168.52895618615526,161.64203192616245,210.1644897932273,187.6219993171531,176.35649498979106
0.5338672005338673,2.1818501589152124,2.744112709465935,187.6385469870141,168.50661912739793,161.84864751262086,210.3512503618944,187.46346678105652,176.3206899711937
0.5672339005672339,2.1818501589152124,2.428750622840792,188.2641008619753,168.5176540566032,162.02970821084295,210.5414160764512,187.3205346370069,176.2858293506201
0.6006006006006006,2.1818501589152124,2.1796193904667445,188.8989012333516,168.64108342086874,162.0597212755333,210.657929038956,187.2025128356611,176.28577563519184
0.6339673006339673,2.1818501589152124,1.9385235602172963,189.56909564181225,168.96995887853348,162.07690050374802,210.79929543106132,187.1096434882894,176.21491854765262
0.6673340006673341,2.1818501589152124,1.739061405197574,190.602893035298,169.39510147947198,162.0540252395111,210.9332409672301,187.07368426310865,176.12963283207233
0.7007007007007008,2.1818501589152124,1.555813182758689,193.5445779204713,169.94863971529333,161.99620009092263,211.0371176547734,187.06503179883688,176.04722733395954
0.7340674007340674,2.1818501589152124,1.481171806411255,193.84517522715288,170.5477678784681,161.97191701440224,211.15358105427973,187.03209428593945,175.9385293401668
0.7674341007674341,2.1818501589152124,1.4562729275164024,194.07228421364644,171.31927390951208,161.8649141611507,211.24798501878536,187.06830542607213,175.81824192106075
0.8008008008008008,2.1818501589152124,1.4562729275164024,194.16481826334297,172.26955853800158,161.6711142055496,211.30221145726304,187.1796788863388,175.71302347473323
0.8341675008341676,2.1818501589152124,1.4562729275164024,195.3590506415144,173.18933980184812,161.39287599937225,211.3764288012131,187.3638158177201,175.61515797733907
0.8675342008675342,2.1818501589152124,1.4562729275164024,198.37478440721432,173.79463432339384,160.99434865960976,211.42192486729968,187.6202395718348,175.52422025541412
0.9009009009009008,2.1818501589152124,1.4562729275164024,200.63134608503503,174.62397939753245,160.5629291911707,211.4515468092569,187.8996843876376,175.4225927892088
0.9342676009342676,2.1818501589152124,1.4562729275164024,202.1368998968196,175.66927566411465,160.16139571519457,211.48092129004544,188.15802451024533,175.30447050733173
0.9676343009676344,2.1818501589152124,1.4562729275164024,201.93398472157568,176.25863265422208,159.72578438465212,211.45529014531505,188.4437954531779,175.20728897267168
1.001001001001001,2.1818501589152124,1.4562729275164024,201.0588480023914,177.01837665511988,159.32239623678174,211.4002464316014,188.70599369783065,175.1190270849456
1.0343677010343677,2.1818501589152124,1.4562729275164024,197.83048192157,177.9004304030936,158.9157895798173,211.29733922708863,188.95454422460065,175.07739997364118
1.0677344010677343,2.1818501589152124,1.4562729275164024,196.30304843299348,181.6681525391197,158.571840482501,211.14703508697983,189.2131796146024,175.06421920222462
1.1011011011011012,2.1818501589152124,1.4562729275164024,194.71128125159493,181.4888922838892,158.266693321239,210.9706448416796,189.4317117748414,175.06248007914348
1.1344678011344678,2.1818501589152124,1.4562729275164024,194.8621467104073,181.65022800876991,157.9983832392548,210.75142002700733,189.65096018108332,175.10572507575472
1.1678345011678346,2.1818501589152124,1.4562729275164024,195.1208473250987,181.88347451493576,157.703191677918,210.475167316596,189.8753748058521,175.18517740938628
1.2012012012012012,2.1818501589152124,1.4562729275164024,194.8471645673401,182.3931728540213,157.45405937074153,210.25973195569853,190.05619223524812,175.25442017903603
1.234567901234568,2.1818501589152124,1.4562729275164024,194.8012994067832,183.1740663770788,157.1967928398485,210.0446760604952,190.21731531212248,175.32979912281456
1.267934601267935,2.1818501589152124,1.4562729275164024,194.0933132057047,184.2455716257978,156.9197378641133,209.8192622698582,190.3916397439744,175.40490717872285
1.3013013013013013,2.1818501589152124,1.4562729275164024,193.69098709198747,191.1857363539114,156.62584588711965,209.57903865444555,190.5785511287717,175.489785999025
1.334668001334668,2.1818501589152124,1.4562729275164024,193.94377285547912,194.7066199145144,156.36754533414688,209.3535312918218,190.7518192175576,175.56582164311686
1.3680347013680347,2.1818501589152124,1.4562729275164024,193.9397921238949,193.6746444224445,156.15605106271605,209.12775127466537,190.92362737940857,175.63208613134765
1.4014014014014016,2.1818501589152124,1.4562729275164024,192.55655299330272,198.06896017420672,155.9236811208616,208.81610441153097,191.11522276250923,175.70327537794563
1.4347681014347682,2.1818501589152124,1.4562729275164024,194.22434243297727,201.23830887582184,155.67601418157648,208.45115953685368,191.2785403115301,175.84994932064689
1.4681348014681348,2.1818501589152124,1.4609054032689153,192.41181199764432,202.6578305096141,155.45023389650115,208.11405458230348,191.3734652006014,175.96101340705226
1.5015015015015016,2.1818501589152124,1.4590184547626075,190.1027376861635,203.63826223109896,155.22587366356834,207.7069206756151,191.4682620836953,176.03408953907663
1.5348682015348682,2.1818501589152124,1.604575246787409,190.2523743689382,202.01436990926487,155.06684440539416,207.2520385989684,191.54908557603983,176.06563862766993
1.5682349015682349,2.1818501589152124,1.604575246787409,186.9612780753643,199.10498498289152,154.98643074863926,206.7618185861701,191.5871820387225,176.0760944591017
1.6016016016016017,2.1818501589152124,1.604575246787409,186.6533894854927,191.7166586109368,154.9783252871783,206.2579181839848,191.5722205158089,176.04818604511422
1.6349683016349683,2.1818501589152124,1.604575246787409,185.59423039002832,184.3223042999171,154.93631977866795,205.73884545498532,191.56269968939608,175.9976000914135
1.6683350016683351,2.1818501589152124,1.604575246787409,186.1928702236165,177.2312408626236,154.89631190155615,205.2742800430578,191.51188676880344,175.91982021472546
1.7017017017017018,2.1818501589152124,1.782414869642461,186.6514678218323,172.24192929748904,154.88265994086836,204.7920332673128,191.45699003114348,175.82216312442006
1.7350684017350684,2.1818501589152124,1.782414869642461,187.51699492762,169.20973554901963,154.92102711893355,204.3832690980952,191.38685133570144,175.66565204981327
1.7684351017684352,2.1818501589152124,1.782414869642461,188.1901188944608,164.57923024065272,155.06324277675412,204.03565889222972,191.2703636182959,175.4648373543366
1.8018018018018016,2.1818501589152124,1.782414869642461,188.7944486345032,159.30631145640135,155.30692606672332,203.6858801872668,191.1308802039136,175.25445705120745
1.8351685018351689,2.1818501589152124,1.782414869642461,189.1314338671764,149.0952829972228,155.75030068417806,203.300940317044,190.9413612745028,175.02710785078455
1.8685352018685355,2.1818501589152124,1.782414869642461,186.02193985251583,138.6615868469437,156.28848010763826,202.9525292648012,190.74022322127067,174.79552096129274
1.901901901901902,2.1818501589152124,1.782414869642461,188.6471158744304,129.19652840213544,156.71169971932486,202.62633587174773,190.61624395416425,174.5598304407294
1.9352686019352687,2.1818501589152124,2.0303710591858244,186.66221956562865,120.23968737532309,157.16594476875156,202.33612879594045,190.46831352883092,174.32944256488875
1.968635301968636,2.1818501589152124,2.0303710591858244,184.10846248560009,111.58710910325831,157.59142626596798,202.11130562913004,190.29537257429652,174.0768185532393
2.002002002002002,2.1818501589152124,2.0303710591858244,184.6435725368068,103.40594075707736,157.8988034318762,201.90900230923825,190.062021614704,173.817883937075
2.035368702035369,2.1818501589152124,2.0303710591858244,182.22833455195104,96.37907746163754,158.26684353223482,201.7399440745536,189.7960014987657,173.54958437921874
2.0687354020687354,2.1818501589152124,2.0303710591858244,179.0173135896595,89.64565077921392,158.65648970775644,201.58686692332492,189.49833401287955,173.30647945610298
2.1021021021021022,2.1818501589152124,2.0303710591858244,175.1988333352655,83.64562870789433,159.03632994822482,201.42412964353608,189.19561918661225,173.10620902395556
2.135468802135469,2.1818501589152124,2.0303710591858244,172.50548544665503,79.51712670860346,159.41977097249958,201.27282582962687,188.86050056992715,172.93824145050044
2.1688355021688355,2.1818501589152124,2.0303710591858244,170.03370647020495,76.3329593050755,159.75334042783342,201.13156907234088,188.5463715006018,172.8031636202247
2.2022022022022023,2.199557489232792,2.0303710591858244,170.11078995308452,74.54084135508388,160.05592214367476,201.000014146985,188.24140571286657,172.67704856070452
2.235568902235569,2.269963013917396,2.0303710591858244,169.65001795073977,73.03203616473111,160.3046183358119,200.8877520904632,187.924551240507,172.5517329186685
2.2689356022689355,2.269963013917396,2.5004728065490305,170.0935504303353,75.28670547158364,160.52579392427984,200.8213082933528,187.59373977681904,172.43632395875338
2.3023023023023024,2.269963013917396,2.5004728065490305,168.9863004497788,76.71958184892532,160.67062230875328,200.7648721707956,187.29244737375603,172.33963288116067
2.335669002335669,2.385018487592846,2.5004728065490305,167.4118850380118,79.7788277160817,160.80419275027668,200.743122220905,186.98236401441275,172.24923643189393
2.369035702369036,2.385018487592846,2.5004728065490305,166.1280432658921,84.47517817352123,161.00087247308542,200.761375270896,186.61721419411543,172.15200263792204
2.4024024024024024,2.385018487592846,2.5004728065490305,164.3575641396194,90.81244374760776,161.22341633369442,200.8129119955404,186.23430161620428,172.05789700723247
2.4357691024357693,2.385018487592846,2.5004728065490305,162.98645543635044,98.93332925537332,161.39465610873515,200.86149493036044,185.872624495694,171.98098663369166
2.469135802469136,2.536675664882969,2.5004728065490305,162.53628624053823,101.52141842083329,161.57361861781067,200.9055406047767,185.5193272512933,171.9353342707358
2.5025025025025025,2.536675664882969,2.5004728065490305,156.66443357846356,106.55432665360736,161.74347593896843,200.95933106691533,185.18098687838275,171.90059151606255
2.5358692025358693,2.536675664882969,2.5004728065490305,151.51580597066032,116.72082789108276,161.8962699565795,201.023397928743,184.83675461485723,171.88374521004292
2.569235902569236,2.536675664882969,2.5004728065490305,147.31529549321056,121.464174799847,162.05151793766183,201.12033653029093,184.46600294373505,171.8519628189576
2.6026026026026026,2.536675664882969,2.5004728065490305,140.2025723313304,125.6242408430266,162.23970898677806,201.21858139528527,184.11831668669285,171.7641356228559
2.6359693026359694,2.716886300411584,2.5004728065490305,136.587184631984,129.55798489963323,162.41644879173154,201.25698193068,183.7941578661338,171.6834149747527
2.669336002669336,2.716886300411584,2.5004728065490305,133.24635569637613,131.57385759839042,162.5614371249,201.3170962114416,183.5199629094785,171.60809239235394
2.702702702702702,2.716886300411584,2.5004728065490305,129.41115009194957,133.9060100190787,162.6826272101928,201.4067475747106,183.2957053707966,171.52917431629118
2.736069402736069,2.716886300411584,2.5004728065490305,129.78929249513075,135.65066021790756,162.76944145813482,201.53587792523936,183.13090866692133,171.40148682576535
2.7694361027694363,2.9176021488025548,2.5004728065490305,128.34326587190986,141.11182663870224,162.79537278018384,201.713493905334,183.01616666219505,171.26096722650243
2.802802802802803,2.825341984063129,3.100770313486076,127.26253925994546,146.95231378246922,162.84599210287317,201.9514141281929,182.950248882423,171.11452930030083
2.836169502836169,2.6962737535469974,3.100770313486076,126.28018239058513,153.566844332979,163.029088367296,202.2299405734745,182.8843553934172,170.93923118462914
2.8695362028695364,2.44216265056082,3.100770313486076,126.08472190092984,157.76427596901974,163.32117909319422,202.6269801072096,182.78387744344943,170.7213554259816
2.902902902902903,2.82610183959146,3.100770313486076,126.52024891741418,158.42591718496783,163.7281910736247,203.0750830065736,182.6318245997555,170.45665741666767
2.9362696029362696,2.74712007573282,3.100770313486076,127.4482967108777,158.059921482352,164.23514557239443,203.5021790766185,182.47789016490484,170.20854656650502
2.9696363029696364,2.8585644699431416,3.100770313486076,128.3600357948715,155.49336943414318,164.81091590342768,203.96984158072388,182.29028205804065,170.00396095444987
3.003003003003004,2.8585644699431416,3.100770313486076,129.54952396035674,156.4593784666351,165.37061835999873,204.51953692912068,182.0302074237377,169.84193853570218
3.0363697030363697,2.8585644699431416,3.100770313486076,132.23037353156013,157.84997720332652,165.84416316667114,205.05513356159204,181.80487528544475,169.69550307375528
3.0697364030697365,2.8585644699431416,3.100770313486076,132.31956549615083,158.1600614453146,166.2892143887358,205.63567525128732,181.60345587866044,169.57458838804467
3.103103103103104,2.8585644699431416,3.100770313486076,136.43862694527724,157.4760828878314,166.61909925518088,206.3565827835345,181.49426628431,169.48987733988318
3.1364698031364697,2.8585644699431416,3.100770313486076,142.9662721471377,156.22867299034806,166.87482210744204,207.20437322872104,181.44478221178576,169.52201320170252
3.169836503169837,3.1973849639010403,3.100770313486076,145.24513838883294,157.74586547925446,167.22920377533708,207.9048158012949,181.4579507510061,169.6323569023243
3.2032032032032034,3.1973849639010403,3.100770313486076,148.07885165377914,154.55864264027227,167.6551869743684,208.54487802051327,181.47912785592507,169.9016660442797
3.2365699032365702,3.1973849639010403,3.100770313486076,149.76305001061397,155.97352957153478,168.20758899999495,209.1729414560479,181.5001511393488,170.19193886721948
3.2699366032699366,3.1973849639010403,3.100770313486076,152.2608469642847,156.30801088085622,168.7846525637664,209.6987259512381,181.54144412340108,170.60677187592532
3.3033033033033035,3.1973849639010403,3.100770313486076,155.1415316906804,155.1462321640727,169.27874854944142,210.12046185674825,181.7210101919094,171.04594656419337
3.3366700033366703,3.1973849639010403,3.100770313486076,160.4907307241139,152.82962562384918,169.74142205815363,210.4604138754757,182.07054289599412,171.58647507419556
3.3700367033700367,3.1973849639010403,3.100770313486076,164.67559488403026,149.12897667801468,170.23917716662675,210.81164783261545,182.45941311580185,172.10267105314813
3.4034034034034035,3.1973849639010403,3.100770313486076,169.63719677345898,140.65825631248717,170.61217117015244,210.94712475467983,182.87271085345537,172.89355491192157
3.4367701034367704,3.1973849639010403,3.100770313486076,174.80776853243222,131.11107650141415,171.01867648851382,211.06687403391285,183.3689111100143,173.81599163952407
3.4701368034701368,3.1973849639010403,3.823726270727604,179.88001061697406,123.927322366722,171.4248751235298,211.366923743106,183.9222415660865,174.6920172053927
3.503503503503504,3.1973849639010403,3.823726270727604,184.3716962386275,117.61704947113384,170.490069104383,212.3429879814358,184.73794873723145,176.83539109566826
3.5368702035368704,3.1973849639010403,3.823726270727604,188.2299685918468,112.59313076869272,170.9947921540259,212.6538306864724,185.60260567522468,177.64803918740182
3.5702369035702373,3.1973849639010403,3.823726270727604,191.80971438398643,108.6303780632167,171.6639153230338,212.682276260692,186.6282726475082,178.55169707492433
3.603603603603604,2.8961321429552,3.823726270727604,194.3160201385254,105.46667511162627,172.4752089445841,212.77493776433693,187.36743788959137,179.64539122634426
3.6369703036369705,3.116161019006889,3.823726270727604,193.2821768703691,102.9731666676074,173.18792259544625,212.71262164911647,188.0863739289879,180.9381477979128
3.670337003670337,3.8275805172002766,3.823726270727604,195.43633031485885,100.828066825549,173.77405776511668,212.7401559346896,188.82983615962965,182.22950471424832
3.703703703703704,3.8275805172002766,3.823726270727604,197.0320306231114,99.7766696403342,174.32434689432603,212.8940223476336,189.542629902028,183.42676260263391
3.737070403737071,3.8275805172002766,3.823726270727604,199.6611358995812,99.80291206196264,174.84020089593875,213.14990148298185,190.2535214249916,184.583966125086
3.770437103770437,3.8275805172002766,3.823726270727604,201.9395854592105,101.29094024226508,175.31605334131828,213.44451696801767,190.93220034579792,185.8109096893465
3.803803803803804,3.8275805172002766,3.823726270727604,203.56638266073068,102.87228797094282,175.8078568991863,213.7513604388033,191.55198386448285,187.14078054303724
3.8371705038371706,3.8275805172002766,3.823726270727604,205.71433427634287,104.83591977862216,176.3301950131695,214.0442786031744,192.1042221699693,188.60618217651685
3.8705372038705375,3.8275805172002766,3.823726270727604,206.2792536675962,107.70402476926816,176.83068808369163,214.33973739266568,192.5379417305224,190.1655578559428
3.903903903903904,3.8275805172002766,3.823726270727604,206.01943397738447,111.28224997158291,177.40214225853347,214.68984885273096,192.8541113603688,191.73777285197272
3.937270603937271,3.8275805172002766,3.823726270727604,205.08489699031543,115.31313270607252,178.03042777583138,214.76307935196124,193.24591304052208,193.32820015326703
