Time,Left Shoulder Angle,Right Shoulder Angle,Left Elbow Angle,Right Elbow Angle,Left Hip Angle,Right Hip Angle,Left Knee Angle,Right Knee Angle
0.0,45.66322361717412,25.21214199847236,183.27909068619016,129.633231007486,127.11476498502071,132.5063939740463,207.4579041551932,206.83267771273128
0.0333667000333667,43.83949866656242,21.186546680671974,181.0151274754172,123.30040282400492,129.06152121852182,132.9812769744767,207.54683715571767,207.49359460377016
0.0667334000667334,42.25302585450026,17.762227949396603,179.0542990756691,118.02054715092332,130.71861512932705,133.42444916238918,207.63652964215385,208.065609138168
0.1001001001001001,40.8904902782853,14.904688956453844,177.38034863848742,113.73243314872376,132.09831381213897,133.83774434968362,207.7309498961449,208.55167510397663
0.1334668001334668,39.73857703521522,12.579432853651308,175.97701931541374,110.37482997788877,133.21288436166023,134.22299634825995,207.83406619933385,208.9547462892484
0.1668335001668335,38.78397122258769,10.751962792796594,174.8280542579897,107.88650679890092,134.0745938725934,134.5820389700181,207.94984683336384,209.2777764820353
0.2002002002002002,38.01335793770038,9.38778192569731,173.9171966177569,106.20623277224276,134.69570943964106,134.91670602685795,208.082260079878,209.52371947038944
0.2335669002335669,37.41342227785096,8.452393404161054,173.22818954625694,105.27277705839688,135.08849815750585,135.2288313306795,208.2352742205195,209.69552904236284
0.2669336002669336,36.97084934033711,7.9113003799954384,172.74477619503145,105.02490881784584,135.2652271208904,135.52024869338263,208.41285753693137,209.7961589860076
0.3003003003003003,36.672324222456496,7.730006005008061,172.45069971562202,105.40139721107217,135.2381634244972,135.79279192686727,208.6189783107568,209.82856308937585
0.333667000333667,36.50453202150679,7.874013431006528,172.32970325957027,106.34101139855846,135.01957416302898,136.04829484303335,208.85760482363884,209.79569514051963
0.3670337003670337,36.45415783478566,8.308825809798446,172.36552997841778,107.78252054078727,134.62172643118825,136.2885912537808,209.13270535722063,209.70050892749103
0.4004004004004004,36.50788675959079,8.99994629319141,172.54192302370618,109.6646937982412,134.05688732367764,136.5155149710095,209.44824819314536,209.5459582383421
0.4337671004337671,36.65240389321984,9.912878032993031,172.84262554697705,111.92630033140274,133.33732393519975,136.73089980661945,209.80820161305604,209.33499686112503
0.4671338004671338,36.87439433297048,11.013124181010918,173.25138069977203,114.5061093007545,132.4753033604572,136.9365795725105,210.21653389859583,209.0705785838918
0.5005005005005005,37.16054317614039,12.266187889052658,173.75193163363272,117.34288986677902,131.48309269415256,137.13438808058265,210.6772133314079,208.7556571946945
0.5338672005338673,37.49753552002724,13.637572308925868,174.32802150010073,120.37541118995888,130.37295903098843,137.32615914273575,211.1942081931353,208.39318648158527
0.5672339005672339,37.87205646192906,15.092780592438332,174.96339345071914,123.54244243077748,129.15716946566857,137.51372657087086,211.7714867654228,207.98612023261785
0.6006006006006006,38.11096649349017,16.577363592443806,175.24023934239847,126.667347193577,127.50446173746111,137.55941222941024,213.06622134646128,207.6258950929735
0.6339673006339673,38.4066344696676,17.7109638652962,175.65108994730522,129.2309495653242,125.72373709844156,137.80121533052434,214.3887508491568,207.1185536217911
0.6673340006673341,38.77191180350227,18.78081052044814,176.1819130825494,131.74371403094028,123.96009127656627,138.10226134388958,215.6372149428932,206.53516810363053
0.7007007007007008,39.04430974050157,19.924677013996764,176.64950148313233,134.48032185691935,122.25947710699823,138.44681013200875,216.89078013182785,205.83640156630656
0.7340674007340674,39.27341936040204,21.470809257400308,177.17320651206737,137.34280397550287,120.25590864031722,138.8700767524182,218.24134333269024,205.5566857051024
0.7674341007674341,39.47746752327969,23.018769085427262,177.84681221302694,140.13534075293975,118.73243922213574,139.15855605283957,219.01263672417025,205.21702509312308
0.8008008008008008,39.69103572498148,24.439398784604247,178.63920745730968,142.7238127321799,117.49673342298036,139.2692666318468,219.92487409301748,204.2118453235608
0.8341675008341676,39.802982639049326,25.036131854600075,179.3205655685583,144.115497246568,116.43886208165006,139.4006628897303,220.9002620301828,203.15387269413435
0.8675342008675342,39.89709493683012,25.30916372672228,179.99927099044265,144.72460531179996,115.59319027395472,139.4934006217549,221.69293392998284,202.27905069440305
0.9009009009009008,39.97667243752028,25.323607275923983,180.67170294180332,145.48776810961638,114.9221290463275,139.5752599855675,222.3120837716019,201.4739308474232
0.9342676009342676,39.99391845699327,25.3048794813043,181.14463499668588,146.51132012414791,114.47418273524214,139.66945894045188,222.61821660854764,200.65460893031684
0.9676343009676344,39.96172403912948,24.999565084330207,181.4965901740817,147.0774986559195,114.18163670998312,139.75778405870176,222.721270862069,199.88233170624963
1.001001001001001,39.87685044696418,24.41645326811678,181.450494980898,147.09613308833116,114.04088090701234,139.83266400180287,222.68564634814453,199.15174073782737
1.0343677010343677,39.74124355269061,23.56716817617948,181.39442746383185,146.43488699141312,114.02608183062208,139.90634543434575,222.34171006672128,198.4657963153202
1.0677344010677343,39.4842342930307,22.338928192494727,181.19718353807767,145.3735130899598,114.23776691129858,139.89630461500855,221.6923684319144,197.96076124440845
1.1011011011011012,39.1439413442775,21.258688159894177,181.1698262160544,144.94701875379454,114.54351925613926,139.8887722859593,220.91356660471268,197.48525389874507
1.1344678011344678,38.95786811714404,20.056767297351847,181.18393582753296,144.4457757350309,114.97651603072948,139.95027252159588,220.01172770556803,196.9695592346967
1.1678345011678346,38.678119210116094,18.85054141735406,181.4466370680988,143.56354615552414,115.45980948694164,139.9917139389478,218.8650298584424,196.5122834161699
1.2012012012012012,38.28234796188496,17.55915417049446,181.48465083888067,142.15218281461898,115.96395142347264,140.09454246673926,217.55929365140184,196.0480740025856
1.234567901234568,37.71059239143826,15.883627889685492,181.66741544626083,140.04386227708957,116.54172812394778,140.24431224141037,216.3542227448787,195.626215964922
1.267934601267935,37.3063665753152,13.325440897011442,181.8605138857849,136.311081384049,117.23107542674016,140.4338773506982,215.05163808985264,195.2103531041841
1.3013013013013013,36.77970027326253,12.019016114802149,182.34283441556823,134.39227642223906,117.81041615044192,140.66019501214697,213.8642969106048,194.82232409872788
1.334668001334668,36.17780157156402,11.479759155077426,186.6517890576613,134.68071872754606,118.44802698154987,140.92222268545294,212.7077374009293,194.47631666451977
1.3680347013680347,35.36415022938086,10.857923679355304,190.226594955736,133.90566453121374,118.93857438949526,141.18829137233942,211.69625005323653,194.2089571757266
1.4014014014014016,34.0643879953512,10.618245056085367,189.01601022655188,132.52504616038982,118.96404421977412,141.505001450408,210.7429476082272,193.9735004062209
1.4347681014347682,32.59952920995187,10.301964799643397,192.13018201666057,130.9320179380328,119.00673539734234,141.86150350241752,209.9153959876253,193.83112155851285
1.4681348014681348,30.99540418300793,9.258136140496516,194.526458238768,129.5104745992332,119.0388090705483,142.1992115195739,209.1072686490099,193.7975048835134
1.5015015015015016,29.39094439600905,8.134281442130082,196.12796022548585,127.5711094752877,118.69345419318532,142.5492134639381,209.27239999745728,193.8930501001608
1.5348682015348682,27.30428839870861,7.0937287586146525,197.3340959750079,125.3257964125955,118.32859746905284,142.8926412859153,209.38499918945885,194.03579358043083
1.5682349015682349,25.34949274860864,6.1940254860304265,197.68642897188377,123.17052051069956,117.5729144461914,143.24789021728685,209.8962084388133,194.18323949407304
1.6016016016016017,23.639840406951908,5.384619562946929,197.582756489,120.5910289482337,116.71802071391906,143.6256677103711,210.55757372293309,194.3396097237225
1.6349683016349683,22.29755200538331,5.029924909663876,196.9433420065144,118.2311783983704,115.73323060312956,143.93669532833212,211.6080190939556,194.5969478421087
1.6683350016683351,20.88923180035541,4.811950165135776,195.41570998170448,114.99568806654143,114.62361555543094,144.1978757977792,212.9235288254704,194.9355273489197
1.7017017017017018,19.549734091253843,4.811950165135776,192.93983446799865,111.66245652037776,113.21312689212958,144.4705649408036,214.69510983683995,195.2053612177268
1.7350684017350684,18.216562162752467,4.811950165135776,189.7966281368085,106.81482583689728,111.70504935539648,144.7530373832791,216.94995186309703,195.4707933867216
1.7684351017684352,17.28303565124998,4.811950165135776,186.27233373574663,101.43969609538529,110.5261299751993,145.04616945755168,218.93807398967508,195.72284681685505
1.8018018018018016,16.514865853761066,4.811950165135776,182.51717828375808,96.15289412860652,109.57739810410042,145.26151606520762,220.9133460198392,195.96543993965952
1.8351685018351689,16.09867650596243,4.811950165135776,178.53404681822107,90.93706733106472,108.71194380621606,145.45307917952653,222.8789314603933,196.17555228209284
1.8685352018685355,15.910378797142627,4.811950165135776,174.36312385163572,85.98664442657793,107.97359401590415,145.5576974610722,224.77296661629344,196.3827322862942
1.901901901901902,16.18985938230276,4.811950165135776,170.09664447397523,81.07824094138753,107.8165532109732,145.4125243810755,226.42238964691413,196.1120073581857
1.9352686019352687,8.266550520404087,4.811950165135776,165.5986549185312,75.9464426752836,107.54592076068054,145.29153966356068,228.4825145098009,195.5948504461401
1.968635301968636,12.07104589722102,4.811950165135776,161.0642124718729,70.96204693111265,107.20771663633036,145.2593547369922,230.30315598875208,195.60304085546483
2.002002002002002,16.337032597815984,4.811950165135776,156.57555030815035,66.20292239105267,106.93109648557014,145.20552695613415,231.8254583344456,195.7480305840243
2.035368702035369,20.75170352033832,4.811950165135776,151.96265033981211,61.89882221933176,106.73120510648776,145.1734162365297,233.17713049963,195.80309395450195
2.0687354020687354,16.507405426304466,4.811950165135776,146.9285539934393,57.96761875339403,106.6563590278592,145.15140148120753,234.3501103180849,195.77621910806772
2.1021021021021022,15.092643542023938,4.811950165135776,142.10259693467123,53.813582029963584,106.6438810551272,145.0897064505548,235.39745340261047,195.7951859125212
2.135468802135469,16.194599502654494,4.811950165135776,137.62213664505617,49.92213788811769,106.71022758411638,144.9960375755312,236.32223322684567,195.8608760025501
2.1688355021688355,19.638730779266808,4.811950165135776,133.77731464318077,46.46245725429815,106.90619903620556,144.8836439986856,237.091290999958,195.9649967484389
2.2022022022022023,25.28828282389063,4.811950165135776,130.29880795106038,43.41953518175439,107.16569231269555,144.71670552849022,237.78680626168568,196.1477174058828
2.235568902235569,32.95888741559253,4.811950165135776,127.49117534282708,40.54121344212782,107.39184264334035,144.60290500620445,238.4693564161136,196.25299737296228
2.2689356022689355,51.05119897928255,4.811950165135776,125.21554846807506,38.10507522421515,107.6887953737209,144.54162581599303,239.1096770057728,196.308248314484
2.3023023023023024,67.84792969422175,4.811950165135776,123.59967331487046,35.95181242687323,108.01873178357772,144.48928567764463,239.63414018813123,196.3440205774666
2.335669002335669,83.42706789185674,4.811950165135776,122.57883401444982,34.040173794202495,108.24235899874633,144.54436795057902,240.12946668140424,196.2381834772792
2.369035702369036,97.80294063852205,4.811950165135776,122.6464500540898,32.601811872351625,108.49144055651,144.59241917381198,240.4467226709458,196.194627616996
2.4024024024024024,111.05070524536062,4.811950165135776,123.47265504651372,31.87122605732604,108.76429157551166,144.5521047311315,240.6526237909618,196.20630761475525
2.4357691024357693,122.70974941864218,4.811950165135776,125.52552155273246,32.595422841692724,108.98562574553875,144.53387486627824,240.8057237600606,196.2657337194051
2.469135802469136,132.9782616153568,4.811950165135776,128.64577480479107,34.23308586349065,109.21132581890778,144.60341060530294,240.86086817075304,196.20008580284252
2.5025025025025025,141.63458813976695,4.811950165135776,128.32792660654513,34.51756452205332,109.39822068457642,144.70858540216682,240.87024682200345,196.1094812807517
2.5358692025358693,148.5006063138174,4.811950165135776,127.45893222597914,34.839959342075495,109.51110182025498,144.79217472636068,240.81455070051652,196.02981910838847
2.569235902569236,154.09633163895205,4.811950165135776,131.98108743745237,35.878506856331875,110.04290031510232,144.84932758337635,240.61114476205424,195.9721646255517
2.6026026026026026,159.39755626988435,4.811950165135776,133.4927777689194,35.669759645553086,110.40903493705058,144.98490992452813,240.2475412640269,195.9981872484805
2.6359693026359694,163.3720979709637,5.052058024279938,135.23481773162828,35.420019064667706,110.78559984569794,145.1436923557975,239.6739757346611,196.04723444787624
2.669336002669336,164.8562439216012,5.813301382221821,133.11755640650068,34.85962474180899,111.21170450198642,145.2735736101173,238.9522017327795,195.98770223082087
2.702702702702702,165.0065402992294,6.919555794503296,131.35953968073807,34.53530364799871,111.60393086716356,145.36730962243033,238.13630132876585,195.97252136749933
2.736069402736069,164.1959810708863,8.40884758934979,129.7125727469212,33.77376016748918,112.11177291389755,145.4745302967173,237.36004732439565,195.9585259531381
2.7694361027694363,161.2733369630733,10.33666957721972,128.30836324516451,33.22651637805937,112.63374420881354,145.51059886432503,236.63281663309533,196.0241403992164
2.802802802802803,155.79484025610165,12.659310654265456,127.7941097400492,29.825273098012264,112.99666718818835,145.58513403613696,236.00768446140447,196.0820670523144
2.836169502836169,148.97984686128362,14.913504406679122,128.22109938543318,27.448044610947527,113.31491483806045,145.71356391735014,235.2895601997587,196.0495092112098
2.8695362028695364,140.2968290069091,17.07028199191004,130.12731830297113,25.689434214981755,114.06341479696064,145.7170688709752,234.2794959964287,195.9851437227097
2.902902902902903,130.59131075926442,19.23742143334055,132.4789784170908,26.514592719072184,114.84531201522384,145.73859014599614,233.108868219294,195.88204608547
2.9362696029362696,119.56534031919536,21.46791646732113,135.68763746554515,29.153436900964262,115.08557112628364,145.7238859759686,232.30986486320245,195.75352334904807
2.9696363029696364,107.61073576846596,23.81119140721034,138.95236514736433,32.453526191835046,115.0252735754282,145.68596189466265,231.61743414107443,195.6507529377436
3.003003003003004,94.29615465953428,26.185928684378407,142.17572023733734,35.78137509172885,114.99632062900092,146.56605414085206,230.35087686471783,194.90450907332897
3.0363697030363697,80.1612313025323,28.43692079272408,145.50629480312952,39.03773921504502,115.03991050538328,147.341400287078,229.0591132396362,194.3862965875935
3.0697364030697365,65.02082108835364,30.72046633056384,149.03913809159775,42.33702652903673,115.22375879237464,147.3869054194311,227.8530134802036,194.1366023711833
3.103103103103104,60.49942279559495,33.01188684451432,152.73637136863383,46.07634627049315,115.51297336799742,147.16268932136887,226.5902438340025,194.05340521921843
3.1364698031364697,46.56118665779712,35.29846593234103,155.9469597916933,50.390641540356576,115.66072027329167,146.91827910498347,225.4672072373532,194.26943434524463
3.169836503169837,31.860226076158806,37.69143763655803,159.3807847003875,55.406251350902814,115.9184792017868,146.60872750528938,224.2953568699566,194.6654466752989
3.2032032032032034,16.497984891957916,40.15995946726899,163.14273655820193,59.110629248844944,116.29125678138384,146.29407699142786,223.11230994235905,195.34938921706072
3.2365699032365702,12.24700755817937,42.669811794872594,167.47492895459638,64.11358872407295,116.81142731402994,145.88732175726932,221.7426587691886,196.1406095234072
3.2699366032699366,9.70938804426104,45.2205226354153,171.66515469035582,68.83468193197389,117.87988360773603,145.3006711647138,220.28583839158745,197.1795204341471
3.3033033033033035,9.669273189065152,47.65132285871721,175.13354749725036,74.42096065591352,119.04218608507384,144.3952701454263,218.8927086448952,198.2977469890214
3.3366700033366703,13.041849463001238,49.99851319584639,179.3855972949896,81.09982779551409,120.33088096273345,143.68497855377052,217.6317506664908,199.4765114882887
3.3700367033700367,18.728750483412885,52.59800486194738,182.45544737949805,89.04525487581088,121.59339232180672,143.04380864466742,216.55334611649224,200.48556138899067
3.4034034034034035,27.7938206400287,54.90330034219877,185.9166147215465,98.57655105474514,122.93264186661388,142.64464786748752,215.3623746864056,201.3669981411343
3.4367701034367704,28.31479987920076,56.49717691061877,188.67327430465772,107.74664171939348,124.20931991885368,142.22550377239833,214.1461380168492,202.0716306428838
3.4701368034701368,29.88532816702749,57.65322624648439,190.5347150907428,108.61551430382114,125.2624371227776,142.04559148921663,212.9777733086127,202.8871659973971
3.503503503503504,31.482811745541127,57.75848198651924,192.125100659646,119.44875120590866,126.23701860623638,141.52427634265962,211.39692767462824,203.3568200011194
3.5368702035368704,32.45778873201861,57.80650959088764,195.61552396655784,129.88800941177382,127.22050006633228,140.62633123081903,210.1050066585132,203.7525234105284
3.5702369035702373,27.87004431783997,57.9076126853798,193.43164753899887,136.00673499730982,128.18927627631882,140.0782179687797,208.78873902306492,203.9643829010081
3.603603603603604,24.968097247687457,57.97118460400209,190.9114274135663,132.9936504740758,129.15110294509947,139.76358388020026,207.61132737124743,204.01393875828387
3.6369703036369705,23.89913169027255,57.65945612948215,186.74187188072136,132.60419895389046,130.13829573148368,139.4980134999072,206.5702985483194,204.1873416416932
3.670337003670337,24.47964236777868,56.15918520073068,186.2127053710918,132.33113959257773,131.16519621969724,139.3262807016949,205.5822029735617,204.4166306747012
3.703703703703704,26.159472988047423,54.51979387009828,180.4642594473557,132.84735826755275,132.230021711702,139.34477301518424,204.56915616796343,204.63297243588
3.737070403737071,29.49196833370492,52.658536205285664,174.4016025001514,132.14832473928627,133.2878627063668,139.63699275597946,203.5677800473103,204.68489004448955
3.770437103770437,32.65991887755879,50.82678558453116,166.69515853562044,133.7244766349329,134.50556372010558,140.06199096577362,202.5496857308924,204.53160093755565
3.803803803803804,36.20900266400557,48.94615894091838,157.54816157824752,135.39373581802997,135.7323107019907,140.56715516390312,201.66063013626345,204.13823261995225
3.8371705038371706,40.20415104709417,46.88920431101416,154.18738231151542,137.95875278874527,136.86726805609524,141.14309021856783,200.90683700814893,203.7179823640584
3.8705372038705375,45.08624826445026,44.91417749921243,151.26977031067554,140.2606968161986,137.85619560398695,141.75570380115846,200.43403820068897,203.2108475112529
3.903903903903904,50.10523513288287,42.57869662608203,149.13904364977685,142.51991900600416,138.56822333142767,142.32546583753697,200.1641547089697,202.6903369389057
3.937270603937271,55.9525863746306,40.02078736848592,147.63028406975783,144.41315894007283,139.10049067301964,143.01347976342512,199.9833175328116,201.9722988376024
