Time,Left Shoulder Angle,Right Shoulder Angle,Left Elbow Angle,Right Elbow Angle,Left Hip Angle,Right Hip Angle,Left Knee Angle,Right Knee Angle
0.0,1.6389018520322869,0.1693835389037259,184.3846054064002,173.24369496112624,168.05134990261232,211.46931286233144,184.1962230148188,177.51436414196243
0.0333667000333667,1.6629444603168493,0.1693835389037259,184.29468894141743,173.762087660963,168.53042737872318,211.8966668882708,183.5994368873784,177.18662689357294
0.0667334000667334,1.6763912296322212,0.1693835389037259,184.17190293465103,174.21998922978435,168.946528257709,212.28288524804807,183.0725479060796,176.85726832667626
0.1001001001001001,1.6800322152670455,0.1693835389037259,184.0208388031088,174.6214688287256,169.30221096659116,212.6291401221354,182.61297609577383,176.5290250410428
0.1334668001334668,1.6746574725099652,0.1693835389037259,183.84608796379828,174.97059561892203,169.60003393239103,212.93660369100493,182.21814148131287,176.2046336364431
0.1668335001668335,1.661057056649623,0.1693835389037259,183.65224183372743,175.27143876150893,169.84255558213005,213.2064481351288,181.88546408754829,175.88683071264765
0.2002002002002002,1.640021022974662,0.1693835389037259,183.44389182990395,175.52806741762166,170.03233434282953,213.43984563497915,181.6123639393317,175.57835286942685
0.2335669002335669,1.6123394267737243,0.1693835389037259,183.2256293693356,175.74455074839548,170.1719286415109,213.6379683710281,181.3962610615147,175.28193670655122
0.2669336002669336,1.5788023233354536,0.3150274688370084,183.00204586903016,175.92495791496574,170.26389690519554,213.80198852374787,181.23457547894893,175.00031882379125
0.3003003003003003,1.540199767948492,0.3150274688370084,182.7777327459953,176.0733580784677,170.3107975609048,213.93307827361053,181.1247272164861,174.7362358209174
0.333667000333667,1.4973218159014827,0.3150274688370084,182.55728141723893,176.1938204000367,170.3151890356601,214.03240980108825,181.0641362989777,174.49242429770013
0.3670337003670337,1.4509585224830686,0.3150274688370084,182.34528329976868,176.29041404080803,170.2796297564828,214.10115528665315,181.0502227512754,174.27162085390992
0.4004004004004004,1.4018999429818926,0.4311530634829433,182.1463298105924,176.367208161917,170.20667815039428,214.1404869107774,181.08040659823084,174.0765620893173
0.4337671004337671,1.350936132686597,0.4311530634829433,181.96501236671776,176.42827192449894,170.09889264441594,214.1515768539332,181.15210786469564,173.9099846036927
0.4671338004671338,1.2988571468858252,0.520174226807802,181.8059223851526,176.47767448968915,169.95883166556914,214.1355972965925,181.26274657552145,173.77462499680658
0.5005005005005005,1.2464530408682195,0.5845048627778562,181.67365128290464,176.5194850186229,169.7890536408753,214.0937204192276,181.4097427555598,173.67321986842944
0.5338672005338673,1.1945138699224231,0.6265588753593774,181.5727904769816,176.55777267243553,169.59211699735576,214.02711840231063,181.5905164296624,173.60850581833176
0.5672339005672339,1.1438296893370898,0.6487501685186371,181.50793138439283,176.59660661226374,169.37058016203332,213.9369634263155,181.80248762268224,173.58321944628543
0.6006006006006006,1.1438296893370898,0.6534926462219068,181.5586983214425,176.64455773038145,169.06826496397585,213.76296357883191,182.10267984006617,173.65876127953902
0.6339673006339673,1.1438296893370898,0.6432002124354583,181.56345442690463,176.60639760859266,168.75297906937914,213.5164556469051,182.41391245272445,173.91747897041276
0.6673340006673341,1.1438296893370898,0.6202867711255629,181.62008097211063,176.59022709615488,168.4242204994012,213.2571157358099,182.7358282347674,174.2563102813267
0.7007007007007008,1.1438296893370898,0.5871662262584922,181.8166143095541,176.72928901297607,168.11835186332016,213.00905054601665,183.0102443772399,174.6119945288418
0.7340674007340674,1.1438296893370898,0.5462524818005176,182.1763878828052,176.95081940186725,167.78799990356683,212.7367993678215,183.3090564627091,175.01333846379055
0.7674341007674341,1.1438296893370898,0.499959441717911,182.52312129356395,177.2569242381869,167.47221184303362,212.5353023054282,183.616635842984,175.41832774663635
0.8008008008008008,1.1438296893370898,0.4507010099769436,182.998853834044,177.62666209637922,167.1789592765917,212.3556476522067,183.92753702885204,175.846790388371
0.8341675008341676,1.1438296893370898,0.4008910905438875,183.36342324759565,178.06893988060378,166.89676101826697,212.0758169763889,184.2484163533244,176.46946160370527
0.8675342008675342,1.1438296893370898,0.3529435873850135,183.81172339658605,178.53665782890377,166.6459551673921,211.81130481444129,184.57187577225767,177.08824305030438
0.9009009009009008,1.1438296893370898,0.3092724044665935,184.35471249472064,178.9098869100945,166.4262191611644,211.6747037313452,184.89858921412625,177.5348102221555
0.9342676009342676,1.1438296893370898,0.2722914457548972,185.0217054886139,179.29539195611005,166.2460922433745,211.6075877465579,185.21432296505145,177.88778162419652
0.9676343009676344,1.1438296893370898,0.2590991276784408,185.69764798772337,179.60335524607044,166.14213076267075,211.64915277252183,185.50997704495447,178.18646433516147
1.001001001001001,1.1438296893370898,0.2369935571784617,186.4913148690836,179.9371310628599,166.095149008162,211.7630646584471,185.7825505165817,178.37017161457985
1.0343677010343677,1.1438296893370898,0.2421986155299346,187.50972747564944,180.09811914325388,166.10516939632234,211.9310066482869,186.0189161762403,178.43221761070757
1.0677344010677343,1.1438296893370898,0.2089447621024363,188.582092252158,180.3059144145909,166.14727116929322,212.1326866881496,186.24483213323867,178.36278826586403
1.1011011011011012,1.1438296893370898,0.1926868487910781,189.9353427736507,180.44089039911424,166.21095193717613,212.33608559370083,186.48410036561427,178.2029395744263
1.1344678011344678,1.1438296893370898,0.1513864353330161,191.21505080985497,180.63033752608817,166.30856322434164,212.5432604310301,186.703678861059,177.96116970604095
1.1678345011678346,1.1438296893370898,0.1572813197909136,192.2191003945873,180.7026694215384,166.43962442389753,212.76018734540253,186.8844584399038,177.65975937060531
1.2012012012012012,1.1438296893370898,0.1205530002276076,193.18549466135067,180.85922570185647,166.6012187998659,212.97511422524653,187.03133191637656,177.29588864859858
1.234567901234568,1.1438296893370898,0.1866170713951756,194.00386503660548,181.1513149512436,166.80442375925037,213.20517677915663,187.11130369177627,176.84933035045347
1.267934601267935,1.1438296893370898,0.3675640152890351,194.76274773269608,181.52860082916243,167.0168047973317,213.4208538340209,187.14924909269973,176.34356795700364
1.3013013013013013,1.1438296893370898,0.6749039912929258,195.01791798779624,181.8072959081985,167.2860000093724,213.6399613179878,187.1244593182272,175.77549688492414
1.334668001334668,1.1438296893370898,0.6749039912929258,195.27254141787355,182.1817145493864,167.57031451097217,213.87430028634307,187.08691934684293,175.15044091560458
1.3680347013680347,1.1438296893370898,0.6749039912929258,194.7785510969749,182.46680788550736,167.81748034080593,214.0727588839804,187.06654599799907,174.50799267864838
1.4014014014014016,1.1438296893370898,0.6749039912929258,194.53132764407692,182.87769453202296,168.01557416477627,214.23991252468537,187.0637739268231,173.83839248616977
1.4347681014347682,1.1438296893370898,0.6749039912929258,194.5774103568224,183.4482292841651,168.14511632691944,214.36350512672183,187.0619738713121,173.16269509611155
1.4681348014681348,1.1438296893370898,0.6749039912929258,194.9456822291026,184.1337614332544,168.19439415766377,214.4348279447973,187.0711454247964,172.4686296533964
1.5015015015015016,1.1438296893370898,0.6749039912929258,195.1994751198293,184.73182319241687,168.16170491433004,214.5278809226368,187.17308632109453,171.7446624470127
1.5348682015348682,1.1438296893370898,1.1122827896462282,195.80813304450385,185.4994679048698,168.1340238169266,214.576682097002,187.3067147420521,171.0222355976171
1.5682349015682349,1.1438296893370898,1.1122827896462282,197.07924579098383,186.3957867876386,168.10267901399007,214.6246201231364,187.43938663998665,170.30909963622705
1.6016016016016017,1.1438296893370898,1.1122827896462282,198.6497424486308,187.404496685478,168.0299775681168,214.636532879343,187.5683321411412,169.68600588885192
1.6349683016349683,1.1438296893370898,1.1122827896462282,200.6031278123613,188.3269292548352,167.87041022390977,214.61473863032248,187.69727279873985,169.11821515193205
1.6683350016683351,1.1438296893370898,1.1122827896462282,202.8391067518956,189.30259363187005,167.71432873675562,214.5706495081168,187.7812254125604,168.68175759616446
1.7017017017017018,1.1438296893370898,1.1122827896462282,204.779917204774,190.25899374109068,167.5755445643699,214.4998406238772,187.8129868048133,168.38355594248404
1.7350684017350684,1.1438296893370898,1.1122827896462282,206.60507516592864,191.3725132199712,167.50247435109773,214.4025116897479,187.7655067946229,168.19912121799987
1.7684351017684352,1.1438296893370898,1.1122827896462282,210.01748356303924,192.50703049340143,167.42575173072126,214.3027988902886,187.669385759286,168.1776947480427
1.8018018018018016,1.072808549340884,1.1122827896462282,213.0117727514109,193.85406961030904,167.42778211812583,214.23043163395863,187.50073396397443,168.15356135238054
1.8351685018351689,1.0276674760434064,1.1122827896462282,216.6451550310823,195.34039831171776,167.50363326637265,214.1480846028504,187.24472301812892,168.16347904459423
1.8685352018685355,0.992207923537162,1.1122827896462282,219.588387018744,197.33098372077785,167.63555094798366,214.0249509215548,186.98491059901505,168.24745039777196
1.901901901901902,0.8846786609578314,1.1122827896462282,222.67595237366965,197.16525518968845,167.8711145936022,213.9177082555911,186.6465604918077,168.36330917477778
1.9352686019352687,0.7536033369907624,1.1122827896462282,225.41968915845132,198.327489766234,168.1939329492921,213.74038315023623,186.2537167764887,168.53994811456147
1.968635301968636,0.6258616377150539,1.1122827896462282,227.55272806362865,201.9393435252676,168.60111897256485,213.54643792128803,185.8200944397455,168.74650101300622
2.002002002002002,0.529623815841686,1.1122827896462282,229.4078793244076,203.35070437905213,169.0978104655985,213.48744347056177,185.35102841465323,168.74376334072537
2.035368702035369,0.4473188179266061,1.683054686375232,230.29703344030315,205.7473512499572,169.68876709710767,213.51323598314391,184.8356966338148,168.6286909130933
2.0687354020687354,0.4338828085642784,1.683054686375232,233.6353186474296,207.2860966052624,170.36323291791354,213.5252470383574,184.2843982705852,168.54954028473747
2.1021021021021022,0.4190283289525234,1.683054686375232,235.4733612870953,208.09356543050524,171.06994076465247,213.52992461975384,183.7613087975792,168.4537317402617
2.135468802135469,0.4624267448868305,1.683054686375232,236.4750321364495,208.1762130076412,171.77999937181477,213.48592586664165,183.25849766824405,168.28572400821886
2.1688355021688355,0.5488613369177928,1.683054686375232,234.33068485092952,207.32489363685752,172.50959774641908,213.3842824576602,182.80661941219927,168.09251146000852
2.2022022022022023,0.7358940841672503,1.683054686375232,231.79531198533127,206.0660093714079,173.24568770631305,213.243479586828,182.37019818475423,167.88684022761973
2.235568902235569,0.8676733782691305,1.683054686375232,231.7846464134552,204.7151293627338,174.02047983178645,213.112738950269,181.9029078964249,167.6927428269798
2.2689356022689355,1.1452906922063577,1.683054686375232,230.3331967126702,202.9924661114112,174.82272461589451,213.02502438044732,181.3866175626011,167.4868895356811
2.3023023023023024,1.3341364439054728,1.683054686375232,228.64074764252817,200.69273387261632,175.64315563888883,212.98059678857257,180.83536020630515,167.23751917544368
2.335669002335669,1.712193010865646,1.683054686375232,226.75782842894785,198.20289016805424,176.44811577456807,212.9465326972345,180.28140772228892,166.96145747704023
2.369035702369036,2.295386736532305,1.683054686375232,223.4482639759433,195.5765335223275,177.19270139410818,212.9455690097609,179.7443307472889,166.683921051972
2.4024024024024024,2.295386736532305,1.683054686375232,219.0558636440525,192.47306934619203,177.87913855294843,212.93187535728487,179.2494595825089,166.44395244883702
2.4357691024357693,2.295386736532305,1.683054686375232,213.79401614080555,189.18627058727083,178.50477953710066,212.9241644722356,178.8223793503547,166.21867017578424
2.469135802469136,2.295386736532305,1.683054686375232,208.2292050595409,185.76182392935144,179.01572369092835,212.867467075603,178.47044183574522,166.04774997964924
2.5025025025025025,2.295386736532305,1.683054686375232,203.9744450410953,181.817945997965,179.41148604936063,212.73533857763323,178.20139451551893,165.96530714871037
2.5358692025358693,2.295386736532305,1.683054686375232,199.93496473579444,177.72010277357288,179.72250730707225,212.58063941668323,177.98838600722982,165.93591373185478
2.569235902569236,2.295386736532305,1.683054686375232,195.14557316647893,173.45632355122203,179.95164557710714,212.394416610472,177.84976935962396,165.9674579091584
2.6026026026026026,2.295386736532305,1.683054686375232,189.5100756588202,169.2299811654976,180.10264611957646,212.2121999708977,177.82579618149762,166.0388220202719
2.6359693026359694,2.295386736532305,1.683054686375232,181.982328890683,165.38038424341332,180.1582883097716,212.0830594453992,177.870891034525,166.1170677520566
2.669336002669336,3.036048756560019,2.3262050727314163,174.981570916905,161.63068067648123,180.189929585849,211.9594838299144,177.85626129067475,166.21848324097013
2.702702702702702,3.036048756560019,2.3262050727314163,168.62664724849154,157.77227055908938,180.19728071811468,211.8355645360418,177.8275927430218,166.3568053873464
2.736069402736069,3.036048756560019,2.3262050727314163,162.28012845141788,154.00444781060222,180.13158143632972,211.68027819821043,177.79537719013425,166.53375233356647
2.7694361027694363,3.036048756560019,2.3262050727314163,155.4860776391819,150.0879545150031,179.99931552229836,211.51992202611223,177.75146996587247,166.74885111437723
2.802802802802803,3.036048756560019,2.3262050727314163,148.63300305142658,146.64005849151445,179.8757227860117,211.34962648339368,177.66301713466953,167.00059189921333
2.836169502836169,3.036048756560019,2.3262050727314163,142.41481360881,146.22808779190964,179.716877822328,211.206386811879,177.56536391918343,167.27990199038032
2.8695362028695364,3.036048756560019,2.3262050727314163,137.2076053316844,145.5019611452595,179.5324809848098,211.037151681649,177.44843313452688,167.56889221556432
2.902902902902903,3.036048756560019,2.3262050727314163,132.3656935968645,143.8340231176631,179.31154055860003,210.8763170564453,177.30720891783943,167.85422976114788
2.9362696029362696,3.036048756560019,2.3262050727314163,126.71053517837632,141.5706607221134,179.14767387929317,210.65798880197104,177.10574988333448,168.1213835459626
2.9696363029696364,3.036048756560019,2.3262050727314163,122.44701242998742,140.65087661034457,178.98182216882793,210.40683321779107,176.88326224501142,168.3978924776445
3.003003003003004,3.036048756560019,2.3262050727314163,118.13858020559924,137.16731458228745,178.8468001654012,210.10355895088048,176.62002830726522,168.65462835491675
3.0363697030363697,3.036048756560019,2.3262050727314163,114.78333220082207,136.42829571678274,178.72123665920495,209.77751167598663,176.31500252385075,168.86770102699046
3.0697364030697365,3.036048756560019,2.3262050727314163,111.41666015058154,138.0487188282534,178.63526498208947,209.4494112096718,175.98321870619523,169.03615973124553
3.103103103103104,3.036048756560019,2.3262050727314163,108.2729098237936,139.4330446506913,178.5544920793354,209.1171733251977,175.65345915001063,169.1601316105836
3.1364698031364697,3.036048756560019,2.3262050727314163,105.979543627763,138.7977150335051,178.50473527496456,208.7809295400668,175.29401705797227,169.24551204553725
3.169836503169837,3.036048756560019,2.3262050727314163,104.47722856042016,138.40142667271877,178.53302225252278,208.46140837904017,174.8929988531181,169.2764456274341
3.2032032032032034,3.036048756560019,2.3262050727314163,104.4915633567968,137.1855418620033,178.59002814146905,208.16580476771173,174.5066061121482,169.25298086155362
3.2365699032365702,3.036048756560019,2.3262050727314163,101.76518389539604,138.8061796045675,178.68182024989133,207.945957343101,174.09560439670852,169.21916642971283
3.2699366032699366,3.036048756560019,2.3262050727314163,99.17623630481955,138.37334904028413,178.8212062543235,207.74542068034404,173.64408361684676,169.13605178395687
3.3033033033033035,3.036048756560019,2.3262050727314163,97.19979423293356,138.48745791603756,178.99688120606388,207.5842958664049,173.16339604542813,169.02071199807958
3.3366700033366703,3.036048756560019,3.059635502220376,98.49097852296748,137.90055883688075,179.17611828455568,207.49160697475253,172.6873567544243,168.8559555723817
3.3700367033700367,3.036048756560019,3.059635502220376,101.73116327756452,137.62006595492738,179.39840513855918,207.4906921561859,172.1338751308268,168.60330190681188
3.4034034034034035,3.036048756560019,3.059635502220376,102.80747334390549,137.08394887721684,179.55358539410776,207.53255434985184,171.70026220850383,168.28887267682254
3.4367701034367704,3.036048756560019,3.059635502220376,104.48408278822473,136.9254749829651,179.5379906429568,207.44010251954265,171.4253011833476,168.02407789631656
3.4701368034701368,3.899604739547797,3.059635502220376,105.90374065518832,137.17723575738484,179.40743071955796,207.3687428411876,171.31778017532503,167.74557037520387
3.503503503503504,3.899604739547797,3.059635502220376,106.97018831828348,137.62405610371036,179.2255794458475,207.3037328099398,171.30003098468163,167.4613608779609
3.5368702035368704,3.899604739547797,3.059635502220376,108.42752332799596,137.76554100820502,178.99729811255088,207.2742451226183,171.47888876846545,167.1221623312392
3.5702369035702373,3.899604739547797,3.059635502220376,111.29569559908649,137.73353331037146,178.92839201764076,207.35079430896707,171.7495247596427,166.69236018154066
3.603603603603604,3.899604739547797,3.059635502220376,115.09944380990952,137.29876454817068,178.8980939830056,207.47223246793908,172.1377713353168,166.24865197581684
3.6369703036369705,3.899604739547797,3.059635502220376,117.71548551694605,137.62964988988492,178.89605039255923,207.678862305417,172.54642088195908,165.82718080147333
3.670337003670337,3.899604739547797,3.059635502220376,117.68804995166104,139.35231815427318,178.85592025518935,207.9557221663598,173.06880511195044,165.37285083221116
3.703703703703704,3.899604739547797,3.059635502220376,116.19829959987044,139.0144172784871,178.90024587238509,208.30192639662656,173.49420728239494,164.8590218103183
3.737070403737071,3.899604739547797,3.059635502220376,114.37932413098471,138.28136023201836,178.84189276902137,208.73454837296683,174.05157726316293,164.3584710540919
3.770437103770437,3.899604739547797,3.059635502220376,112.18665903321263,136.82792091666232,178.78878798109105,209.1517842315425,174.82306798702396,163.85811042948237
3.803803803803804,3.899604739547797,3.059635502220376,111.71799557646168,134.92279827792646,178.7309856982198,209.58927992531932,175.6783437232199,163.36114390031491
3.8371705038371706,3.899604739547797,3.059635502220376,109.78472233647828,132.83385447257334,178.6851691319579,210.0950130071041,176.42664401400955,162.7364356832378
3.8705372038705375,3.899604739547797,3.059635502220376,108.29824796596805,126.10648230654571,178.48690277539717,210.58845470024715,177.3322066983428,162.183470554173
3.903903903903904,3.899604739547797,3.059635502220376,111.0890809987304,121.11174765868468,178.3137457909759,211.2180586436983,178.18522549733177,161.14771399973557
