Time,Left Shoulder Angle,Right Shoulder Angle,Left Elbow Angle,Right Elbow Angle,Left Hip Angle,Right Hip Angle,Left Knee Angle,Right Knee Angle
0.0,23.749799389395147,29.18849683309488,161.2729008121379,156.04698792308233,132.3988421216236,132.00681884402113,204.68518971246007,209.7480286329105
0.0333667000333667,23.43467518898412,29.327401980087004,161.06514690058535,156.30727147384516,132.54888193253444,132.1369912114369,204.3984690109123,209.5595920473547
0.0667334000667334,23.148375843525685,29.46973352877232,160.8625067354649,156.57372593569443,132.66988186181433,132.25762250523763,204.1457032709808,209.3846129917097
0.1001001001001001,22.890175438240803,29.61503673860899,160.66592236187643,156.845052586242,132.76308043919624,132.3688684035734,203.92565118287555,209.22286519481816
0.1334668001334668,22.65934805835044,29.762856869055167,160.47633582491986,157.11995270309956,132.82971619441318,132.47088458459433,203.7370714368064,209.07412238552268
0.1668335001668335,22.455167789075563,29.912739179569016,160.29468916969503,157.39712756387888,132.87102765719806,132.56382672645054,203.57872272298312,208.93815829266603
0.2002002002002002,22.276908715637127,30.0642289296087,160.12192444130184,157.6752784461918,132.88825335728384,132.64785050729213,203.4493637316158,208.81474664509085
0.2335669002335669,22.1238449232561,30.216871378632376,159.95898368484015,157.95310662765004,132.88263182440355,132.72311160526922,203.3477531529143,208.7036611716398
0.2669336002669336,21.99525049715344,30.37021178609821,159.8068089454099,158.2293133858654,132.85540158829008,132.7897656985319,203.2726496770884,208.6046756011556
0.3003003003003003,21.890399522550123,30.52379541146436,159.6663422681109,158.50259999844965,132.80780117867644,132.84796846523037,203.22281199434812,208.5175636624809
0.333667000333667,21.8085660846671,30.677167514188987,159.53852569804306,158.77166774301452,132.74106912529558,132.89787558351463,203.1969987949034,208.4420990844584
0.3670337003670337,21.74902426872534,30.82987335373025,159.42430128030628,159.03521789717183,132.65644395788047,132.93964273153486,203.193968768964,208.3780555959308
0.4004004004004004,21.711048159945804,30.98145818954632,159.32461106000042,159.29195173853338,132.55516420616405,132.97342558744117,203.21248060673983,208.3252069257407
0.4337671004337671,21.69391184354945,31.131467281095336,159.24039708222534,159.5405705447109,132.43846839987933,132.99937982938366,203.25129299844093,208.28332680273084
0.4671338004671338,21.696889404757258,31.27944588783548,159.172601392081,159.77977559331617,132.30759506875927,133.0176611355124,203.30916463427704,208.25218895574392
0.5005005005005005,21.71925492879017,31.42493926922491,159.1221660346672,160.00826816196098,132.1637827425368,133.02842518397762,203.3848542044581,208.23156711362256
0.5338672005338673,21.76028250086917,31.56749268472178,159.09003305508384,160.2247495282571,132.0082699509449,133.03182765292934,203.4771203991941,208.22123500520948
0.5672339005672339,21.819246206215382,31.70665139378452,159.07714449843223,160.42792096981765,131.84229522371768,133.02802422051872,203.58472190869648,208.2209663593491
0.6006006006006006,21.939417338905084,31.87339732259634,159.15644451221485,160.68065822610967,131.67000013863978,132.98238844441423,203.7099281163616,208.2474286271369
0.6339673006339673,22.09839792468557,32.05578567638084,159.3039631863627,160.8736968194599,131.48310679455284,132.939564476939,203.84713202257984,208.2812519131568
0.6673340006673341,22.261880796259,32.245553436912765,159.4608044822301,161.03892373067467,131.29176714197084,132.9070545006818,203.99221745759976,208.3167657304928
0.7007007007007008,22.40171216156952,32.41942283000788,159.5782904735104,161.183647111278,131.09044839933068,132.88050057167544,204.15076471462285,208.3532050254917
0.7340674007340674,22.531337988975714,32.56001030284306,159.67879527325297,161.29888830722416,130.88709918899238,132.85945735021082,204.30959980015652,208.39950199919875
0.7674341007674341,22.66845091026366,32.771859126802326,159.79428095098783,161.5820799405942,130.68521362026289,132.81784271026996,204.47024919390844,208.4673165786893
0.8008008008008008,22.79831106816118,32.87874601961178,159.9013292411386,161.6789938191532,130.49638675438652,132.78069649097077,204.6384727523998,208.5369096173954
0.8341675008341676,22.93300019382753,32.92501490251908,160.01408738507013,161.665807505766,130.29783098847696,132.72753198244033,204.82839435746888,208.6203346333282
0.8675342008675342,23.065570872445043,32.9242020798197,160.13082913955108,161.5552483590365,130.1013122113037,132.6751752327932,205.01195159980944,208.69695438336188
0.9009009009009008,23.16996604684805,32.868883901910785,160.2026970144963,161.35147803533968,129.9169905135318,132.61681865099064,205.18790005140363,208.77294580379456
0.9342676009342676,23.255127474530813,32.7490304583654,160.24567654366976,161.0587641335707,129.7538296601884,132.559528643261,205.3575523846508,208.83668017207648
0.9676343009676344,23.33388894377013,32.58178785431794,160.28353464315754,160.6960338429473,129.60016562995554,132.50163793795144,205.5252839314552,208.89407167251468
1.001001001001001,23.427446544925747,32.3963363367501,160.35812184479835,160.3264906722492,129.43805058317363,132.4461098240608,205.7023042983569,208.95774937084028
1.0343677010343677,23.52257958046044,32.191675347080505,160.44766197787058,159.9587970924829,129.2829275439565,132.39399332423494,205.877106954452,209.0185943834169
1.0677344010677343,23.630995837322587,31.956839170094742,160.57474951558902,159.58029274531566,129.13694957900196,132.34647200934637,206.04346122262257,209.06682520799595
1.1011011011011012,23.74792124213405,31.705346505568325,160.7345278230241,159.23915519133502,128.99633994269033,132.30938984499835,206.204154607898,209.11840082456305
1.1344678011344678,23.852556089897245,31.42890128948476,160.89406679204603,158.93076044652256,128.8751793405057,132.2836249628822,206.3291459093137,209.1493428967945
1.1678345011678346,23.96553529358182,31.14612842108,161.08572244872224,158.66102005211218,128.76338954053992,132.25055202101976,206.44686971220483,209.17854432123488
1.2012012012012012,24.086148995767967,30.91997963235092,161.31917105427146,158.57476231880796,128.66423428712918,132.2705930474352,206.5477710997949,209.18740442005296
1.234567901234568,24.21319633136359,30.72292199260582,161.58218029804792,158.5876661402569,128.56941483642908,132.28907533522602,206.65171545699928,209.1951737146705
1.267934601267935,24.34553822921417,30.54678129567203,161.86206069555817,158.6427348063391,128.46954324218586,132.32413292841343,206.7690570242452,209.21758520381275
1.3013013013013013,24.47028035009464,30.37445021738885,162.12872809748768,158.72264416131134,128.3700659715059,132.38053989764092,206.87400505519864,209.2291010922169
1.334668001334668,24.59476238833356,30.204854777185307,162.3942143823824,158.78661017930293,128.25317208387858,132.43798877942717,206.9904036605312,209.2459638786649
1.3680347013680347,24.686735849269184,30.025811862917525,162.61454869519682,158.80429141800514,128.15456197781486,132.50749969901307,207.0894614393491,209.25619834787489
1.4014014014014016,24.762156105263767,29.84636814883807,162.81791804354145,158.80768096781085,128.0592804724075,132.5903811189474,207.2011561063618,209.2686869804722
1.4347681014347682,24.84891656645087,29.681323035512097,163.04664686887372,158.82700589900847,127.9750831731088,132.67659526949382,207.3013702070644,209.2818749653776
1.4681348014681348,24.95360773465997,29.5347958925164,163.30202043412388,158.8607115849067,127.88622551977068,132.759951505915,207.4071150056621,209.28672675520988
1.5015015015015016,25.07723162252844,29.45873270212766,163.57831938065996,158.99608816080286,127.80106285590183,132.8515925192724,207.5146170113391,209.3080991163397
1.5348682015348682,25.23040265277703,29.424741379857604,163.9043866101667,159.1662385664775,127.7032994007781,132.93687540492124,207.64720565298933,209.34793383492908
1.5682349015682349,25.407190468408285,29.578217636473426,164.19683522732538,159.57056723401317,127.54865686258375,133.0389056401737,207.80932876974472,209.43265682390071
1.6016016016016017,25.578052438341587,29.68491129996752,164.49447709198546,159.8044115030448,127.40033607266008,133.02290759117952,207.99962651358905,209.5361756358768
1.6349683016349683,25.76683115153715,29.727564328627363,164.829934764858,159.85374420163225,127.28244235736028,132.87862585433405,208.16479712684784,209.65405780358105
1.6683350016683351,25.96402502622045,29.770517762188344,165.21236660192676,159.868110138022,127.1803106257713,132.7268487084272,208.32696450032324,209.77541980498407
1.7017017017017018,26.1218601118434,29.806959574820013,165.52062289314026,159.8045086786496,127.17682790583945,132.57463232224634,208.3577532433116,209.88372806016204
1.7350684017350684,26.26881607800351,29.8361227714508,165.83627946839383,159.70127048676932,127.17232000138644,132.45155706177124,208.41668904793585,209.9941347836198
1.7684351017684352,26.438488579457434,29.82713286196705,166.2308863884547,159.4979806171821,127.11876451864607,132.3040512522308,208.6030710134985,210.10472443968283
1.8018018018018016,26.56445943344476,29.78062315117066,166.60438104280854,159.28826353669172,127.03622931124085,132.18889962072407,208.86753811823712,210.21043240532555
1.8351685018351689,26.651995675788807,29.68915208496018,166.93436470078873,159.03121584221594,126.95972303459116,132.05998874863894,209.1596290294764,210.34594714826787
1.8685352018685355,26.71974620492625,29.57394315650442,167.29802643701066,158.7582132973447,126.86810186665844,131.96273700322158,209.480360635938,210.4919909568209
1.901901901901902,26.77931784305129,29.45138724016511,167.66946577648258,158.4812432095658,126.78256457596146,131.92415827610682,209.7930627327553,210.6095135372523
1.9352686019352687,26.81417615012366,29.18377060284068,168.05366760270283,157.9282205834593,126.65105025031936,131.92941661502684,210.18346927907496,210.71543282441925
1.968635301968636,26.890555247607264,28.97036857320524,168.48908762558094,157.45570910958585,126.55412552589628,131.93795572365,210.6769423010405,210.84702701213948
2.002002002002002,26.933375565344704,28.813807285875715,168.95476253068318,157.06677273950268,126.39007145313036,132.00392431694402,211.2288766238456,210.96492311066987
2.035368702035369,26.987110520204244,28.71168529710736,169.40688386596145,156.7523909407636,126.06188617459355,132.07534236410578,212.0397258323261,211.1106448296832
2.0687354020687354,27.039982826553548,28.59879228719275,169.96102168726367,156.49765203355338,125.66024893242778,132.2020264230725,212.8979173873136,211.23224715288143
2.1021021021021022,27.08984913954119,28.45978600014376,170.43006158880377,156.27695852270207,125.1055218433059,132.3804532662458,213.53446416512028,211.2658477537463
2.135468802135469,27.124189004217897,28.32468735226101,170.98493659186022,156.16236373291164,124.49490633397704,132.62200658844753,214.226999749387,211.23053194114107
2.1688355021688355,27.10912790844145,28.19848690454352,171.62072970507128,156.1764147704374,123.95318246384022,132.92557386354866,214.952980332139,211.20897538147247
2.2022022022022023,27.05951207507304,28.011159705712902,172.36667519806534,156.20904558233508,123.46396903603087,133.29454130434164,215.67873335515293,211.1382795339979
2.235568902235569,27.02003074369378,27.83455142431668,173.17849258758875,156.25734244862844,123.07750978496192,133.7505478526651,216.3324400474757,210.9560355702791
2.2689356022689355,26.93917103419648,27.6337510294695,174.06185414577564,156.34162513975102,122.72182632711684,134.25996766709548,216.9524211043968,210.69192659969377
2.3023023023023024,26.839454981771222,27.5493620289446,175.06559901665815,156.60442148113515,122.36509278894782,134.69222747312733,217.57435542333064,210.44159052603217
2.335669002335669,26.699709628278868,27.409519365899083,176.13137095907652,156.88197186357488,121.98825022042875,135.16314397058528,218.18133184598648,210.17125010847488
2.369035702369036,26.61694793071296,27.3205622238413,177.20464646319903,157.16315372167628,121.52607192742494,135.59254260616984,218.807091218806,209.94043602566043
2.4024024024024024,26.501091162425546,27.105241381970234,178.20875828399224,157.42389497272657,120.99042614989766,136.0618253061136,219.4349198938505,209.7394254381257
2.4357691024357693,26.50355296221809,26.85113865533395,179.250316841749,157.48861918075946,120.49967702110658,136.58769755730364,219.9895113066268,209.5027042441467
2.469135802469136,26.41194968560589,26.53247806782538,180.3681314892441,157.56825173809753,120.0697518904892,137.145748710652,220.4880899102997,209.2415792779544
2.5025025025025025,26.20143523747572,26.17228230236517,181.4091607308994,157.66967752533765,119.72773245291016,137.74730228523896,220.91409843140136,208.95291427877743
2.5358692025358693,25.924778693261064,25.70646422266787,182.6389510767748,157.74572775706062,119.4542079475139,138.3759975922013,221.27800506281648,208.6299366802065
2.569235902569236,25.50068913471677,25.11709763837884,183.76439208117412,157.93408559043334,119.24991373364414,139.01053498984868,221.5591942855993,208.2775548533619
2.6026026026026026,24.87206965594109,24.37421989313351,184.72204641045,158.12695021848324,119.09005424587788,139.63087366540722,221.787100670248,207.914186292243
2.6359693026359694,24.09838966568542,23.520422991451227,185.3327428876372,158.25446079614414,118.96759551176204,140.22573247608526,221.9614378107072,207.55347494806665
2.669336002669336,23.17943124406068,22.38310346918898,185.7852782616605,158.48375879988933,118.89077688006732,140.76642044043,222.0785809790084,207.17205583404376
2.702702702702702,22.13683786886676,21.2661994234436,185.6372021207184,159.36470155008882,118.82956125021698,141.24941335959565,222.13501163981044,206.7786034843764
2.736069402736069,20.99259360843887,19.947430864593944,185.2016413579392,159.8924706882877,118.87240709392503,141.5941415727925,222.10414300913905,206.37144077119493
2.7694361027694363,19.77625769089557,18.561520048865013,184.56041989693188,160.16514329196036,118.98134970241716,141.94077903719912,221.96231816319107,205.96172950302807
2.802802802802803,18.554610333815265,17.12884008547223,183.9754000904112,159.9311290352078,119.15034576985543,142.3514909073966,221.71991646172825,205.55487868291573
2.836169502836169,17.056861981187733,15.7010392727139,183.50159501218016,159.13660220340378,119.40117167763393,142.74973530247183,221.40788116435155,205.1450490522204
2.8695362028695364,15.60130497418316,14.19913094102372,183.42815731545588,157.73609372899477,119.6046517328271,143.13830220351431,221.24048409763392,204.74767460120407
2.902902902902903,13.935639206086927,12.68685447778548,183.39770741011563,155.9080625965185,119.79178397714765,143.4850485855452,221.1420914193728,204.3634345804703
2.9362696029362696,12.289227309708394,11.237813883625476,186.76982351448777,153.5254980065424,120.02257708936745,143.84380464030846,221.0138433742296,203.99504238668172
2.9696363029696364,10.640673245591534,9.675244933892651,189.31461904815404,151.12986286269776,120.2996029986766,144.17887082771017,220.8841973232909,203.65170021031545
3.003003003003004,9.223716938081076,8.201890543172949,191.2587261441672,148.24178023902738,120.55210103936416,144.54268615017432,220.82006735858263,203.3011505436777
3.0363697030363697,7.815666945941878,6.787469638566942,192.4086571338149,145.06092416661,120.79401473997144,144.89822656060278,220.82168328355388,202.97472217924687
3.0697364030697365,6.528896383153977,5.561544920733628,192.77368955244592,141.41044247532392,120.98510773304808,145.2318168186586,220.95823985724087,202.69522159484555
3.103103103103104,5.503966731255512,4.4510112644799165,192.8109490700764,137.4299427009156,121.14192234301449,145.5315429923457,221.18249034079503,202.45802995456927
3.1364698031364697,4.763930118706179,3.537658706990178,192.4293924139924,133.0569929763197,121.12801077089578,145.82201188157904,221.45655815793992,202.2309753422076
3.169836503169837,4.384936697524509,3.537658706990178,191.6889371752208,128.4057080501821,121.0316824204486,146.06963407468385,221.80594797948035,202.02069065689545
3.2032032032032034,4.355288629008285,3.537658706990178,190.7139663209606,123.43048004673834,120.97101278896923,146.33386498250624,221.9653728695852,201.7690157523789
3.2365699032365702,4.355288629008285,3.537658706990178,189.40811678940983,116.48274728012314,120.8971905084914,146.59110482549093,222.05881172092816,201.49007233867056
3.2699366032699366,4.355288629008285,3.537658706990178,187.97721062037152,109.6995916524499,120.93433925197834,146.8442022513653,222.38902862544165,201.2515360968187
3.3033033033033035,4.355288629008285,3.537658706990178,186.62828557803311,103.16347807826868,121.047371386417,147.0840731425922,222.71588954547133,201.0577767532396
3.3366700033366703,4.355288629008285,3.537658706990178,185.0752197547241,96.82912478537692,121.14077841861597,147.29650009558478,223.02557908234365,200.81206525310387
3.3700367033700367,4.355288629008285,3.537658706990178,183.2745100746856,91.10921551085774,121.21615302136584,147.4757206396809,223.33197813949351,200.5467136394941
3.4034034034034035,4.355288629008285,3.537658706990178,180.65196136878663,85.79119201560805,121.17809168219335,147.55365597707714,223.71198531945865,200.3633756576922
3.4367701034367704,4.355288629008285,3.537658706990178,178.0588168894081,80.83012741297803,121.0698209169768,147.52460446832274,224.13771257884707,200.2753550526174
3.4701368034701368,4.355288629008285,3.537658706990178,175.40476047138577,76.18191627561401,120.89657258422334,147.56021175192777,224.5936185407241,200.20262638108576
3.503503503503504,4.355288629008285,3.537658706990178,172.85248234735695,72.02788995464799,120.6948670227782,147.60400855174208,225.0594079071325,200.1689569874157
3.5368702035368704,4.355288629008285,3.537658706990178,170.3629144140746,68.29265498915228,120.53357171028742,147.69074584088722,225.50953476516423,200.1189701394653
3.5702369035702373,4.355288629008285,3.537658706990178,168.07170386873983,65.19035778181352,120.45967566448252,147.80272473107394,225.89741316942084,200.03023151421385
3.603603603603604,4.355288629008285,3.537658706990178,166.0110205680414,62.86301339472792,120.40689803857008,147.88950392464398,226.25794726646697,199.95988580245216
3.6369703036369705,4.355288629008285,3.537658706990178,163.6586382534062,61.09353976176495,120.37028993264845,147.9797428575335,226.5936206359521,199.88360697111287
3.670337003670337,4.355288629008285,3.537658706990178,161.31063460353388,59.93205267588127,120.33617127855398,148.07893506274513,226.8994663953776,199.7756976660082
3.703703703703704,4.355288629008285,3.537658706990178,158.9288868320393,59.55270618862168,120.28821822772322,148.19904743697597,227.17917333779167,199.62144815929747
3.737070403737071,4.355288629008285,3.537658706990178,156.5341713220359,59.8068417851445,120.225293404448,148.32768027333927,227.4377342913678,199.42675186050377
3.770437103770437,4.355288629008285,3.537658706990178,153.99178882464037,60.78605931433169,120.14564384304278,148.47378214148526,227.6784220770581,199.18105714059664
3.803803803803804,4.355288629008285,3.537658706990178,151.6383313251587,62.53767155630136,120.05964484820448,148.63200830910887,227.88176159351207,198.89523675960336
3.8371705038371706,4.355288629008285,3.537658706990178,149.23263784170203,64.72322533415075,119.96569865476764,148.79174031862846,228.04808259339893,198.5877534342276
3.8705372038705375,4.355288629008285,3.537658706990178,147.53115721925246,66.44194542431809,119.90995208159144,148.95217060470944,228.14754589922416,198.2636640651364
3.903903903903904,4.355288629008285,3.537658706990178,146.60589742406685,67.98530337151074,119.87129464335548,149.11707502465674,228.1917468358968,197.9324844947368
3.937270603937271,4.355288629008285,3.537658706990178,146.66630052456415,69.36404991988745,119.86618511080692,149.28863694315294,228.1830995180337,197.5884462912905
