Time,Left Shoulder Angle,Right Shoulder Angle,Left Elbow Angle,Right Elbow Angle,Left Hip Angle,Right Hip Angle,Left Knee Angle,Right Knee Angle
0.0,60.56436565066132,42.23246490698137,147.28445673752762,142.6107603050295,139.63392471064765,138.89891815454297,204.0708135088705,207.835825821024
0.0333667000333667,42.3986406807243,39.12480285708488,148.62207088271725,151.60322031552397,139.44466858204046,138.73728451147664,202.8738067429826,208.0601148717124
0.0667334000667334,26.995747496027995,36.22854636357603,149.68007570837207,158.69934671306837,139.29123173490964,138.78963504678222,201.8051384752665,208.0774368407737
0.1001001001001001,14.232452788904652,33.54527911126323,150.4809128684618,164.0162077085716,139.1687842008535,139.03877120319885,200.86378329220395,207.90392429517684
0.1334668001334668,3.98552325168648,31.07658478495486,151.04702401695607,167.67087151294254,139.07249601147032,139.46749442346575,200.0487157802769,207.5557098018908
0.1668335001668335,3.98552325168648,28.824047069459333,151.4008508078245,169.78040633709008,138.99753719835837,140.05860615032205,199.3589105259671,207.0489259278845
0.2002002002002002,3.98552325168648,26.78924964958504,151.5648348950368,170.46188039192313,138.93907779311596,140.794907826507,198.7933421157564,206.39970524012688
0.2335669002335669,3.98552325168648,24.97377621014038,151.56141793256256,169.83236188835053,138.8922878273413,141.65920089475972,198.3509851361265,205.62418030558683
0.2669336002669336,3.98552325168648,23.37921043593375,151.4130415743715,168.00891903728115,138.8523373326328,142.6342867978194,198.0308141735593,204.7384836912333
0.3003003003003003,-3.8682744232942654,22.007136011773547,151.14214747443324,165.10862004962397,138.81439634058864,143.7029669784253,197.8318038145367,203.75874796403528
0.333667000333667,-9.4521735437054,20.859136622468167,150.77117728671746,161.2485331362878,138.77363488280716,144.84804287931652,197.75292864554035,202.70110569096164
0.3670337003670337,-12.889407417214656,19.93679595282601,150.32257266519375,156.54572650818153,138.72522299088658,146.05231594323226,197.79316325305217,201.58168943898133
0.4004004004004004,-14.303209351489812,19.24169768765548,149.81877526383187,151.1172683762141,138.66433069642525,147.29858761291172,197.951482223554,200.41663177506328
0.4337671004337671,-13.816812654198642,18.77542551176496,149.28222673660142,145.08022695129435,138.58612803102142,148.56965933109407,198.2268601435275,199.22206526617643
0.4671338004671338,-11.553450633008907,18.539563109962856,148.73536873747202,138.55167044433114,138.4857850262734,149.8483325405185,198.61827159945463,198.0141224792897
0.5005005005005005,-7.636356595588424,18.53569416705756,148.20064292041337,131.64866706623343,138.35847171377944,151.1174086839242,199.1246911778172,196.8089359813721
0.5338672005338673,-2.1887638496048822,18.76540236785748,147.7004909393951,124.48828502791004,138.19935812513782,152.3596892040503,199.7450934650969,195.6226383393924
0.5672339005672339,4.666094297273887,19.23027139717112,147.25735444838816,117.18759254027115,138.00361429194805,153.5579755436373,200.4784530477773,194.47136212032123
0.6006006006006006,12.80498453738015,21.72271760277504,149.24014711003466,112.44982361526492,137.4526044794912,154.64340875060876,201.72835284884687,193.2393420703576
0.6339673006339673,22.10467356304613,24.365690530486223,149.4082647331359,104.69759125157832,136.42330537049972,155.51787392615256,203.52159902864332,192.3048663906745
0.6673340006673341,32.44192806660395,26.05622254373125,150.19961328993168,96.91115889923891,135.44860888616353,156.3093716814094,205.40564999790976,191.71223629695965
0.7007007007007008,43.6935147403859,27.41003192940636,151.28592333461697,90.1560366920112,134.4624798085343,156.95244935158416,207.3551261361052,191.1461677956564
0.7340674007340674,63.682463367892,28.336207619806043,151.494482549834,84.73201317239602,133.69370405652785,157.3174769412306,208.93605925269665,190.86511524995572
0.7674341007674341,80.74377867088326,29.72182859819093,151.94536041072445,78.80605811599865,132.9144823680371,157.57470037079753,210.75074918412835,190.949101865968
0.8008008008008008,95.82499828128086,28.7848261737298,155.94732152496866,79.41646581949821,132.4783373442051,157.58678543318888,212.0429562910518,190.92016177554103
0.8341675008341676,109.37057976174752,28.91768550069693,154.82659802765164,80.07237682996147,132.34042853521996,157.4648552395978,213.0489555739072,190.4885816415706
0.8675342008675342,121.75343655345392,24.345694549391183,154.43390587264534,74.42064471685924,131.94801929013715,157.1826338128756,213.0697529645529,190.4924908444688
0.9009009009009008,132.54514195519974,21.30840054765533,153.90350637943757,70.35270454921549,132.06250299508258,156.84460499128156,213.2154545351281,190.63741777541347
0.9342676009342676,141.12618965522424,20.487764978353496,153.0459258476001,67.57304678786276,132.28431018408554,156.348651666721,213.58397439090297,190.97684543500608
0.9676343009676344,148.31139318695895,21.670446986799924,151.9704663876552,66.63255565896091,132.5961515939102,155.61132225985187,213.9664742616272,191.4023488413173
1.001001001001001,145.5647868525348,24.48222302431101,150.9706169759176,67.67485012055775,133.01864310485453,154.85199190019696,214.1120213761804,192.0133881839565
1.0343677010343677,143.22631180550323,28.53038198724152,149.9664451604647,70.48630708266218,133.65335842821446,154.1124401752584,214.10141824772268,192.60200471981085
1.0677344010677343,141.52661348716265,33.933875231144896,149.40992026510395,74.8844267060797,134.47736173237774,153.47445428870293,213.57774817959972,193.24713234978643
1.1011011011011012,140.38927383605122,40.77006768674944,148.3341491246289,80.62244997049375,135.31337271245573,152.87691301808283,212.97134221705312,193.83928135049345
1.1344678011344678,140.04725191667754,48.600408756784034,147.25013859727738,86.84595024060468,136.4559825199154,152.5128050761482,211.9036841829191,194.25351994207307
1.1678345011678346,140.29718008508632,56.031640615600566,147.31297371122466,95.74096919033796,137.92204482020557,152.33787511519327,210.56600154076267,194.5564718739928
1.2012012012012012,140.98162944871672,63.906481829304006,148.1551493317555,105.02970707539744,139.54138841682308,152.31467297417697,209.07615232179515,194.702541889795
1.234567901234568,141.80260708374647,81.7772663186938,150.5939556646873,114.23998461895157,141.31317481039542,152.3763991851677,207.3789852963898,194.6723557814171
1.267934601267935,142.3495999288018,97.96577871191052,147.17608718832795,122.15066989382224,143.20450338925366,152.52269870923655,205.5303432663804,194.49995027322973
1.3013013013013013,142.836268954943,112.21134823810586,143.20027073827387,128.8820270261012,145.17803974114682,152.7137547572083,203.58072440531663,194.17718419549988
1.334668001334668,142.60611084304207,124.86163775473582,138.60982132782866,134.24247791664203,147.2904542052995,152.96187715473613,201.4962752288236,193.73159692762
1.3680347013680347,149.38176105498502,141.75211929800335,132.39992167286462,140.1710734820316,149.80860336199254,153.53335531493352,199.0634994772362,193.14308687207617
1.4014014014014016,153.3700668870204,157.94257698807246,125.73910266125544,145.4960806859159,152.30752889920385,154.16361567376336,196.6642223528945,192.4590399627368
1.4347681014347682,154.26760102155998,173.05518239342678,118.69725351406134,150.10149774878812,154.74838972142064,154.8412196763273,194.3409707024319,191.68275668455428
1.4681348014681348,152.89230624647345,186.71210708255003,111.34426345234388,153.87132289114237,157.09234473313134,155.55472876772834,192.1362713724834,190.8175375224829
1.5015015015015016,157.99932765669794,198.53552262392589,103.7500216971646,156.68955433347276,159.30055283882442,156.29270439306936,190.09265120968408,189.86668296147693
1.5348682015348682,163.14765913046745,208.1476005860382,95.98441746958508,158.44019029627353,161.33417294298823,157.0437079974533,188.25263706066903,188.83349348649045
1.5682349015682349,168.16328018497143,215.17051253737063,88.11733999066688,159.0072290000387,163.1543639501112,157.79630102598315,186.6587557720733,187.72126958247765
1.6016016016016017,172.8721703374007,219.2264300464072,80.21867848147141,158.2746686652626,164.72228476468172,158.53904492376182,185.3535341905321,186.53331173439275
1.6349683016349683,177.10030910494618,219.93752468163143,72.3583221630604,156.12650751243922,165.99909429118824,159.26050113589227,184.3794991626804,185.27292042719
1.6683350016683351,180.6736760047986,216.9259680115272,64.60616025649524,152.4467437620628,166.94595143411917,159.94923110747743,183.7791775351532,183.9433961458235
1.7017017017017018,183.41825055414884,209.81393160457827,57.03208198283773,147.11937563462735,167.52401509796294,160.59379628362024,183.59509615458563,182.54803937524747
1.7350684017350684,185.1600122701877,198.2235870292683,49.70597656314907,140.02840135062715,167.6944441872079,161.18275810942365,183.8697818676128,181.0901506004161
1.7684351017684352,185.7249406701061,181.77710585408124,42.69773321849107,131.05781913055637,167.41839760634247,161.7046780299906,184.64576152086985,179.57303030628367
1.8018018018018016,184.9390152710949,160.09665964750064,36.07724116992516,120.09162719490904,166.65703425985515,162.14811749042403,185.9655619609917,177.99997897780423
1.8351685018351689,182.62821559034472,132.80441997801051,29.914389638512887,107.01382376417943,165.3715130522343,162.5016379358269,187.8717100346136,176.37429709993208
1.8685352018685355,178.61852114504663,99.52255841409414,24.279067845315865,91.70840705886164,163.52299288796834,162.7538008113021,190.4067325883705,174.69928515762135
1.901901901901902,172.7359114523913,59.87324652423636,19.24116501139564,74.0593752994498,161.07263267154562,162.89316756195265,193.6131564688976,172.97824363582626
