Time,Left Shoulder Angle,Right Shoulder Angle,Left Elbow Angle,Right Elbow Angle,Left Hip Angle,Right Hip Angle,Left Knee Angle,Right Knee Angle
0.0,56.24918887893592,63.08635696914193,108.93834604321152,167.39804756454862,164.1848856540078,121.08385481646836,206.2507627377937,276.64839187763704
0.0333667000333667,51.51908461549139,57.35137438780668,116.71351118842088,172.5506741634947,164.709526118576,122.07423962789368,204.9730818792633,274.6582765899134
0.0667334000667334,47.19830847888701,52.18540528818379,124.0079714147722,177.09311759618743,165.13884462842913,123.6713992230378,203.65769130906324,271.9922889980974
0.1001001001001001,43.29175171723553,47.59936918746941,130.81909321097095,181.03501863971132,165.4807171615225,125.82416737055075,202.30931914032965,268.71030889463634
0.1334668001334668,39.80430557864969,43.60418560285973,137.14424306572252,184.38601807115097,165.74301969581134,128.4813778390827,200.93269348619864,264.8722160719772
0.1668335001668335,36.740861311242256,40.210774051550914,142.9807874677324,187.1557566675908,165.933628209251,131.59186439728373,199.5325424598064,260.5378903225671
0.2002002002002002,34.10631016312596,37.430054050739145,148.32609290570602,189.3538752061152,166.06041867979673,135.10446081380394,198.1135941742888,255.7672114388532
0.2335669002335669,31.90554338241357,35.27294511762058,153.1775258683488,190.9900144638088,166.1312670854038,138.96800085729342,196.6805767427822,250.62005921328267
0.2669336002669336,30.143452217217813,33.75036676939139,157.5324528443662,192.073815217756,166.15404940402752,143.1313182964023,195.2382182784226,245.15631343830256
0.3003003003003003,28.824927915651458,32.87323852324775,161.38824032246362,192.6149182450413,166.13664161362317,147.54324689978068,193.79124689434613,239.43585390636008
0.4004004004004004,27.95486172582724,32.65247989638584,164.74225479134654,192.6229643227493,166.086919692146,152.15262043607865,192.3443907036889,233.51856040990225
0.4337671004337671,27.53814489585791,33.099010406001824,167.59186273972037,192.10759422796448,166.01275961755135,156.90827267394633,190.90237781958703,227.4643127413763
0.4671338004671338,27.57966867385623,34.22374956929187,169.93443065629057,191.0784487377712,165.92203736779447,161.7590373820338,189.46993635517663,221.33299069322925
0.5672339005672339,28.08432430793492,36.03761690345215,171.7673250297626,189.54516862925408,165.82262892083068,166.65374832899116,188.0517944235938,215.18447405790835
0.6006006006006006,29.05700304620677,38.55153192567884,173.08791234884183,187.5173946794976,165.72241025461523,171.54123928346854,186.65268013797464,209.0786426278606
0.6339673006339673,30.5025961367845,41.776414153168105,173.89355910223378,185.00476766558617,165.6292573471034,176.37034401411603,185.2773216114553,203.0753761955332
0.6673340006673341,32.42599482778086,45.72318310311613,174.1816317786438,182.0169283646044,165.55104617625048,181.0898962895837,183.93044695717185,197.23455455337324
0.7007007007007008,34.832090367308744,50.402758292719085,173.94949686677882,178.56351755363823,165.49565272001308,185.64872987852303,182.61678428826195,191.6160574938297
0.7340674007340674,41.19845298214673,64.81110583229275,172.74050177082,170.49396536175536,165.56430699566735,189.44503119452875,180.97354030670988,186.35297927770256
0.7674341007674341,46.77947938854952,77.01033504370433,171.71240911318725,160.49082676288467,166.21682331312294,193.10770068118524,178.57892611525048,181.4656479304992
0.8008008008008008,50.94558035434408,88.29351240680604,165.75895353507985,152.49178555016715,166.91002125386484,196.50512172884373,176.7585094971785,176.91836128697994
0.8341675008341676,66.2742967578051,98.50982923424591,159.83857536467303,147.55404011210615,167.26274581885235,199.57744815547105,174.9388344861579,172.89193477717774
0.8675342008675342,71.79236687246254,107.93663228355176,156.07448765272977,143.72200783381558,167.19593955886384,202.21821591325832,174.3993806369813,169.75443142781933
0.9009009009009008,76.13500413301934,115.47844045229203,153.0346890767664,139.98518689853714,167.0799402279043,204.30363873689345,174.19763137068102,167.44308742003645
0.9342676009342676,80.00602059552375,121.3503410656629,150.09177144773474,136.2398906724748,167.0540658999156,205.8947361151889,174.47437657319406,165.96772443323349
0.9676343009676344,82.92798655936082,126.2130709773667,147.7019164072292,135.1563307806801,166.8124288394236,206.94374911605948,175.16191174153226,165.14583704898362
1.001001001001001,83.738712875717,129.77758897347456,143.6970465353298,134.49941791200467,166.69293712094213,207.4616569810112,176.251962538174,165.26945407776284
1.0343677010343677,83.63794472973709,130.53399671280766,140.39799934647732,132.55220749688326,166.73338687423458,207.49034118073885,177.2400280621599,165.98124328820995
1.0677344010677343,82.0040252145426,129.1695203068897,135.15516601141258,127.87684796499182,167.52002404289573,206.91887690864823,177.0015796609209,167.70234069789578
1.1011011011011012,82.1722739384383,127.89818980172036,134.18262701520405,123.2252248042146,168.41243490641494,205.32013745252672,176.4082976726814,171.09690152420416
1.1344678011344678,79.3275715697565,125.50990205997348,128.02301859537673,120.31115152103652,169.0261840655191,203.0236998735017,176.52181642630288,175.46336882094073
1.1678345011678346,75.18302253387033,122.27742547405931,125.61107846529666,117.56741553069556,169.60403112296223,203.95239503448803,176.76528130428525,176.44529840166777
1.2012012012012012,70.18625366412982,118.74747967492414,124.53909255244524,116.50351690488856,170.42874998653983,204.58478468575584,177.14184202369893,177.60821853346042
1.234567901234568,66.13506597149399,116.07089858389313,123.96865356975876,116.58654753526832,171.17396281627052,205.2150722383576,177.51742172858593,179.1048424180604
1.267934601267935,63.12525167240986,112.49231359254212,124.21375267628632,117.76669667405127,171.71005692093348,205.7579371522704,178.1015757355224,180.71258185397585
1.3013013013013013,60.12152135398626,109.53844366761386,121.4902018427088,120.90797393773634,172.04353229406618,206.3013720634286,178.74547283357666,182.07438926441452
1.334668001334668,56.65491458768016,102.39117697735642,128.77035734569483,126.8157351536,172.1216527995099,207.0216874637516,179.15342321792403,183.97058508382784
1.3680347013680347,55.86975509474479,97.1688502522245,132.30965190128657,133.28726577694712,172.52194851820133,207.27615895518665,179.50450651421767,185.97062899434383
1.4014014014014016,55.55320689472188,89.29096153972064,137.89894465718243,144.85256031043116,173.03135044675872,207.4024839683251,179.688431878994,188.04492548260257
1.4347681014347682,55.82433924796084,81.63704527571986,145.47931371066628,157.89779666005137,173.36195456672763,207.47534404437096,179.83650457004018,190.11042897310656
1.4681348014681348,56.97819701182425,75.20366310507403,158.7428325301776,167.59167397967323,173.76144619910366,207.35924491438124,179.80474658945073,192.23991804734547
1.5015015015015016,65.31230870114035,70.17793362595867,169.4538564748861,176.756682389459,174.1780910377609,206.9352031774689,179.66367362059037,194.4000592061587
1.5348682015348682,73.80739713851466,75.34472766828237,179.97700231730985,184.17164864709244,174.6940047081936,206.42674291286508,179.2379395083639,196.4232724169905
1.5682349015682349,82.1334663825423,69.47323772883608,188.84049691186928,191.81722976388176,175.2193300520728,205.81545254439453,178.79760945614615,198.1956925752388
1.6016016016016017,90.19280043776786,72.8317861968329,195.6209992383801,199.02615578032905,175.77039550673553,205.11002425185347,178.28493489072935,199.59810490935573
1.6349683016349683,100.9067714283514,81.12044535040405,203.5726282991692,205.516059581902,176.37627625255993,203.9437647037218,176.97246729047563,200.9844022371313
1.6683350016683351,111.64297095429906,90.47109946629332,210.45042507917103,211.4106155698616,176.96006298356951,202.73117787031,175.632249714796,202.19528109376003
1.7017017017017018,122.1559294279928,100.70391329308552,216.0171291556685,216.61461659785977,177.5127514132382,201.49747891266688,174.30097252698138,203.21190988812515
1.7350684017350684,132.20017726181518,111.63905157936551,220.03548010594605,221.0328555195499,178.02533725504128,200.26788299184292,173.01532609032395,204.0154570291116
1.7684351017684352,141.53024486814888,123.0966790737182,222.268217507288,224.5701251885854,178.488816222454,199.0676052688888,171.812000768116,204.587090925604
1.8018018018018016,149.90066265937648,134.8969605247289,222.4780809369788,227.1312184586193,178.8941840289517,197.92186090485475,170.72768692364977,204.90797998648728
1.8351685018351689,157.06596104788045,146.86006068098254,220.42780997230287,228.6209281833052,179.2324363880096,196.85586506079136,169.79907492021746,204.9592926206463
1.8685352018685355,162.78067044604347,158.806144291064,215.88014419054457,228.94404721629616,179.49456901310302,195.8948328977492,169.06285512111137,204.72219723696588
1.901901901901902,166.79932126624828,170.55537610355844,208.59782316898827,228.00536841124543,179.6715776177072,195.06397957677868,168.5557178896237,204.17786224433084
1.9352686019352687,168.8764439208772,181.9279208670505,198.34358648491843,225.7096846218065,179.75445791529748,194.3885202589304,168.3143535890467,203.307456051626
1.968635301968636,168.76656882231302,192.74394333012583,184.88017371561963,221.96178870163249,179.73420561934907,193.89367010525464,168.3754525826726,202.0921470677361
2.002002002002002,166.2242263829385,202.82360824136924,167.97032443837594,216.6664735043768,179.6018164433373,193.60464427680213,168.77570523379364,200.51310370154613
2.035368702035369,161.00394701513585,211.98708034936533,147.37677823047218,209.72853188369268,179.34828610073745,193.54665793462323,169.5518019057021,198.55149436194085
2.0687354020687354,152.86026113128815,220.05452440269949,122.86227466919227,201.05275669323336,178.9646103050247,193.7449262397685,170.74043296169015,196.18848745780505
2.1021021021021022,141.5476991437775,226.8461051499568,94.18955333182112,190.54394078665217,178.44178476967448,194.2246643532884,172.37828876505012,193.40525139802352
2.135468802135469,126.8207914649867,232.1819873397222,61.1213537956429,178.10687701760247,177.770805208162,195.01108743623345,174.5020596790742,190.1829545914812
2.1688355021688355,108.43406850729872,235.8823357205806,23.420415637941844,163.6463582397373,176.9426673339625,196.1294106496541,177.1484360670546,186.5027654470628
