Time,Left Shoulder Angle,Right Shoulder Angle,Left Elbow Angle,Right Elbow Angle,Left Hip Angle,Right Hip Angle,Left Knee Angle,Right Knee Angle
0.0,100.4932473152607,111.84559508103968,165.21003001986765,165.6719373639368,138.4074631017739,130.29103027004663,205.6721315809652,206.03048174404736
0.0333667000333667,64.40936751166839,77.04221395815821,166.37144511647918,169.63738227586234,137.74566365851248,130.691449027626,204.9087930312612,207.77346901702725
0.0667334000667334,34.92932029308113,47.84384195454126,167.4568843152679,172.34653297895812,137.14197716392488,131.16005613242865,204.321561864726,209.24275169715176
0.1001001001001001,11.642749569126453,23.933798972726308,168.46248386253174,173.88016499087183,136.59246481463867,131.68820986908213,203.90021891197017,210.45552172199868
0.1334668001334668,-5.860700750568071,4.995404915250745,169.3843800045686,174.31905382925115,136.09318780728148,132.26726852221387,203.63454500360447,211.4289710291458
0.1668335001668335,-17.991386756374823,-9.28802031534792,170.21870898767642,173.74397501174383,135.64020733848085,132.8885903764513,203.5143209702396,212.18029155617089
0.2002002002002002,-25.15966453866632,-19.233156816532315,170.9616070581531,172.23570405599753,135.22958460486436,133.5435337164219,203.52932764248607,212.72667524065173
0.2335669002335669,-27.77589018781489,-25.156684685764944,171.6092104622966,169.87501647966002,134.8573808030596,134.22345682675316,203.6693458509548,213.08531402016607
0.2669336002669336,-26.25041979419302,-27.375284020508403,172.15765544640482,166.74268780037897,134.51965712969414,134.9197179920725,203.9241564262562,213.27339983229183
0.3003003003003003,-20.99360944817313,-26.205634918225243,172.60307825677566,162.91949353580208,134.21247478139557,135.6236754970074,204.2835401990011,213.30812461460664
0.333667000333667,-12.415815240127657,-21.96441747637805,172.9416151397071,158.4862092035771,133.9318949547915,136.3266876261853,204.73727799980017,213.20668030468832
0.3670337003670337,-0.927393260429028,-14.968311792429333,173.16940234149703,153.52361032135167,133.6739788465094,137.0201126642337,205.27515065926409,212.9862588401147
0.4004004004004004,-0.927393260429028,-5.5339979638416565,173.28257610844335,148.11247240677358,133.43478765317695,137.69530889578002,205.88693900800348,212.66405215846348
0.4337671004337671,-0.927393260429028,6.021843911922389,173.27727268684404,142.33357097749047,133.21038257142172,138.34363460545174,206.56242387662903,212.2572521973125
0.4671338004671338,-0.927393260429028,6.021843911922389,173.149628322997,136.26768155115008,132.99682479787126,138.95644807787633,207.29138609575145,211.78305089423955
0.5005005005005005,-0.927393260429028,6.021843911922389,172.89577926320013,129.99557964540008,132.79017552915315,139.52510759768123,208.06360649598136,211.2586401868224
0.5338672005338673,13.061300400550325,6.021843911922389,172.5118617537514,123.59804077788824,132.58649596189494,140.0409714494939,208.86886590792943,210.7012120126388
0.5672339005672339,29.139909652438064,6.021843911922389,171.99401204095014,117.15584046626338,132.38184729272544,140.49539791794288,209.6969451622082,210.1279583092681
0.6006006006006006,46.898078404861465,6.021843911922389,169.06779847364442,108.52113829695372,131.8488466367921,140.57701356179834,211.16214454653425,209.7537822144361
0.6339673006339673,65.92545056744851,6.021843911922389,167.27077984454246,102.0042636577574,131.20182857881252,140.52302402035582,212.56539864948363,209.51710541293065
0.6673340006673341,85.81167004982655,6.021843911922389,165.6285905856396,95.52370999504136,130.57820791012395,140.26083192682603,213.689256691606,209.4613430433356
0.7007007007007008,106.14638076162387,6.021843911922389,166.4366352494402,89.98357665949543,130.11189962728898,139.85370373203327,214.6323887018252,209.5995418279823
0.7340674007340674,124.41501982726425,19.38253373740029,166.741264752514,85.17956966800506,129.7203480353605,139.57091800855534,215.28830944482203,209.84173678376607
0.7674341007674341,140.6553901941327,34.231391415129295,167.9552450423041,87.02758938596841,129.29432456658697,139.26651616783283,215.9911071110809,210.127563397016
0.8008008008008008,154.8845657370629,50.25173684764714,168.14700697845257,88.40629693586996,128.98280209444357,138.95435038228325,216.35737153327327,210.41057181838136
0.8341675008341676,168.15274326003308,67.12688993749117,168.26179654056358,89.12583560743317,128.86530565358044,138.6477855950025,216.3019774928694,210.61828161644945
0.8675342008675342,179.64697065410948,86.25038204150334,169.02802334552936,85.96552562245617,128.4085888266858,138.2435513511931,216.31420220003147,210.7806119467513
0.9009009009009008,188.51128378606063,103.3807210170735,165.676602944018,80.60551481138657,128.1485030661683,138.2524364898195,216.17254599563347,210.6047365291605
0.9342676009342676,195.2637788269921,118.4555779440794,161.29867439332213,76.03587777042524,128.18452504509358,138.2814187425869,215.50672079013023,210.30033595969823
0.9676343009676344,199.59803252281307,131.5510649682063,156.4989566669599,74.10673589280437,128.59101308667306,138.38205494679062,214.4034353188279,209.83924919571123
1.001001001001001,200.0826719642092,142.51891603671268,152.0205925507715,72.72043136262496,129.25411718928152,138.5644312131073,213.0215473794393,209.2884861809571
1.0343677010343677,191.78957548435545,152.29271276891407,148.04822054567026,73.06531455624348,130.19967534775932,138.87051930098926,211.40019035947617,208.5079837914653
1.0677344010677343,184.51460158425624,160.95492985537734,144.63332687178203,75.25839692506165,131.3283735021279,139.30686234798964,209.5369706935344,207.41626324336667
1.1011011011011012,178.0709711635724,167.79186774674244,141.6031155882073,78.99750095662124,132.51452481659118,139.90834232578803,207.5666657722723,206.0134664867179
1.1344678011344678,171.71610803131134,171.93925299704995,138.37861904743173,83.57538065163108,134.1088111097063,140.50560340128476,205.468284896728,204.34661332204828
1.1678345011678346,165.18777377816212,166.98797675172085,135.6650093446379,90.50360945088828,135.81521933880478,141.2103590177367,203.41963257430749,202.3978940814715
1.2012012012012012,158.29806475278406,163.4144230225195,131.21168558825767,95.53966802106964,137.44331593635602,142.00570795555947,201.29949668168595,200.4478834122121
1.234567901234568,150.69279307002998,159.1644770032209,126.6781314312407,100.5662057449294,139.0335179503138,143.11593643518492,198.7356622576825,198.4324745707632
1.267934601267935,142.2458137389002,156.8587593244297,121.131745198341,106.39156424887764,140.50262297279002,144.3074131777311,196.08667814863367,196.26380618207128
1.3013013013013013,133.56978032019367,154.63184358940984,116.41060124944318,112.95164684125716,142.06378570182167,145.64654409012567,193.869814589978,193.64239813737365
1.334668001334668,125.09497133239088,152.04007759624142,111.87580080239064,118.63574659867264,143.47801752706238,146.87266332354235,191.57790907059763,191.1165592766785
1.3680347013680347,115.7908163400248,148.74489530084568,106.77014830224226,124.54409750825936,144.70586300350874,148.21738069442625,189.72584973146644,188.2713021919455
1.4014014014014016,104.78442116568918,145.5884652217929,101.94253181762234,128.12766093359497,146.05088924760895,149.3766757087103,187.12581938110984,186.1237083122715
1.4347681014347682,105.35490066551306,141.48724418018057,97.56900796732528,133.63045127164824,147.64533476634702,150.82413015357193,184.98600470233777,183.16511014236733
1.4681348014681348,108.01052617094912,136.2908440181669,93.32432959484066,138.42249880687615,149.15757884532897,152.24254893901005,182.9851890308688,180.30143448556203
1.5015015015015016,112.2192945770925,129.9267288739285,89.22734346926462,142.32948457925465,150.56586956404794,153.61196320638075,181.1477648453882,177.58008634934657
1.5348682015348682,118.89159291865008,131.75331306822045,85.29689635969436,145.17708962876094,151.84845500199827,154.9124040970413,179.49812462458303,175.0484707412135
1.5682349015682349,133.13787464958705,131.38606092300537,81.55183503522714,146.7909949953722,152.98358323867427,156.12390275234887,178.06066084714024,172.7539926686554
1.6016016016016017,148.4323809640714,129.22433058753026,78.0110062649602,146.99688171906553,153.94950235357027,157.22649031366075,176.85976599174677,170.74405713916485
1.6349683016349683,164.4261038752786,125.04189256802312,74.69325681799077,145.62043083981823,154.72446042618054,158.20019792233418,175.91983253708963,169.0660691602344
1.6683350016683351,180.77003539638625,128.26470831488027,71.61743346341609,142.48732339760753,155.28670553599946,159.0250567197264,175.26525296185582,167.76743373935668
1.7017017017017018,197.1151675405712,142.68347000159184,68.8023829703334,137.42324043241044,155.6144857625213,159.68109784719462,174.92041974473227,166.8955558840242
1.7350684017350684,213.11249232101025,157.1664566757662,66.26695210783996,130.25386298420435,155.68604918524042,160.1483524460961,174.90972536440597,166.4978406017295
1.7684351017684352,228.41300175088128,171.1601489473967,64.02998764503296,120.80487209296626,155.4796438836511,160.40685165778808,175.25756229956392,166.62169289996524
1.8018018018018016,242.66768784336048,184.11102742647995,62.11033635100971,108.90194879867354,154.97351793724775,160.43662662362786,175.98832302889303,167.3145177862239
1.8351685018351689,255.5275426116256,195.4655727230113,60.52684499486739,94.37077414130316,154.14591942552457,160.21770848497258,177.12640003108035,168.62372026799807
1.8685352018685355,266.6435580688536,204.67026544698751,59.29836034570329,77.03702916083252,152.97509642797593,159.73012838317953,178.69618578481283,170.59670535278036
1.901901901901902,275.66672622822125,211.17158620840385,58.44372917261461,56.72639489723864,151.43929702409616,158.95391745960595,180.72207276877745,173.2808780480633
1.9352686019352687,282.24803910290643,214.41601561725653,57.98179824469861,33.26455239049875,149.51676929337958,157.86910685560906,183.2284534616611,176.72364336133947
1.968635301968636,286.0384887060856,213.85003428354165,57.93141433105252,6.477182680590204,147.18576131532052,156.45572771254615,186.2397203421509,180.97240630010143
