Time,Left Shoulder Angle,Right Shoulder Angle,Left Elbow Angle,Right Elbow Angle,Left Hip Angle,Right Hip Angle,Left Knee Angle,Right Knee Angle
0.0,20.80658397855554,25.40775668411821,159.70817733134265,167.007017761618,138.7764370354177,143.86450662284565,196.30809620966207,200.11508517820647
0.0333667000333667,22.039304693236915,26.6208417559834,155.4769240552535,164.4614130116962,139.28780117490274,144.2046285103957,196.78855649082487,199.6163369992288
0.0667334000667334,23.00869187714631,27.631578559294766,152.07996239183407,162.4687464535682,139.67061983429835,144.4394101782024,197.26269552196376,199.21712573812508
0.1001001001001001,23.73285296439772,28.449507969583752,149.45946262813982,160.98005175363156,139.93235221186603,144.57610196720825,197.73070105408263,198.9121311593506
0.1334668001334668,24.22989538910516,29.084170862381782,147.55759505122626,159.94636257828378,140.08045750586726,144.62195421835582,198.19276083818545,198.6960330273608
0.1668335001668335,24.517926585382604,29.545108113220287,146.31652994814883,159.31871259392247,140.1223949145635,144.5842172725877,198.6490626252761,198.5635111066111
0.2002002002002002,24.61505398734407,29.84186059763069,145.67843760596318,159.04813546694515,140.06562363621626,144.4701414708464,199.0997941663585,198.5092451615569
0.2335669002335669,24.53938502910355,29.98396919114443,145.5854883117247,159.08566486374934,139.91760286908703,144.28697715407455,199.54514321243647,198.5279149566536
0.2669336002669336,24.309027144775044,29.98097476929292,145.97985235248896,159.38233445073266,139.6857918114373,144.04197466321466,199.985297514514,198.61420025635653
0.3003003003003003,23.94208776847256,29.8424182076076,146.80370001531145,159.8891778942926,139.37764966152852,143.7423843392093,200.42044482359492,198.76278082512127
0.333667000333667,23.456674334310083,29.5778403816199,147.99920158724763,160.55722886082674,139.00063561762218,143.39545652300103,200.8507728906833,198.9683364274031
0.3670337003670337,22.87089427640161,29.19678216686124,149.5085273553531,161.33752101673264,138.5622088779798,143.0084415555324,201.2764694667829,199.22554682765744
0.4004004004004004,22.202855028861173,28.70878443886305,151.2738476066833,162.18108802840783,138.06982864086285,142.588589777746,201.6977223028977,199.5290917903397
0.4337671004337671,21.470664025802733,28.12338807315676,153.23733262829376,163.03896356224985,137.5309541045328,142.14315153058433,202.11471915003148,199.8736510799053
0.4671338004671338,20.692428701340308,27.4501339452738,155.34115270723996,163.86218128465626,136.95304446725115,141.67937715499002,202.52764775918828,200.2539044608096
0.5005005005005005,19.88625648958789,26.698562930745595,157.52747813057746,164.60177486202463,136.34355892727942,141.2045169919056,202.93669588137192,200.6645316975081
0.5338672005338673,19.07025482465949,25.878215905103577,159.73847918536177,165.20877796075249,135.709956682879,140.7258213822736,203.3420512675864,201.1002125544561
0.5672339005672339,18.26253114066924,24.99863374387941,161.91632615864967,165.63422424723893,135.0596969323126,140.25054066703782,203.74390166883703,201.55562679611072
0.6006006006006006,17.19778333395208,23.344837187518515,162.77335551734447,166.05717893491885,134.4166122869233,139.86760322101077,204.1636803902278,202.01776046296868
0.6339673006339673,15.884928658766617,21.49368548703924,163.01595670932485,166.64607656413347,133.85069977692896,139.51319456968398,204.59103598849188,202.4801504401548
0.6673340006673341,6.126804176098567,19.52103279369416,162.6325792474587,167.3740484546647,133.33400507293794,139.19224888928838,204.96857644138137,202.94229360376607
0.7007007007007008,-0.2459882539263596,18.13583010643687,162.10170080355428,164.7720312826656,132.87933407152667,138.87993013223817,205.29266822576983,203.4042314912173
0.7340674007340674,-3.591449795569164,17.20475070755553,162.4245165153967,161.42198099633012,132.44551562171236,138.6085348545726,205.57146986969389,203.8428928011459
0.7674341007674341,-4.1006154247812105,16.622338793198974,162.79631984890838,157.46894860904428,132.02179545921666,138.3628063971792,205.83692877466265,204.251454372267
0.8008008008008008,-2.346559136995776,16.269513176218602,163.1297547654549,153.07387863430162,131.6177047867278,138.14529778094467,206.0797244572421,204.62443533545832
0.8341675008341676,1.6590885043667445,16.22281380774789,163.34581385709882,147.98672981368267,131.2048456726182,137.99245451015543,206.35965513591657,204.88114476795857
0.8675342008675342,1.6590885043667445,16.71201834627941,163.26058547060796,143.04329242123345,130.76369680455306,138.00099520316223,206.6850063112756,204.86825163706965
0.9009009009009008,1.6590885043667445,19.09773296315723,165.18044676407715,136.6605981900697,130.163544082686,138.0836702015518,207.1214944716583,204.7496237613284
0.9342676009342676,1.6590885043667445,21.36965315778677,167.9644897396427,131.2123494806659,129.50798066210444,138.06040349845927,207.66501688520867,204.78790694410824
0.9676343009676344,1.6590885043667445,22.869964423763925,164.65685916171006,124.36118340766552,128.83518963171898,138.102591427506,208.3219777176068,204.90687542683403
1.001001001001001,1.6590885043667445,23.44418767971529,163.97373832801466,115.75092147369786,128.00047218567596,138.09697901363302,209.19474882103128,205.3007583493008
1.0343677010343677,1.6590885043667445,24.46407866002161,164.16887546865445,108.5574718634724,127.2903215911525,137.77587073714432,210.413439078256,206.11080348663884
1.0677344010677343,1.6590885043667445,25.72517243262332,163.9947939043663,102.55075644942193,126.43819414737364,137.32517076476438,211.82727685505105,207.092176133234
1.1011011011011012,1.6590885043667445,26.74357234879585,164.24360815129495,97.64900396320606,125.7436780421161,136.7644179556317,212.98095289339645,208.13810459241463
1.1344678011344678,7.272610605580453,27.6112568761542,163.7658863266435,94.70792333833964,125.3477172357623,136.32084445397436,213.78526176962853,209.1856285698236
1.1678345011678346,24.65473869024167,29.21321470638712,162.92255616901954,93.72065352708849,125.32384839599898,136.2871058410802,214.3294249694374,210.02691946927536
1.2012012012012012,42.06892254748275,30.86585039556926,161.99763282187584,92.68920698311692,125.60015867608784,136.40832800627302,214.6765549253001,210.71780890099745
1.234567901234568,57.530781865603366,32.18164452549093,160.26642707692832,89.76538754677757,126.13993694491388,136.64517610285273,214.9914553301212,211.2410031444281
1.267934601267935,71.12726804485321,33.48076195627909,158.21867634961674,91.97040420868632,126.67352279117269,136.93154999225294,215.4659638695273,211.69002992472497
1.3013013013013013,83.90388991402459,33.90656268234328,157.0917235813291,92.94850461677753,127.55960540840104,137.35013962831138,215.47310798290653,211.9175394506322
1.334668001334668,95.62042167351092,34.9066822570037,154.30963108951676,93.756848824083,128.67441158050514,137.77962648791802,214.97584936243987,212.0160593613824
1.3680347013680347,106.33870328726596,34.05588844652711,152.01737141835056,91.4166464734851,129.69355561700252,138.28346507323613,214.5100699435704,211.9599175885692
1.4014014014014016,115.30836608373848,25.592321319517776,149.32345239893007,86.0823082515669,130.68446241757218,138.7823268105219,213.8427777979009,211.7086772126264
1.4347681014347682,123.0024174644601,19.75323815733972,146.64206895184574,82.06376505122486,131.6435859879983,139.23040147708582,212.9795387162424,211.27580062394745
1.4681348014681348,129.41888971127165,16.167337637670645,144.23677103144436,80.36130115607946,132.63553931426551,139.75537415024607,211.97938693907184,210.63272189321728
1.5015015015015016,134.22241639813478,13.868938449484132,141.87857914606076,80.04846761360008,133.73491760132876,140.4010128215522,210.7463424946237,209.71504210700337
1.5348682015348682,137.62860791880195,12.921330213198,139.77966014903402,81.19335880627732,134.96510776715098,141.0874864898093,209.31914982402765,208.6180919218172
1.5682349015682349,139.79087350102452,13.258135011589133,137.96624214999008,85.05015374587899,136.18078646507445,141.8456663162616,208.0286868863199,207.17837861532527
1.6016016016016017,140.26117431276623,23.93618463501648,137.924283236495,89.85369573050929,137.46075867076163,142.6128113444691,206.4032454561052,205.73066010968355
1.6349683016349683,129.18263609403678,25.739175980263823,133.131222163658,96.09196336567705,138.97538441998677,142.882962192845,204.66840128111127,204.1659874945176
1.6683350016683351,120.18851308170252,30.21351702642316,128.55864429763358,101.68907534313796,140.63382142646037,143.31306088601502,202.8004809416044,202.48967260414832
1.7017017017017018,112.89205434784006,45.576067671542354,122.99321488371572,105.3879836045488,142.36175539801567,143.8725468459984,200.8140375184201,200.5866044803592
1.7350684017350684,106.75795465212828,58.20849791533494,118.37320869604434,108.38635750469494,144.1191950353542,144.58182349677625,198.7081526524028,198.62403170510413
1.7684351017684352,101.07522570418858,70.72635355406362,113.5222118045753,109.2775771657181,145.8700208912038,145.3003332437072,196.3607316518589,195.99548548824703
1.8018018018018016,96.08231497247309,83.41351737481676,108.69880222223564,109.92582807972474,147.5624123306542,146.0443664989372,194.03409645255329,193.38099768323767
1.8351685018351689,91.49434709396544,96.020489101146,103.95375149950831,110.34054141163004,149.17352440928605,146.81440927162043,191.75976530757765,190.8278609505404
1.8685352018685355,87.29913998861127,108.29776845660328,99.33783118687757,110.53114832634988,150.68051218268116,147.61094757091232,189.56925647002583,188.3833679506212
1.901901901901902,82.607477717542,119.99585516474052,94.90181283482752,110.50707998880024,152.0605307064213,148.43446740596818,187.4940881929916,186.0948113439463
1.9352686019352687,87.04674653814946,130.8652489491099,90.6964679938424,110.277767563897,153.29073503608828,149.28545478594347,185.5657787295685,184.00948379098165
1.968635301968636,89.66013768894432,140.65644953326336,86.77256821440639,109.85264221655603,154.34828022726387,150.16439571999348,183.8158463328504,182.1746779521933
2.002002002002002,90.46556517698222,149.11995664075278,83.18088504700367,109.24113511169334,155.2103213355299,151.07177621727365,182.27580925593085,180.63768648804745
2.035368702035369,96.613474729236,156.00626999513025,79.97219004211837,108.45267741422478,155.8540134164681,152.0080822869393,180.97718575190368,179.44580205901002
2.0687354020687354,103.44970509785566,161.0658893199478,77.19725475023475,107.4967002890663,156.2565115256603,152.97379993814582,179.9514940738626,178.6463173255471
2.1021021021021022,110.78301413538428,164.0493143387576,74.90685072183695,106.38263490113376,156.39497071868828,153.9694151800486,179.23025247490128,178.2865249481248
2.135468802135469,118.42215969436664,164.70704477511129,73.15174950740916,105.11991241534312,156.2465460511338,154.995414021803,178.84497920811344,178.4137175872091
2.1688355021688355,126.1758996273466,162.78958035256082,71.9827226574355,103.71796399661032,155.7883925785787,156.0522824725644,178.8271925265928,179.07518790326623
2.2022022022022023,133.85299178686876,158.04742079465885,71.45054172240027,102.18622080985122,154.99766535660473,157.14050654148815,179.20841068343304,180.3182285567621
2.235568902235569,141.2621940254774,150.23106582495677,71.6059782527876,100.53411401998174,153.8515194407937,158.26057223772966,180.02015193172795,182.1901322081628
2.2689356022689355,148.21226419571673,139.09101516700687,72.49980379908165,98.7710747919178,152.3271098867274,159.4129655704443,181.2939345245712,184.73819151793447
2.3023023023023024,154.51196015013105,124.37776854436096,74.18278991176662,96.90653429057538,150.4015917499876,160.5981725487874,183.0612767150565,188.00969914654308
