Time,Left Shoulder Angle,Right Shoulder Angle,Left Elbow Angle,Right Elbow Angle,Left Hip Angle,Right Hip Angle,Left Knee Angle,Right Knee Angle
0.0,31.181593568284978,37.923167212223504,168.332844925924,170.35121664910614,145.71546957657443,143.7735423145808,188.6976795916441,188.69524570912807
0.0333667000333667,30.776627504403685,37.53899736331612,166.48364194836705,169.06907434471495,145.59591370250087,143.27605591774062,188.75705093270213,189.26083304048
0.0667334000667334,30.47552628089844,37.13119536492683,164.9698997580023,167.7748238318418,145.45874023755582,142.83098901468156,188.8151986669148,189.7564432858772
0.1001001001001001,30.270770143001457,36.70073385655283,163.77081101864053,166.4737806526336,145.30522280120604,142.4370206638184,188.87219174083629,190.1849844825939
0.1334668001334668,30.154839335944978,36.24858547769132,162.86556839409246,165.1712603492374,145.1366350129182,142.0928299235658,188.9280991010208,190.54936466790429
0.1668335001668335,30.12021410496122,35.7757228678395,162.23336454816882,163.87257846380012,144.9542504921589,141.7970958523385,188.9829896940226,190.85249187908263
0.2002002002002002,30.159374695282413,35.28311866649455,161.85339214468036,162.58305053846874,144.75934285839492,141.54849750855115,189.03693246639577,191.0972741534032
0.2335669002335669,30.26480135214078,34.77174551315369,161.70484384743776,161.30799211539025,144.5531857310929,141.34571395061852,189.08999636469457,191.28661952814005
0.2669336002669336,30.428974320768543,34.242576047314095,161.76691232025178,160.0527187367116,144.33705272971952,141.18742423695528,189.1422503354732,191.4234360405676
0.3003003003003003,30.644373846397933,33.696582908472976,162.01879022693316,158.82254594457973,144.11221747374145,141.07230742597616,189.1937633252857,191.51063172796003
0.333667000333667,30.903480174261173,33.134738736127524,162.4396702312926,157.62278928114165,143.8799535826254,140.9990425760959,189.2446042806864,191.5511146275916
0.3670337003670337,31.19877354959049,32.55801616977493,163.00874499714087,156.45876428854433,143.64153467583802,140.96630874572915,189.2948421482294,191.5477927767364
0.4004004004004004,31.522734217618112,31.9673878489124,163.70520718828868,155.3357865089347,143.39823437284602,140.97278499329067,189.344545874469,191.5035742126688
0.4337671004337671,31.867842423576256,31.363826413037128,164.50824946854675,154.25917148445976,143.15132629311603,141.01715037719512,189.39378440595928,191.42136697266292
0.4671338004671338,32.22657841269716,30.74830450164631,165.39706450172582,153.23423475726645,142.9020840561148,141.09808395585725,189.4426266892545,191.3040790939932
0.5005005005005005,32.59142243021304,30.121794754237136,166.35084495163662,152.2662918695018,142.65178128130896,141.21426478769175,189.4911416709088,191.15461861393365
0.5338672005338673,32.95485472135612,29.48526981030681,167.34878348208989,151.36065836331272,142.4016915881652,141.36437193111337,189.5393982974764,190.9758935697586
0.5672339005672339,33.30935553135891,28.839702309352823,168.37007275689766,150.52264978084747,142.15308859615126,141.54708444453786,189.58746551551292,190.7708119987438
0.6006006006006006,33.665808245884485,28.34350775700345,169.12449118190602,150.27154647238555,141.90205911834056,141.74705050451303,189.603812012458,190.5031629289804
0.6339673006339673,33.937553081243934,27.754223697638263,169.61704452766278,149.83974133408452,141.72056423326322,141.98729169649107,189.642925111679,190.2324349698756
0.6673340006673341,34.186164203113776,27.08910128477974,170.23723717711204,149.37666663056282,141.6188367070647,142.28452307062705,189.71278901252293,189.9640786958118
0.7007007007007008,34.367006068168266,26.458337477564623,171.43106130871925,149.08575018317367,141.49072178692478,142.61501797915616,189.76404030801925,189.68686942495384
0.7340674007340674,34.38578089609025,25.79928092907081,172.36384176383356,148.82907543651405,141.37096648843396,142.98768903049822,189.7463822391812,189.3960608273756
0.7674341007674341,34.36093351170007,25.228744008893106,173.1521682662665,148.78600831247243,141.22400209160955,143.37529420265815,189.75349225817115,189.1209177862693
0.8008008008008008,34.37277330798383,24.57967600277172,173.8089966893701,148.6891516846534,140.97345942849074,143.78626659841993,189.7993549787579,188.85653119367163
0.8341675008341676,34.40496007365687,23.97431104279253,173.544592415204,148.7405639575539,140.74828699221263,144.21565309952658,189.84048573750644,188.5864540799636
0.8675342008675342,34.27927968818937,23.25093132688643,173.00948627632093,148.61533867899607,140.55895651842172,144.6402568853602,189.8643878979897,188.3207868573148
0.9009009009009008,34.187758601456665,22.301560029234142,172.73813660660312,148.54410658463595,140.38503392497944,145.04781847131645,189.8619219187437,188.0933076240565
0.9342676009342676,34.19669785527146,21.28150881694038,172.98668628888765,148.3733563265997,140.17593184860343,145.45623978203892,189.98181567791576,187.8849053638156
0.9676343009676344,33.92861239318523,19.982370659428074,173.015233679247,148.1667994530758,139.851886468694,145.9288069208101,190.1492287280161,187.6945546409392
1.001001001001001,33.59175017351735,18.616278421307,173.71215920853308,147.75380919860686,139.465294921625,146.41803684430064,190.2693767317064,187.5085648788608
1.0343677010343677,33.2107683296895,17.3358730479502,174.1732631615978,147.3060091732412,139.03701816906417,146.84381910258125,190.32899922035244,187.33944619322332
1.0677344010677343,32.68141136456124,16.223135871456602,174.69983961057585,146.68909284810275,138.61907983567627,147.2682457185962,190.3909275578655,187.13225856615875
1.1011011011011012,31.89367625681236,15.189416903602018,176.22763962183103,146.280015136259,138.20439101847927,147.69480047764125,190.4828488468756,186.88369662560453
1.1344678011344678,30.88271720508541,14.148951767925825,177.2554716054199,145.47967917477484,137.8174781339512,148.12405243200396,190.5952965133457,186.59945558545692
1.1678345011678346,29.60038159202691,13.1884334221064,176.32404226121238,144.75817424544957,137.5056846955539,148.54217908677984,190.65310712413165,186.2891580279615
1.2012012012012012,28.099630647482364,12.17635528208435,172.54996552614264,143.64420364555406,137.16499956473777,148.93326340308383,190.73799239559472,185.98557088948567
1.234567901234568,26.363592077332115,11.209699666598418,171.89393084404094,142.28182863020115,136.8819542781989,149.2848298549132,190.844844262023,185.69921525206263
1.267934601267935,24.594883405446552,10.353447933354476,170.78126739926896,140.42060306093222,136.58806053582566,149.62136389968887,191.00738111493465,185.4184460469069
1.3013013013013013,22.93724579207764,9.34341861825137,166.69869898819624,138.43325992390808,136.31612384352738,149.94111747527444,191.229469969337,185.14983072521696
1.334668001334668,21.567930331227075,8.439373427230418,163.1085738940519,136.0286624450689,135.9855016889187,150.25754162376634,191.4676010346165,184.91129357358463
1.3680347013680347,20.352268467812376,7.607543791418026,164.86073098114218,133.34638159173713,135.57908042156342,150.5254526626255,191.77945612521927,184.72867688557983
1.4014014014014016,17.4469795817475,6.984959259275712,167.21533354529416,130.13380482674455,135.09511339896568,150.741144125375,192.1682642708529,184.5908288701297
1.4347681014347682,15.062397274102874,6.644133500420346,167.0764189083374,127.77124478274736,134.5001785558017,150.91883522898758,192.61605114964988,184.48602727656623
1.4681348014681348,14.02929468560662,6.5772807928325605,165.0097081522059,124.73369181578316,133.85137272729847,151.10808741709252,193.12233275327733,184.3288103334016
1.5015015015015016,13.48302121846349,6.638572282693175,160.8450884063186,120.00513250427436,133.21982293950342,151.29454182780307,193.65649189256945,184.1393667480521
1.5348682015348682,12.739632784425204,7.059182193726678,156.3858482640052,115.0325421790345,132.67598178556585,151.4938984182616,194.14782069124087,183.95645337595053
1.5682349015682349,12.398275105690018,7.931584431023089,152.56256972382803,109.77086694355016,132.20609917948917,151.66452237023515,194.585717614814,183.79265002314875
1.6016016016016017,12.253360055432754,9.10960903548759,148.78498833843625,104.1637991220684,131.88548817663116,151.82148842909783,194.92346965592645,183.627487837758
1.6349683016349683,11.895846514315153,10.5381456826734,144.43703927268731,98.53485215496003,131.566628283967,151.9470712880413,195.2556746015292,183.46400427627063
1.6683350016683351,11.60180970200376,12.034133859396675,139.90272344444904,92.93267515657692,131.26889550148385,152.02108031596993,195.61725039616329,183.33693884155545
1.7017017017017018,11.627504880782222,13.534993767579492,135.76167589289932,88.66993218804157,131.01251034720818,152.04820128076227,196.01542261722992,183.2318854089817
1.7350684017350684,11.876612594739566,15.05425968341575,131.8566429485512,83.41006025778773,130.80337078913698,152.0904203489845,196.3787992661908,183.15035082541127
1.7684351017684352,2.19953663326341,16.660352489656404,126.87512605712875,77.61298590129508,130.6256582856159,152.13988974750853,196.7489866566624,183.1234732894179
1.8018018018018016,2.19953663326341,18.414208936002883,122.3252168877161,72.11397400940042,130.45652651332932,152.19031332862477,197.09465928249577,183.14758102225872
1.8351685018351689,2.19953663326341,20.286189744858188,117.94184859545967,66.76333206635653,130.34472687475218,152.21407039165675,197.42208269644937,183.2265981789406
1.8685352018685355,2.19953663326341,22.232201568725223,113.61378180222236,61.7216746741226,130.35734982388567,152.23580822685523,197.7475666635425,183.34017435472583
1.901901901901902,2.19953663326341,24.19318225174877,109.80164605815312,57.02250482690261,130.50231944475647,152.26087639951336,198.0285317407504,183.4667714263012
1.9352686019352687,-4.0280024312420455,26.003850811021035,106.61987595619082,52.665645910403605,130.71938512971812,152.28045740017907,198.2241436974488,183.5757169362337
1.968635301968636,-6.776104679431724,27.752885007825103,104.17271369028548,48.81484292344115,131.03210816309152,152.31708422407874,198.2687344794222,183.6440751334064
2.002002002002002,-6.75806076061002,29.307293012178324,103.47843034098058,45.386491087112304,131.29937372886857,152.32325945247422,198.24784463648385,183.7125705299288
2.035368702035369,-3.934894108765244,30.72092842242112,104.12482180972404,42.59391357180973,131.5410355994381,152.28469496651314,198.1980619476957,183.8056610618554
2.0687354020687354,1.2548066790735808,32.1223433858314,105.61661963606744,40.240455725464,131.7318643850212,152.24819730421476,198.13597426993945,183.8794052153445
2.1021021021021022,1.2548066790735808,33.44769786455031,107.61040647336318,38.480123481791686,131.91191654275738,152.23399318424177,198.0349404456896,183.93803021210985
2.135468802135469,1.2548066790735808,34.964368495555426,110.71332977255436,37.27634601930071,132.1458464773551,152.1570895557263,197.9100120764245,183.98454150015672
2.1688355021688355,1.2548066790735808,36.38957238230822,113.8550017284607,36.42403536880833,132.51543067547473,152.08479123790954,197.65981230169984,184.01327848450484
2.2022022022022023,1.2548066790735808,37.67876084834202,117.71128042790114,36.16776368422644,132.97780594885072,152.08916086589164,197.384758847382,184.0100842907138
2.235568902235569,1.2548066790735808,38.89101144262743,121.8442166188463,36.83472385255554,133.47255350036275,152.11795724841616,197.04726226494668,183.9857460396869
2.2689356022689355,1.2548066790735808,40.043791745955296,124.74293743688486,37.89315939482811,133.96490690743883,152.13476856982447,196.6820172153791,183.95352606905743
2.3023023023023024,1.2548066790735808,41.145125778077535,127.41019435457122,39.70775217982864,134.42248527464744,152.1229172734221,196.3304181671552,183.8955459739889
2.335669002335669,1.2548066790735808,42.06331977145568,131.50112761284578,41.67361164085268,134.79216356711927,152.09085441034435,196.0985560963285,183.83808520400075
2.369035702369036,8.664376963352037,43.01260983380262,139.22520331590252,44.130767763927714,135.16695540476084,152.10856884391836,195.8981031360501,183.7086654157236
2.4024024024024024,18.02338713350077,43.817984024136365,144.1036256167328,46.7769647545687,135.38292211927634,152.14223857295372,195.81168417114085,183.56945161529453
2.4357691024357693,29.122211637551988,44.38057689490228,148.76704168413437,49.43937459233905,135.3988876461994,152.2384105231927,195.82236897973564,183.3914146063864
2.469135802469136,41.48688112854965,45.09214781053737,156.73591310112909,51.99980686014403,135.2714063489708,152.30221559795265,195.93171228712976,183.2458461363572
2.5025025025025025,54.775917680002,46.068018028846446,165.62905236967225,55.316793341679166,134.99498234366072,152.3809871926459,196.10672353410823,183.0201744003928
2.5358692025358693,69.03932143201001,47.00489521976078,169.1360654519695,58.64565956902807,134.63819130238522,152.39702713842286,196.343724897821,182.86568623130992
2.569235902569236,83.97022397540452,47.96333352208605,177.14816111228558,62.67505124489585,134.2642431279967,152.3977145132218,196.6147000982509,182.7013087778753
2.6026026026026026,99.26381357832774,48.55085200705764,183.02827487009043,64.40080277784746,133.91225713668115,152.29387557115382,196.9591690514082,182.6677734885376
2.6359693026359694,114.8203670443286,49.40282123565919,178.44563557825825,64.56991603190885,133.50510627625326,152.04241630505564,197.51186047566333,182.71277317388103
2.669336002669336,130.5195210127976,49.9276347919964,184.72828417506247,65.4171629272409,133.03082434149945,151.65750596718848,198.1457123133816,182.9108433458657
2.702702702702702,146.14666888262516,50.00620980386411,179.39429331064247,65.50203693676,132.52759360793866,151.20385856335335,198.79640950918025,183.205062956115
2.736069402736069,161.60615315091937,49.54246217535118,174.52482711132967,65.83823589089701,131.9876817345349,150.67433898916366,199.50209281851548,183.6466892590168
2.7694361027694363,176.51503841601794,48.45055908123415,172.6998928628785,65.01132865074034,131.39821064755668,150.07349614689988,200.2390044889696,184.0978892889973
2.802802802802803,191.031386585422,46.95605820899632,171.7188557634935,64.62112868722035,130.86930188352352,149.42803222255222,201.00811044792337,184.74389574680407
2.836169502836169,205.0188434949244,45.09196389377716,170.82550837676808,64.77108783527153,130.37690108330108,148.80754632518028,201.7155609648528,185.49143112287103
2.8695362028695364,218.05132941196047,43.09609870168941,169.04543295584187,63.87253940341272,129.94495085406265,148.14128569834236,202.3812620603996,186.47252766302748
2.902902902902903,240.116939935512,40.86165193671828,167.9663808591266,63.41884073924289,129.48132752706815,147.4497042009406,202.9770044767216,187.6385757936192
2.9362696029362696,257.80197414491863,38.43726761012199,167.24063686416756,63.67546569098973,129.171439073264,146.74071342250633,203.4987267647372,188.94116561186627
2.9696363029696364,271.8618728302997,35.26618204447778,165.32918245073873,63.23327132125704,128.86021678377355,145.86813644586925,204.3496961842621,190.43196218007927
3.003003003003004,282.4434113794329,32.28858063142677,163.60307536998587,63.89589142168474,128.8030169847186,145.1074576407327,204.98677965884144,191.92559731075585
3.0363697030363697,288.96810352990866,28.88096805016005,162.15481124996222,64.44231605175625,128.87594927757542,144.33602041553317,205.5772312218377,193.4627871752199
3.0697364030697365,291.8281798120205,25.67152489782385,161.5517418410968,65.8127222731083,129.16208543641457,143.63559818119282,205.9136834854227,194.9975889648404
3.103103103103104,291.40158182418423,22.64841763239481,160.5815558416596,67.74819511572137,129.58418890205823,143.0384240654467,206.13811978146285,196.62379443245285
3.1364698031364697,287.08189077683943,19.96727300723094,159.28553937407267,70.57251459248957,130.1895651210304,142.59883001367547,206.14766538148507,198.21979473577585
3.169836503169837,279.12788654517385,16.95634025391343,162.27944407666806,76.90760966339487,130.8254753552712,142.22179030590087,206.28540891968248,199.7327000608244
3.2032032032032034,267.669925169388,14.36892251177492,164.06527608604458,82.71714714962529,131.6544748829615,142.07185758620275,206.2074329356421,201.0418803770908
3.2365699032365702,252.3983170727707,12.401222803527713,162.9664627569987,83.99619931982107,132.82337570901132,142.06872954613928,205.9012895514372,202.2009574652785
3.2699366032699366,233.2871104081188,10.915673729004638,161.6637544094238,86.07857425344244,134.2905552154371,142.39502748749752,205.24014371442885,203.0669417936584
3.3033033033033035,210.89369058715772,8.860065574699878,161.3565402667556,94.86645240394014,136.01903473738585,143.1143071490979,204.17365008245423,203.5923934133734
3.3366700033366703,198.0177447094215,7.539675311628503,160.39411285984008,102.98642064122468,137.77573949870148,144.14055765101168,203.0103151469865,203.8280784697571
3.3700367033700367,183.9600400345631,6.557683751544785,158.7181117666023,110.3236446838836,139.39721925889856,145.19984862778054,201.7942070331686,203.98307909162293
3.4034034034034035,169.10792501251015,6.387919007995156,157.21575322896115,116.57037816106842,141.03631611947444,146.34262787432874,200.51582994863497,203.9915577490628
3.4367701034367704,154.26908873007787,6.40507577709657,156.35724369807,121.5627936688028,142.6034853455341,147.87966397615253,199.1355236995492,203.7794209094188
3.4701368034701368,139.74484913209588,7.131018884362419,155.03838576203435,125.17857982195711,144.25009044178668,149.47035833431707,197.70412246933813,203.40099251283505
3.503503503503504,124.92768894338448,8.31271862283981,153.46137314661772,127.6545329817237,145.9388470297404,151.12699860557535,196.2408849598367,202.959715329838
3.5368702035368704,109.90342290545352,10.413444504283111,151.2493063593659,129.16396851790202,147.56340102592452,152.7750316829405,194.8570557420293,202.4469045724298
3.5702369035702373,94.33303807492996,13.163457628378048,148.66275945613063,129.39259571496524,149.18252883451973,154.33644393139693,193.49597967615085,201.73554822415105
3.603603603603604,79.64007549309893,16.776365300522304,146.2643025316866,129.11196479248247,150.8273871678903,155.76636332441157,192.2015182830653,200.98494357476548
3.6369703036369705,67.33007751573508,20.98823603158488,144.01971321381538,127.98847210159836,152.4341464489287,157.0761012531256,190.98414913190285,200.22672527545228
3.670337003670337,55.69700206399668,25.497494407808507,142.48244436207236,125.62063373185848,154.03502169492293,158.16203990774025,189.88943745564885,199.6272524253453
3.703703703703704,43.32650341673538,30.67312163848356,141.83121011799935,122.51564955914596,155.59340655487753,159.20623244231913,188.94210374175657,199.0530554424018
3.737070403737071,32.53605471096956,36.18403033332837,132.29527480845533,117.70350330725012,157.01578750175756,160.0106153677231,188.1861966199705,198.6020613508715
3.770437103770437,24.12276101708901,42.371873378417504,121.47098293895846,112.26034912774344,158.29941245579752,160.65571951965043,187.60162423199048,198.2113446788228
3.803803803803804,17.339767008020655,48.36977802356381,120.07167078828722,107.11469236535449,159.507332205018,161.20263474950804,187.00849791817467,197.88962856146736
3.8371705038371706,12.347578931606174,54.83593310149472,107.47884912159908,101.45569501097332,160.625532878254,161.6949349146222,186.51013828504296,197.6297210524731
3.8705372038705375,8.845257690571447,60.843030005551086,105.76743068219544,95.36783752808566,161.62560842815117,162.05482284539897,186.1252510803328,197.39751183788715
3.903903903903904,7.351690580561905,66.17044476394523,105.91258809328332,88.18166348867777,162.4875970095978,162.24641659706543,185.85815029752823,197.21698150198097
3.937270603937271,8.47495341323048,70.99326721125188,104.0980905158056,81.96056690070472,163.24087688354138,162.30250729702107,185.6971564161936,197.1937627507557
