Time,Left Shoulder Angle,Right Shoulder Angle,Left Elbow Angle,Right Elbow Angle,Left Hip Angle,Right Hip Angle,Left Knee Angle,Right Knee Angle
0.2669336002669336,11.155702109281847,11.701625706915133,108.7708098984591,120.48609862164012,158.69391746718537,198.4223550423841,186.6012183653078,181.3620330701436
0.3003003003003003,8.808957100817473,14.18723286492787,119.3135563562646,113.92136916928666,158.7051110206843,199.3767770780349,187.3466918828521,181.45107064741129
0.333667000333667,7.005348577604579,16.142851683770587,127.76953205796598,107.79524266681754,158.85360051101404,200.20284962833944,187.7583688259804,181.37883819827903
0.3670337003670337,5.706126558739038,17.60953945762195,134.29561773529727,102.10997104613573,159.12701622700104,200.91252639377967,187.8683398354488,181.16031635000857
0.4004004004004004,4.872541063316724,18.62835348066063,139.0486941199925,96.86780623914416,159.5129884574718,201.51776107483752,187.70869555201372,180.81048572986143
0.4337671004337671,4.46584211043351,19.24035104706529,142.18564194378573,92.07100017774584,159.9991474912528,202.030507371995,187.31152661643165,180.3443269650994
0.4671338004671338,4.447279719185263,19.48658945101461,143.86334193841094,87.72180479384366,160.57312361717052,202.46271898573409,186.70892366945864,179.776820682984
0.5005005005005005,4.778103908667865,19.40812598668724,144.23867483560224,83.82247201934064,161.22254712405143,202.82634961653667,185.93297735185112,179.12294751077695
0.5338672005338673,5.419564697977183,19.04601794826187,143.46852136709362,80.37525378613967,161.93504830072203,203.13335296488475,185.01577830436537,178.3976880757399
0.5672339005672339,6.332912106209093,18.44132262991716,141.7097622646191,77.38240202614375,162.6982574360088,203.39568273126028,183.9894171677577,177.61602300513445
0.6006006006006006,7.479396152459464,17.63509732583176,139.11927825991273,74.84616867125585,163.4998048187382,203.6252926161453,182.8859845827844,176.79293292622228
0.6339673006339673,8.820266855824169,16.668399330184364,135.85395008470854,72.76880565337888,164.32732073773673,203.8341363200216,181.7375711902018,175.94339846626505
0.6673340006673341,10.316774235399084,15.58228593715364,132.0706584707406,71.15256490441584,165.16843548183087,204.03416754337127,180.57626763076624,175.0824002525244
0.7007007007007008,11.930168310280076,14.41781444091823,127.92628414974293,69.99969835626965,166.01077933984712,204.23733998667623,179.43416454523398,174.22491891226193
0.7340674007340674,13.621699099563028,13.216042135656828,123.57770785344952,69.31245794084329,166.8419826006119,204.4556073504185,178.34335257436135,173.38593507273936
0.7674341007674341,15.352616622343804,12.0180263155481,119.18181031359444,69.09309559003971,167.64967555295178,204.70092333508,177.33592235890464,172.58042936121828
0.8008008008008008,17.08417089771828,10.8648242747707,114.89547226191168,69.34386323576186,168.4214884856932,204.98524164114264,176.4439645396202,171.8233824049604
0.8341675008341676,18.777611944782493,9.797493307503323,110.8755744301359,70.06701280991325,169.145051687664,205.32051596909017,175.69956975726558,171.12977483122876
0.8675342008675342,19.09197493393859,8.931487227125743,107.1379016221404,72.11410329884374,169.33826173819838,205.64173355868564,175.98334875864336,170.9041105733694
0.9009009009009008,17.994650056321525,7.639996714238599,118.17742060972738,72.5527307573746,169.3620580968623,206.5211064470268,176.4916734588386,170.27614766622438
0.9342676009342676,17.415241460415952,6.991713343450979,111.30925530463315,70.94230462743948,169.24683913851334,207.55530811133988,177.37689560284372,169.79082468101666
0.9676343009676344,16.375819803521335,4.940593630160942,107.88686172041386,75.09131572220653,169.13531516805625,208.8835972980248,178.4376768607984,169.30500864736152
1.001001001001001,16.11620444139625,4.141878850513309,103.85146673791044,77.79518924867438,169.21651236682064,210.2832296028751,179.65389522203705,169.04729313762712
1.0343677010343677,18.77197089589553,6.235197801661897,99.8808459518247,81.65947808963787,168.73210285986332,212.691411578352,180.96651583415883,169.3940591232859
1.0677344010677343,21.11905029282267,9.030926578887016,105.10082519984395,94.05310996043568,168.84414496751253,214.1901519608845,183.01498823093044,169.81994197837994
1.1011011011011012,21.50523945878025,10.942641636442891,111.86892000296122,100.90327184691152,169.02838095039232,215.0566762020952,185.139919369714,170.40081441348377
1.1344678011344678,23.751901266119688,15.7132397894786,125.49772922534518,107.02647839755303,169.4908674752383,216.00529004561776,187.04138779546457,171.18335209449
1.1678345011678346,25.96051557452024,19.172496260661266,139.4371255120325,114.16061926711622,169.93672195224386,216.7559260778228,188.75532757177967,172.32128943892835
1.2012012012012012,29.01644614576797,25.81467961176401,149.66194768611405,126.1457959214047,170.58472651074803,217.4808882496617,190.18087797076063,173.7996532490208
1.234567901234568,30.526551805298595,28.76860316971069,164.89414730501073,136.20436859733826,171.19404274088186,217.9513360171632,191.57680230421184,175.68632189126492
1.267934601267935,32.755863003462174,29.35291065769829,167.10951265261343,146.3003831736948,171.8599543466679,218.2715900149892,193.0347448135473,177.89575126884014
1.3013013013013013,35.57711565851936,31.3200555654119,169.55773174458977,154.28984603119696,172.638584833707,218.2727638463704,194.1268375746488,180.4216724838006
1.334668001334668,39.531926940643245,42.30119553290181,170.74080484282126,162.4100043496409,173.68936314797776,217.92494590029656,194.70476149882427,183.25365284655047
1.3680347013680347,43.37876943695685,48.889815495568,170.32651798812765,171.60128395694346,174.5351780880889,217.5417639797952,195.78153188531144,186.42402091132183
1.4014014014014016,47.098748130153865,55.66891930814627,169.34845554288725,179.96146714443734,175.40706608450418,217.00003022376376,196.64008053768404,189.68882141539592
1.4347681014347682,50.608598233831295,62.57368704948313,167.90177053430793,187.27071406471484,176.29717238895395,216.3039512903352,197.2493783354436,193.00805722991643
1.4681348014681348,53.82505496158629,69.53929879842518,166.08161598959856,193.3091848703698,177.19764225317005,215.45773383764416,197.57839615809323,196.3417312260283
1.5015015015015016,56.66485352701602,76.500934633819,163.98314493596763,197.8570397139957,178.10062092888424,214.46558452382533,197.59610488513616,199.64984627487644
1.5348682015348682,59.04472914371776,83.39377463451113,161.70151040062387,200.6944387481864,178.99825366782835,213.3317100070134,197.27147539607552,202.89240524760584
1.5682349015682349,60.88141702528869,90.15299887934832,159.33186541077606,201.6015421255355,179.8826857217342,212.060316945343,196.5734785704144,206.0294110153614
1.6016016016016017,62.091652385326014,96.71378744717698,156.9693629936328,200.35850999863675,180.7460623423336,210.6556119969488,195.4710852876561,209.0208664492881
1.6349683016349683,62.59217043742698,103.01132041684384,154.70915617640276,196.74550252008385,181.58052878135825,209.1218018199655,193.9332664273037,211.82677442053088
1.6683350016683351,62.29970639518876,108.9807778671954,152.6463979862947,190.5426798424704,182.37823029054,207.46309307252773,191.9289928688603,214.40713780023464
1.7017017017017018,61.1309954722085,114.55733987707826,150.87624145051734,181.5302021183902,183.1313121216107,205.6836924127701,189.42723549182915,216.7219594595444
1.7350684017350684,59.00277288208351,119.67618652533912,149.4938395962792,169.488229500437,183.83191952630213,203.78780649882745,186.39696517571332,218.731242269605
1.7684351017684352,55.831773838411,124.27249789082444,148.59434545078915,154.1969221412041,184.47219775634608,201.77964198883427,182.80715280001613,220.39498910156132
1.8018018018018016,51.534733554788026,128.28145405238092,148.2729120412558,135.43644019328573,185.0442920634744,199.6634055409253,178.62676924424062,221.67320282655857
1.8351685018351689,46.028387244812,131.63823508885508,148.6246923948877,112.98694380927536,185.5403476994188,197.4433038132352,173.8247853878899,222.52588631574147
1.8685352018685355,39.22947012208003,134.27802107909355,149.74483953889373,86.62859314176661,185.95250991591112,195.1235434638986,168.37017211046725,222.91304244025503
1.901901901901902,31.05471740018925,136.13599210194295,151.72850650048252,56.1415483433533,186.2729239646832,192.7083311510502,162.23190029147577,222.79467407124417
