Time,Left Shoulder Angle,Right Shoulder Angle,Left Elbow Angle,Right Elbow Angle,Left Hip Angle,Right Hip Angle,Left Knee Angle,Right Knee Angle
0.0,26.057800401539783,48.84819225424389,210.80495785245176,216.78503781331256,172.75943680862665,188.509595301588,183.7579498790521,182.5888608944641
0.0333667000333667,26.06639966349175,49.36402262175945,210.4547904767166,218.9133705821078,172.85021464930884,188.77888335887425,183.6814611637112,182.4679418930468
0.0667334000667334,26.0826915206091,49.762867819469086,210.15139102669025,220.64254295849835,172.91617075001037,189.00808711164848,183.63663602458803,182.3619723863992
0.1001001001001001,26.105878896251934,50.05305650062054,209.8916726488961,221.9979696068756,172.95866602753443,189.19960163620203,183.62136908276017,182.27034176884075
0.1334668001334668,26.135164713780348,50.242917318461565,209.67254848985763,223.00506519163096,172.97906139868434,189.3558220088262,183.6335549593053,182.19243943469056
0.1668335001668335,26.16975189655445,50.34077892623989,209.4909316960982,223.68924437715577,172.97871778026328,189.4791433058124,183.6710882753009,182.12765477826787
0.2002002002002002,26.20884336793433,50.35496997720328,209.3437354141413,224.07592182784148,172.9589960890745,189.5719606034517,183.73186365182485,182.07537719389185
0.2335669002335669,26.25164205128011,50.29381912459948,209.22787279051025,224.1905122080794,172.9212572419213,189.6366689780357,183.8137757099546,182.0349960758817
0.2669336002669336,26.29735086995187,50.16565502167623,209.1402569717285,224.058430182261,172.86686215560687,189.6756635058556,183.9147190707679,182.00590081855668
0.3003003003003003,26.34517274730972,49.97880632168127,209.07780110431952,223.7050904147776,172.79717174693448,189.69133926320265,184.03258835534228,181.987480816236
0.333667000333667,26.39431060671376,49.74160167786236,209.03741833480672,223.15590757002064,172.71354693270737,189.6860913263682,184.16527818475544,181.9791254632388
0.3670337003670337,26.443967371524085,49.46236974346724,209.0160218097135,222.43629631238144,172.6173486297288,189.66231477164365,184.31068318008505,181.98022415388425
0.4004004004004004,26.4933459651008,49.14943917174367,209.0105246755633,221.5716713062514,172.509937754802,189.62240467532024,184.4666979624087,181.99016628249169
0.4337671004337671,26.54164931080401,48.81113861593937,209.01784007887943,220.587447216022,172.39267522473017,189.5687561136893,184.631217152804,182.00834124338027
0.4671338004671338,26.58808033199381,48.45579672930211,209.0348811661855,219.50903870608445,172.26692195631665,189.5037641630421,184.80213537234863,182.0341384308692
0.5005005005005005,26.63184195203031,48.09174216507962,209.0585610840048,218.3618604408303,172.1340388663646,189.4298238996701,184.97734724212023,182.0669472392776
0.5338672005338673,26.6721370942736,47.72730357651967,209.0857929788608,217.17132708465087,171.9953868716773,189.3493303998645,185.15474738319645,182.10615706292484
0.5672339005672339,26.708168682084,47.37080961687037,209.11348999727863,215.9628533019393,171.85232688905936,189.2646787399182,185.3322304166563,182.1511572961315
0.6006006006006006,26.744951754103447,47.14709680644568,209.1139251313905,215.1550694695673,171.70650786390738,189.1950992703019,185.4776149001002,182.152919242462
0.6339673006339673,26.764142656792767,46.95848085276363,209.10480656409547,214.43780811243795,171.5630642288369,189.12907636374592,185.62427080295564,182.1905217211776
0.6673340006673341,26.775360262115083,46.81294924494972,209.0611207085319,213.80315985689623,171.39452678732928,189.0690407611027,185.81121853692056,182.2533870830944
0.7007007007007008,26.79134487395456,46.71058136507289,209.0231976330409,213.2447607924464,171.22805334618846,189.0152951892169,185.98507272104777,182.33394040353696
0.7340674007340674,26.788683492755176,46.66141124697773,208.94209208895063,212.7250918923172,171.0754534493173,188.96873615721543,186.1247830031218,182.436842867452
0.7674341007674341,26.76822784318442,46.65694420942895,208.83792638776407,212.2403339472636,170.9347065865603,188.9351257869116,186.2464979495313,182.54270221425884
0.8008008008008008,26.72874061584882,46.67138517813749,208.71769463208216,211.83457371081988,170.81372233541896,188.91318022315585,186.3387226781106,182.64770614383875
0.8341675008341676,26.67571101351627,46.67616988216865,208.57533512407363,211.46836716251863,170.70931367717898,188.8962910848697,186.4096450220437,182.75114865921472
0.8675342008675342,26.606842422033463,46.79609911770092,208.40302155346515,211.4307724843759,170.6193338536828,188.90536233811,186.44750404453188,182.8228178740889
0.9009009009009008,26.537659209257843,46.9570905440314,208.23211897203555,211.13674274826943,170.54880130480947,188.945693788849,186.4568030639956,182.86427760278772
0.9342676009342676,26.463527514695755,47.1204707536071,208.0565095596636,210.94776783386337,170.49698858057533,188.9980122544896,186.4316232700491,182.89186977836857
0.9676343009676344,26.38676820137584,47.31719386934669,207.88187967104875,210.81830777239875,170.46438118482715,189.06061970243408,186.3802477693181,182.9127925480093
1.001001001001001,26.302546450963728,47.53143386136907,207.72315305220567,210.7638588950725,170.45516942796505,189.1320708434087,186.3050093436157,182.9323788856396
1.0343677010343677,26.21364657393069,47.74932781096879,207.57967044572604,210.82711021720417,170.47060616572008,189.21130149698067,186.20420726734324,182.948776005528
1.0677344010677343,26.119994934264128,47.9822718051559,207.4542888376314,211.00117571063925,170.512808309232,189.3010902950743,186.0738372000361,182.95819068801865
1.1011011011011012,26.02076821010752,48.24461655909754,207.34528895960003,211.29614947072736,170.57329990208896,189.39328748939133,185.92414842872256,182.9644577805559
1.1344678011344678,25.912329291455045,48.52730682899757,207.2508647932746,211.7435686287148,170.65384472705557,189.49258108742995,185.7430082353916,182.9679082464818
1.1678345011678346,25.796368181980625,48.83436352251425,207.17113376030144,212.2432902031281,170.75188777495418,189.5885166234645,185.56166198336408,182.97691146503533
1.2012012012012012,25.67655855655917,49.15342262273001,207.10964783568988,212.8533577144593,170.87169707357717,189.6850577476533,185.3656386842156,182.9855070420206
1.234567901234568,25.531430172781988,49.48857943601823,207.0586874280296,213.5540011604395,170.9973955508752,189.78190753675992,185.17256765136847,182.97934390591487
1.267934601267935,25.352385753759087,49.889339073120674,207.0725602614703,214.3430702214949,171.1346364615754,189.92688939170856,184.97832846102733,182.9336389503227
1.3013013013013013,25.16411433757051,50.29859374914556,207.0402578759873,215.2740908293029,171.27659205376585,190.07360351126675,184.80230318350087,182.88008702993088
1.334668001334668,24.9887883894208,50.71864984921447,207.0106066669143,216.37455734865583,171.4203894300915,190.2079267711189,184.6411122405783,182.831035023506
1.3680347013680347,24.83509979437393,51.164539208872846,206.98657037231425,217.50988731829776,171.5544607904668,190.3296832831079,184.49893147405,182.79014528500227
1.4014014014014016,24.71558915474226,51.4776266461981,206.9889590387632,218.54048465939084,171.66565341302692,190.4271743030529,184.38546411583764,182.7621375858552
1.4347681014347682,24.63072423143145,51.810729125027954,207.0170443392941,219.24937968669173,171.76664087228548,190.493405254249,184.2880992942532,182.73964877217824
1.4681348014681348,24.573947004278025,51.55464325540427,207.08648242428328,214.8802822891169,171.8607249009261,190.51933088155656,184.21547441773944,182.7398748880736
1.5015015015015016,24.54594434734838,51.27372866016693,207.184136203049,215.2071347133398,171.9438232535811,190.5217282218398,184.16740678600604,182.7476428811618
1.5348682015348682,24.55527678268867,51.16497510069559,207.3207681578639,215.1320279876631,172.0207581521873,190.50148141526003,184.145106192966,182.76338209930984
1.5682349015682349,24.58811504358896,51.146850304669904,207.4831501259656,215.07545893922693,172.07819885913753,190.47223998288817,184.1569443192625,182.78662274858763
1.6016016016016017,24.643150581259373,51.15478377566501,207.6696353500644,214.9718362625269,172.11424421632665,190.42399655137248,184.20585142088188,182.8143488315736
1.6349683016349683,24.700256947850217,51.18923437611612,207.82192611481344,214.85931774102343,172.1314052665527,190.3756653915636,184.28752277731124,182.83635957668844
1.6683350016683351,24.751164925847647,51.22865371754611,207.91168444733825,214.76649052581416,172.13933624676758,190.3282656002045,184.3732805872407,182.87344435625351
1.7017017017017018,24.807005008970016,51.25773461439966,207.96799751171667,214.6653674142765,172.1407346037111,190.28601184020323,184.4657264541913,182.9175148909518
1.7350684017350684,24.866347909990377,51.28054048414012,207.99160343384187,214.58312446194623,172.13300674894916,190.2484780052436,184.57336248779453,182.97165507609648
1.7684351017684352,24.92469597940238,51.293505744794906,207.96940672777853,214.52391197848627,172.1154751320531,190.21305506510188,184.6849770783891,183.0343156144368
1.8018018018018016,24.99118759128513,51.297672310948286,207.92257146804224,214.47934611730489,172.08247906251023,190.1785874236356,184.80845058477405,183.0983813841939
1.8351685018351689,25.097183535073945,51.276212689604606,207.8571735404672,214.4457806193636,172.07566677944288,190.13682965511023,184.88822292565985,183.17245054180427
1.8685352018685355,25.19993844179503,51.25564272897726,207.7769561745168,214.4118188181601,172.0671400874486,190.09641096537587,184.96758577222928,183.24634007289507
1.901901901901902,25.29634169393919,51.23783590492877,207.6828067904441,214.3759735050129,172.05732439396448,190.05827709224545,185.04575276340623,183.31877426769887
1.9352686019352687,25.38328267399743,51.22466569332211,207.57561280850345,214.33675747124235,172.04664510642905,190.0233737735335,185.1219375381162,183.3884774164497
1.968635301968636,25.45765076446076,51.21800557002027,207.45626164894924,214.2926835081685,172.03552763228078,189.9926467470546,185.19535373528456,183.45417380938147
2.002002002002002,25.516335347820178,51.21972901088621,207.325640732036,214.2422644071119,172.02439737895816,189.96704175062325,185.26521499383685,183.51458773672823
2.035368702035369,25.5562258065667,51.23170949178293,207.18463747801803,214.18401295939256,172.0136797538997,189.947504522054,185.3307349526984,183.56844348872409
2.0687354020687354,25.574211523191327,51.25582048857339,207.03413930714987,214.11644195633087,172.0038001645439,189.93498079916137,185.3911272507947,183.61446535560287
2.1021021021021022,25.56718188018507,51.29393547712058,206.8750336396859,214.03806418924705,171.9951840183292,189.9304163197599,185.44560552705124,183.65137762759863
2.135468802135469,25.532026260038936,51.34792793328747,206.70820789588052,213.9473924494614,171.9882567226942,189.9347568216641,185.4933834203934,183.67790459494543
2.1688355021688355,25.46563404524393,51.41967133293704,206.5345494959884,213.84293952829407,171.98344368507728,189.94894804268864,185.5336745697467,183.69277054787727
2.2022022022022023,25.36489461829106,51.51103915193228,206.3549458602636,213.7232182170656,171.98117031291702,189.97393572064792,185.5656926140365,183.69469977662808
2.235568902235569,25.22669736167133,51.62390486613615,206.17028440896075,213.586741307096,171.98186201365186,190.0106655933565,185.58865119218825,183.6824165714319
2.2689356022689355,25.04793165787576,51.76014195141163,205.98145256233423,213.4320215897056,171.98594419472033,190.06008339862896,185.60176394312745,183.6546452225227
2.3023023023023024,24.825486889395343,51.92162388362172,205.78933774063856,213.25757185621467,171.9938422635609,190.1231348742798,185.60424450577943,183.61011002013453
2.335669002335669,24.556252438721096,52.11022413862938,205.5948273641281,213.0619048979435,172.00598162761207,190.2007657581236,185.59530651906985,183.54753525450133
2.369035702369036,24.23711768834401,52.327816192297576,205.3988088530573,212.8435335062123,172.02278769431237,190.2939217879748,185.574163621924,183.4656452158572
