Time,Left Shoulder Angle,Right Shoulder Angle,Left Elbow Angle,Right Elbow Angle,Left Hip Angle,Right Hip Angle,Left Knee Angle,Right Knee Angle
0.0,27.82281963566277,13.313979318322268,191.8767904065354,161.45730677034237,131.6108280745309,128.46140122423546,198.43134058961883,196.889519956574
0.0333667000333667,33.20845933193687,21.356616963732225,178.67965437634575,160.04778580449988,132.0127729723841,127.92642629614572,198.1556794860489,196.8813881853159
0.0667334000667334,37.01193131316592,27.858529518314214,167.49726409274302,158.99857847666615,132.34627187551084,127.49284442763414,197.9329942109564,196.8909009793228
0.1001001001001001,39.37835439015183,32.93460546639025,158.2062397565782,158.26912529040823,132.61344423519282,127.15627841951806,197.76298073529964,196.916679493926
0.1334668001334668,40.4528473736965,36.69973329228236,150.68320156870226,157.8188667492932,132.81640950271188,126.91235107261484,197.64533503003705,196.9573448844568
0.1668335001668335,40.380529074601846,39.26880148031256,144.8047697299661,157.60724335688812,132.95728712934977,126.7566851877418,197.57975306612704,197.0115183062465
0.2002002002002002,39.306518303669776,40.75669851480287,140.44756444122072,157.59369561676004,133.03819656638828,126.68490356571634,197.5659308145281,197.0778209146263
0.2335669002335669,37.3759338717022,41.27831288007531,137.4882059033171,157.73766403247606,133.0612572651092,126.69262900735578,197.6035642461985,197.1548738649276
0.2669336002669336,34.733894589501034,40.94853306045191,135.8033143171061,157.9985891076032,133.02858867679424,126.77548431347748,197.6923493320967,197.2412983124815
0.3003003003003003,31.52551926786817,39.882247540254674,135.2695098834388,158.33591134570858,132.9423102527253,126.92909228489876,197.8319820431812,197.33571541261944
0.333667000333667,27.895926717605512,38.19434480380564,135.763412803166,158.70907125035927,132.80454144418405,127.14907572243705,198.02215835041028,197.43674632067265
0.3670337003670337,23.990235749515005,35.999713335426804,137.1616432771388,159.0775093251223,132.61740170245227,127.4310574269096,198.26257422474245,197.5430121919724
0.4004004004004004,19.953565174398506,33.41324161944022,139.34082150620807,159.40066607356474,132.38301047881183,127.77066019913384,198.55292563713607,197.6531341818499
0.4337671004337671,15.931033803057968,30.549818140167893,142.1775676912248,159.63798199925364,132.1034872245444,128.16350683992707,198.89290855854955,197.76573344563656
0.4671338004671338,12.067760446295289,27.524331381931823,145.54850203303994,159.74889760575613,131.78095139093185,128.60522015010667,199.28221895994133,197.8794311386636
0.5005005005005005,8.508863914912368,24.45166982905404,149.3302447325044,159.69285339663924,131.4175224292559,129.09142293048998,199.7205528122698,197.9928484162623
0.5338672005338673,5.399463019711096,21.44672196585661,153.3994159904692,159.42928987547003,131.01531979079834,129.61773798189435,200.20760608649337,198.1046064337639
0.5672339005672339,2.884676571493168,18.62437627666144,157.6326360077867,158.917647545817,130.576462926842,130.1797881051382,200.743074753572,198.21332634650136
0.6006006006006006,3.75655553402348,11.32806295335174,162.68369595908504,155.98550268500767,129.97628952371883,130.78547365648578,201.37466805936592,198.2937110471852
0.6339673006339673,3.788751165146557,15.20737612910228,164.57411945571712,154.4512789088211,129.35057218905283,131.3910271743483,202.0326003989961,198.37538855500583
0.6673340006673341,6.12493558163935,19.17475177072352,165.96720924460712,152.7353888863387,128.68547382177923,132.00525278063725,202.7629232197584,198.4672950376106
0.7007007007007008,10.569771360568478,22.955781213087555,166.99977046549597,150.3355638721594,128.02549792103608,132.63436979294343,203.53355543769644,198.54453770401184
0.7340674007340674,16.73440416573129,26.745082408925683,167.98274842607327,147.2830106366259,127.41619188188808,133.2932789177676,204.3696661993048,198.60677416178808
0.7674341007674341,24.517406893670906,30.62716093567149,168.7611450378805,143.8989614311215,126.82186737676965,133.9560355579158,205.26086995673973,198.65424598222785
0.8008008008008008,33.858889422206886,34.54012472831739,169.56479679763464,140.12571391507143,126.30861486662958,134.66851282618563,206.1955705814434,198.65668760519543
0.8341675008341676,44.49761978331791,38.59882083978636,170.34549235468876,136.10475745346804,125.85610495155665,135.45276753667275,207.1517982272537,198.5624261995279
0.8675342008675342,55.8250271616368,42.9227687205194,170.97161205223713,130.96730283130566,125.40889877999903,136.62784150462548,208.0273645790026,198.30903893071283
0.9009009009009008,77.44343162119938,47.060667897297805,171.4691299274461,127.51015811123531,125.09297870814244,137.59634942595238,208.89791786117533,197.97943985119767
0.9342676009342676,98.9351458231248,52.3954803173231,170.89467062234837,122.5415835437145,124.90913420605858,138.57756670112278,209.76949928443915,197.3412464475905
0.9676343009676344,117.56076773072404,57.15327794849222,171.7123345690256,116.0027948113754,124.4469316015427,139.44547774141597,210.62206008693727,196.6896759212801
1.001001001001001,133.9064659824321,60.71973350703813,171.74052522824115,108.81898552514582,123.88975604188188,139.9823722452277,211.85943597453823,196.4317032840825
1.0343677010343677,148.88064614258036,63.42768188417256,170.77962921128437,101.7000771781882,123.06084079742512,140.0472497923783,213.43477254516648,196.9030447614272
1.0677344010677343,161.67545217999083,65.32031134783676,170.0933736781122,94.9647236911872,122.17543361285033,140.02646362326774,214.9912726713566,197.64469300904932
1.1011011011011012,172.19690019339137,66.60682374174378,170.4397334823696,88.27392934591684,121.4424632500455,139.7555234483718,216.2915949015939,198.8452751665885
1.1344678011344678,180.26963999398907,67.72925278193291,170.9657195452148,88.75875294769496,120.91135284073168,139.3687201357896,217.32998404341595,200.1913054583008
1.1678345011678346,186.0009378957282,69.08035987603527,171.36604155052447,88.58972520090903,120.58481596371388,138.72330682437308,218.01060051160195,201.5553972709856
1.2012012012012012,189.5515485511296,70.45433708277201,170.31857201959275,88.16259906313319,120.44813216169592,138.0042748257837,218.3475130273067,202.777814012408
1.234567901234568,191.5193800941395,71.14948755906755,169.42735024034317,86.8040470434751,120.59324073202762,137.1622015600667,218.32067098934755,203.8824895127777
1.267934601267935,191.5420324740953,59.68034635086312,167.9454131631281,82.69301324095727,120.94866692856334,136.22380221604746,217.95790710864543,204.9400811490343
1.3013013013013013,180.0969052224594,51.93348061717151,162.431980951638,78.21272889552253,121.52495427147848,135.14959289784954,217.26053633204123,205.9400522484264
1.334668001334668,170.51631259167917,46.28679249703176,155.58832742931727,74.91614931085631,122.38801359583226,134.18434808059348,216.21041684532585,206.65396285101988
1.3680347013680347,161.82380008802045,43.55253784733871,148.56913022678663,71.72094807047307,123.35839498056674,133.31643608171035,215.032597592739,207.16516616990344
1.4014014014014016,153.81232035469108,42.46782867074908,142.0603254383762,69.78427094689472,124.47021198885332,132.5233758785602,213.70527301514977,207.4519762536576
1.4347681014347682,146.2604720694117,42.723986163075146,136.16561299120954,69.25924259960468,125.680501004009,131.78223194518114,212.1823661673972,207.5173855614583
1.4681348014681348,138.88020895046995,44.21563640368308,130.6061194726765,70.16200383974551,127.03657036600912,131.09426073673183,210.4518679309733,207.3542015043357
1.5015015015015016,131.4510815698304,46.57389875584236,125.7719462948652,72.07482064763859,128.48264045162193,130.52283614435714,208.61982495157,207.04371060584643
1.5348682015348682,123.37857274324466,49.6480321937098,123.01974992054848,74.96974744336335,129.8611926355134,130.1330344050579,206.6155895319364,206.5557060217096
1.5682349015682349,114.17901803829928,53.50578893605313,120.63608441858916,78.07950876905696,131.14087208524364,129.84110473992448,204.5317066976493,205.87805508667083
1.6016016016016017,104.55124388878411,57.93000461457873,117.69376185233868,81.81876419076798,132.23554679020214,129.69262494764024,202.57848170734923,205.0127460383933
1.6349683016349683,94.29664816135828,63.06945914466965,114.45924588088852,85.37820952035695,133.355024646839,129.71420895047362,200.52302276391327,203.9243468460357
1.6683350016683351,84.06113593037976,68.58146928192733,109.54763507186708,88.19474457100716,134.48009240705457,129.90664111822772,198.3641262077349,202.6086112083564
1.7017017017017018,86.71989685749082,87.25648401730487,105.26546728762476,93.47253502577206,135.5794170901424,130.30450199443698,196.0981863699459,201.08188726883887
1.7350684017350684,91.23562064249724,96.9998150439206,101.52430771984372,98.33808735955874,136.668968985178,130.8868814691112,193.83673501017412,199.3421243708169
1.7684351017684352,97.6782218917124,118.38400381293492,98.0801196548426,105.34601560841809,137.77721096447425,131.6694504641826,191.62733480721937,197.3980211901745
1.8018018018018016,106.15669024190905,132.20486626630682,95.04490219904756,110.54458250129824,138.8587529841792,132.61861108247717,189.531407870781,195.29448181667124
1.8351685018351689,124.47248576598209,151.2096669797457,93.19245940795749,115.69210602730976,140.01516790491738,134.1714091551002,187.47486638594864,192.40215423810395
1.8685352018685355,143.9003738766178,170.24150859761343,91.55604553311032,120.60330374402464,141.11751181021987,135.80924793283916,185.5366471168405,189.4880167657244
1.901901901901902,163.99659780891596,189.00197169221468,90.10207269655828,125.18404111788745,142.1555374217966,137.50373104801028,183.73942404055737,186.60262531963767
1.9352686019352687,184.31740079797672,207.19263683585487,88.79695302035469,129.34018361534368,143.1189974613586,139.22646213293086,182.1058711342018,183.79653581995032
1.968635301968636,204.4190260789013,224.51508460083943,87.60709862655281,132.97759670283887,143.99764465061693,140.94904481991827,180.65866237487631,181.12030418676892
2.002002002002002,223.8577168867905,240.6708955594737,86.49892163720601,136.00214584681856,144.78123171128263,142.64308274128982,179.42047173968336,178.62448634020024
2.035368702035369,242.1897164567445,255.3616502840632,85.43883417436761,138.3196965137282,145.4595113650667,144.2801795293628,178.41397320572543,176.3596382003507
2.0687354020687354,258.97126802386526,268.2889293469135,84.39324836009095,139.83611417001322,146.02223633368018,145.83193881645454,177.66184075010514,174.37631568732704
2.1021021021021022,273.7586148232528,279.15431332032983,83.32857631642929,140.4572642821193,146.45915933883413,147.26996423488234,177.18674834992487,172.72507472123584
2.135468802135469,286.10800009000803,287.6593827766177,82.21123016543596,140.08901231649182,146.7600331022396,148.56585941696355,177.0113699822872,171.45647122218372
2.1688355021688355,295.5756670592321,293.50571828808256,81.0076220291643,138.6372237395762,146.91461034560754,149.69122799501548,177.15837962429458,170.6210611102773
2.2022022022022023,301.71785896602546,296.39490042702965,79.6841640296676,136.00776401781818,146.91264379064907,150.61767360135542,177.65045125304954,170.26940030562318
2.235568902235569,304.0908190454894,296.02850976576485,78.2072682889992,132.10649861766308,146.74388615907517,151.3167998683007,178.5102588456546,170.45204472832796
2.2689356022689355,302.25079053272475,292.10812687659313,76.54334692921238,126.8392930055564,146.3980901725969,151.7602104281687,179.7604763792122,171.21955029849823
2.3023023023023024,295.75401666283136,284.3353323318201,74.65881207236052,120.1120126479438,145.8650085529253,151.91950891327662,181.4237778308249,172.6224729362407
2.335669002335669,284.15674067091106,272.4117067037513,72.5200758404969,111.83052301127056,145.1343940217714,151.76629895594183,183.5228371775952,174.71136856166194
2.369035702369036,267.0152057920641,256.0388305646919,70.09355035567482,101.90068956198246,144.1959993008462,151.2721841884817,186.0803283966256,177.53679309486853
