Time,Left Shoulder Angle,Right Shoulder Angle,Left Elbow Angle,Right Elbow Angle,Left Hip Angle,Right Hip Angle,Left Knee Angle,Right Knee Angle
0.0,28.0095649432591,36.66854154758133,163.9962081783897,153.78631570304884,130.22738257806225,130.21106813985045,208.0847833783241,212.4576379933773
0.0333667000333667,26.81428442700532,34.2938233558409,163.25024541806,151.48492654522963,131.5739860378878,131.23428190686033,207.50808338549928,212.7592271526881
0.0667334000667334,25.78866156209237,32.275698211620586,162.60477256218695,149.58628635675765,132.68749753946503,132.07698060249604,207.08421528055112,213.03757967504103
0.1001001001001001,24.922685973313705,30.59120704041261,162.05704809989476,148.06584808435244,133.58002210466822,132.75149269402783,206.80412306009129,213.2931685353612
0.1334668001334668,24.20634728546275,29.217390767709187,161.60433052030768,146.89906467473344,134.2636647553717,133.2701466487259,206.6587507207312,213.5264667085737
0.1668335001668335,23.629635123332964,28.13129031900254,161.24387831254992,146.06138907462017,134.75053051344975,133.6452709338605,206.6390422590825,213.737947169604
0.2002002002002002,23.182539111717777,27.30994661978489,160.97294996574573,145.5282742307321,135.05272440077673,133.88919401670185,206.7359416717567,213.92808289337697
0.2335669002335669,22.85504887541064,26.73040059554846,160.78880396901928,145.2751730897888,135.18235143922686,134.0142443645202,206.94039295536533,214.09734685481808
0.2669336002669336,22.637154039204987,26.369693171785464,160.68869881149485,145.2775385985097,135.1515166506745,134.03275044458584,207.24334010652,214.24621202885243
0.3003003003003003,22.518844227894267,26.20486527398813,160.66989298229663,145.51082370361434,134.9723250569939,133.95704072416893,207.63572712183225,214.37515139040528
0.333667000333667,22.49010906627192,26.21295782764867,160.72964497054886,145.95048135182216,134.65688168005937,133.79944367053972,208.1084979979136,214.48463791440184
0.3670337003670337,22.540938179131384,26.37101175825931,160.86521326537576,146.5719644898527,134.21729154174523,133.57228775096848,208.6525967313755,214.57514457576724
0.4004004004004004,22.66132119126611,26.656067991312263,161.07385635590154,147.35072606442546,133.6656596639258,133.28790143272545,209.25896731882963,214.64714434942675
0.4337671004337671,22.841247727469533,27.04516745229977,161.35283273125046,148.2622190222599,133.01409106847532,132.9586131830808,209.9185537568875,214.7011102103056
0.4671338004671338,23.0707074125351,27.515351066714025,161.6994008805467,149.28189631007555,132.27469077726812,132.59675146930488,210.62230004216067,214.7375151333289
0.5005005005005005,23.33968987125625,28.04365976004727,162.1108192929145,150.3852108745919,131.45956381217854,132.21464475866782,211.36115017126065,214.756832093422
0.5338672005338673,23.638184728426424,28.6071344577917,162.5843464574781,151.54761566252844,130.58081519508085,131.82462151843993,212.12604814079904,214.75953406551
0.5672339005672339,23.956181608839263,29.18281608543981,163.11724086336298,152.74456362060587,129.65054994785038,131.4390102158924,212.90793794738903,214.7460940245198
0.6006006006006006,24.22629387996178,29.484301287764875,163.55141650740413,153.65478266669848,128.79167102773107,131.16127072807427,213.47241113390203,214.7412277870813
0.6339673006339673,24.48266587078132,29.751779455236992,164.13997904660656,154.54053344063334,127.94020884158236,130.91444903157185,214.0242191590828,214.718851023904
0.6673340006673341,24.73080317316944,30.07100679354128,164.87839656516817,155.41144805180983,127.07399115655151,130.71104697058817,214.63909081971988,214.71508919834835
0.7007007007007008,24.961005872861843,30.40172519919286,165.7555763714559,156.52593798442174,126.17514253559912,130.5920572001707,215.31126477551632,214.693697351619
0.7340674007340674,25.19346434909436,30.6748888741264,166.69944470298498,157.5502248160891,125.24914255505134,130.5504323390005,216.02760801981856,214.6444251536823
0.7674341007674341,25.39138096552084,30.82804232652825,167.72118025249898,158.5191756560339,124.31677800962284,130.59208732533992,216.75505188384383,214.54512716722044
0.8008008008008008,25.601462239411106,30.68211607651732,168.815946112493,159.1709582338506,123.378064809549,130.76873898894104,217.4904750995294,214.4246571488497
0.8341675008341676,25.74771478353343,30.1285086108612,169.96594378050565,159.1975723090424,122.45524373181746,131.048913968585,218.18775274684435,214.2436382586091
0.8675342008675342,25.83089217137991,29.606169124372915,171.006990160567,158.95908199947058,121.6421161921612,131.3131964770753,218.7027420777862,214.0535891140872
0.9009009009009008,25.7429839947733,28.961755137440417,171.93321919543394,158.88413504016762,120.85838143666776,131.6563368406904,219.17828156258545,213.8686458977641
0.9342676009342676,25.616860521961907,28.0723884728334,172.77005106352595,158.5223848303568,120.14617676574868,132.07830518469336,219.5583950746951,213.6704532749798
0.9676343009676344,25.39885711750553,27.06032790520931,173.63154427045015,158.28528330872453,119.43455978295248,132.60838389105615,219.94760032599572,213.4305507644591
1.001001001001001,25.10752960988188,26.00657688676121,174.35522405551774,158.12802651485697,118.6947508527758,133.24720311100222,220.44270510084104,213.16581400280216
1.0343677010343677,24.67390845754748,24.689791670263748,175.1968120933866,157.87187498579954,117.96775747175256,133.9716297784409,221.0105976068185,212.85456831716712
1.0677344010677343,24.138638415443964,23.287524196796728,176.06868771768154,157.793768875007,117.24099736979228,134.70868790578612,221.74802128379017,212.6417251866352
1.1011011011011012,23.49419407135752,21.76346527426094,176.9838208381944,157.84290409334946,116.5265350002905,135.47068123615975,222.55722182530505,212.40545309928703
1.1344678011344678,22.59393765205113,19.922208271996823,177.85531101116527,158.33322028470442,115.80750412984604,136.23863094360905,223.38464893092305,212.1321999906223
1.1678345011678346,21.568752502402024,18.20635423309976,178.69764009381896,158.6094119358649,115.13279183479476,136.9862974774296,224.216663448016,211.83343524184977
1.2012012012012012,20.476287235873297,16.460760544909427,179.69719955922668,158.78203801510327,114.50390431471308,137.83092517947617,224.9749983559181,211.4770006211408
1.234567901234568,19.32465107735518,14.763754572367764,180.68986439481253,158.91006500486438,113.93622938740812,138.58890534514623,225.7227845604654,211.12714173458093
1.267934601267935,17.840750466868574,13.17379760016116,181.096643843318,159.0435983378714,113.50118128051729,139.23806430613138,226.4405532015681,210.8235716621812
1.3013013013013013,16.455886241432065,11.78201647261875,181.4663497298704,159.53387945292593,113.03777146029898,139.8914615941154,227.1518514421512,210.4712616910307
1.334668001334668,15.068731315335492,10.551786767572017,181.68962522794283,163.28659966519402,112.572977211566,140.55194391783377,227.8062574180726,210.0457508291519
1.3680347013680347,13.747170300373536,9.40598907665516,182.0495765986809,165.95029043128642,112.05247822757173,141.22605809807175,228.4985339671296,209.53337231004107
1.4014014014014016,12.308650466889915,8.088340928079198,182.70565500716043,163.12157485065825,111.49180747235718,141.8730986762653,229.1515216983617,208.9736822864321
1.4347681014347682,11.0128411443099,6.847423245459713,183.50160673460087,160.471817522765,110.99888250821218,142.5062888589245,229.7494820874995,208.3839447450929
1.4681348014681348,9.829677964101927,5.578644629708627,186.2245383853525,157.1731694711556,110.56969608053149,143.10681600649104,230.2800546086864,207.7814581098024
1.5015015015015016,8.899219476868335,4.568073049471439,188.473227826347,154.85084330893457,110.21500670659964,143.57238299565455,230.7837404669964,207.1903243072768
1.5348682015348682,8.192950679015983,3.926191727112096,190.4634092873501,159.9063540126677,109.94889455809454,143.9513296114601,231.25732214713904,206.63682303126487
1.5682349015682349,7.75191189944131,3.529541885271875,191.8712682974612,163.6641997444608,109.74752178817552,144.31456476589685,231.6326605928906,206.0804273238297
1.6016016016016017,7.410165550953609,2.867096422891712,192.4973478395332,166.50881736969157,109.62896967506438,144.68045659271573,231.91346582230852,205.52545846576285
1.6349683016349683,7.317458479024787,2.622554790143369,192.7387627854029,168.27176874394922,109.57831710039616,145.05705413700176,232.14582041078552,204.9507377319736
1.6683350016683351,7.435071073997792,2.5185033455983,192.6226080911139,169.13747395968053,109.62425440560688,145.44430690921,232.29677146085416,204.36552982162445
1.7017017017017018,7.761935941784168,2.5185033455983,192.3808550775388,169.52289415274095,109.74236018735114,145.8316743978529,232.46429658586248,203.77574740625687
1.7350684017350684,7.787673481816535,2.5185033455983,191.14926764087704,164.8817433767645,109.9333470222592,146.1669400923676,232.56924432296685,203.2041639260428
1.7684351017684352,-0.6990294359089596,2.5185033455983,189.4699498944848,160.17421967039576,110.1932589940833,146.51777186700957,232.66105495733905,202.62868878141057
1.8018018018018016,-0.6990294359089596,2.5185033455983,187.25667543263,155.5670644450506,110.51338728439534,146.83210895138805,232.73832348352084,202.0688837767804
1.8351685018351689,-0.6990294359089596,2.5185033455983,184.9721281230453,150.94204371294745,110.9058180851902,147.1101481284606,232.7398640504996,201.48694558996647
1.8685352018685355,-0.6990294359089596,2.5185033455983,182.63034800449137,145.60382707784572,111.3323679165416,147.45344327552243,232.6617993783461,200.92038055825924
1.901901901901902,-0.6990294359089596,2.5185033455983,180.47736117278927,140.2458954005635,111.85845804687388,147.75011608029507,232.4904738132736,200.3543534918113
1.9352686019352687,-0.6990294359089596,2.5185033455983,178.5362594346629,135.50941214623734,112.51781274379805,147.91769392776507,232.24867282927,199.811894660638
1.968635301968636,-0.6990294359089596,2.5185033455983,176.5266919116736,130.99997554086383,113.28744895144322,147.97820649961793,231.91224382722243,199.26569608428548
2.002002002002002,-0.6990294359089596,2.5185033455983,174.72928627734618,126.86212380789772,114.1342815910836,147.90460040417804,231.4998677099774,198.7678287591623
2.035368702035369,-0.6990294359089596,2.5185033455983,172.72958733173888,122.66057877377844,114.89056403257656,147.81083349429403,231.212813075522,198.32425841054788
2.0687354020687354,-0.6990294359089596,2.5185033455983,171.09508499596274,118.08100554728637,115.46381085166128,147.6880411505105,230.97293507418885,197.93675637065897
2.1021021021021022,-0.6990294359089596,2.5185033455983,169.5012524154226,113.9806113660537,115.98179130303863,147.56076521574985,230.92044285735,197.58516324543123
2.135468802135469,-0.6990294359089596,2.5185033455983,167.82478846559238,109.8853794549603,116.60051463384784,147.59018356930522,230.9032600107737,197.25338329876885
2.1688355021688355,-0.6990294359089596,2.5185033455983,166.2051439355638,106.3539710962641,117.30916292475942,147.58279397481678,230.92373649023847,196.9396724615071
2.2022022022022023,-0.6990294359089596,2.5185033455983,164.60215389621126,103.78986584394328,118.0652471556433,147.47763252687122,231.0017381519009,196.63968633597028
2.235568902235569,-0.6990294359089596,2.5185033455983,163.01153524293525,102.03141922444978,118.87347533470954,147.35033299494577,230.9521817130212,196.18279572334052
2.2689356022689355,-0.6990294359089596,2.5185033455983,161.241816784636,101.06915937571924,119.63132769367196,147.20594720646636,230.8829840102226,195.68582596045883
2.3023023023023024,-0.6990294359089596,2.5185033455983,159.55281607983423,100.33233230629106,120.3868759459337,147.03187440573296,230.80772617049783,195.1972094163146
2.335669002335669,-0.6990294359089596,2.5185033455983,158.09315442761832,100.4905624858933,121.13053318918492,146.81800027569906,230.71506567554133,194.60310087459808
2.369035702369036,-0.6990294359089596,2.5185033455983,156.64848642238186,101.6156653477903,121.85187067137652,146.58030076120036,230.6363810599619,194.0480021893854
2.4024024024024024,-0.6990294359089596,2.5185033455983,155.7188892127196,104.01380437105374,122.62811503533884,146.51279031089703,230.5060323194057,193.5025249064532
2.4357691024357693,-0.6990294359089596,2.5185033455983,155.89407456667453,107.02429033452827,123.33028558948524,146.48582641788633,230.35918773253707,192.9373086241767
2.469135802469136,-0.6990294359089596,2.5185033455983,155.605377596341,110.6939950629414,124.047500417586,146.23450202168996,230.2066921452796,192.3554083596551
2.5025025025025025,-0.6990294359089596,2.5185033455983,155.9663363766777,110.4921332731048,124.69766688003604,145.9318095705233,230.0472184221932,191.85928591383163
2.5358692025358693,-0.6990294359089596,2.529738388038215,157.3476527679729,111.85698157239264,125.21666437517707,145.65885758119177,229.940182803418,191.3982598820965
2.569235902569236,-0.6990294359089596,2.529738388038215,159.35382951332505,118.01059276258904,125.66864231626737,145.42191897874343,229.88507947740308,191.0367217737952
2.6026026026026026,-0.6990294359089596,2.529738388038215,158.5425021158107,122.81407390640696,125.9497782071692,145.2749024577107,229.85668651364225,190.6989774151932
2.6359693026359694,-0.6990294359089596,2.529738388038215,155.71972550197387,129.72380194756423,125.95908223202956,145.14570637918516,229.86717688813275,190.52125492205096
2.669336002669336,-0.6990294359089596,2.529738388038215,152.42983388809523,136.96533486090152,126.04346798456136,144.9595583013866,229.9164052977833,190.5812459334003
2.702702702702702,-0.6990294359089596,2.84959207124532,149.79560576070847,136.58368171475666,126.0105326461869,144.81692766710046,229.989721485112,190.7669157330137
2.736069402736069,-0.6990294359089596,2.84959207124532,150.45255613424436,132.4378204471545,125.94177744116062,145.04009788511826,230.3627064373953,190.86421465432431
2.7694361027694363,-0.6990294359089596,2.84959207124532,151.4544956129006,128.75346938584073,125.6001168456932,145.3172184753466,230.8261350402779,191.07712545263013
2.802802802802803,-0.6990294359089596,2.84959207124532,152.97335685842268,125.5575901381829,125.15615642319035,145.6174688002771,231.1140435680045,191.3244227002168
2.836169502836169,-0.6990294359089596,2.84959207124532,154.33841133737872,122.04081246142374,124.77437998267746,145.61498208524492,231.18035156103608,191.91908074382133
2.8695362028695364,-0.6990294359089596,2.84959207124532,156.12111575953568,117.0014652346362,124.2814092310554,145.35076979378704,231.27258546934743,192.6788360406493
2.902902902902903,-0.6990294359089596,2.84959207124532,158.3917381229386,115.63799057278447,123.85306547861671,145.03219964289957,231.17646613886933,193.63771819644865
2.9362696029362696,-0.6990294359089596,2.84959207124532,161.07209775769036,114.2141550785086,123.30271666545192,144.73895403520152,230.93425704455169,194.92173976222423
2.9696363029696364,-0.6990294359089596,2.84959207124532,164.14610608848065,112.75836224562508,122.87885932590343,144.41840214739105,230.38395213064163,196.3463856226041
3.003003003003004,-5.713288936504229,2.84959207124532,167.74849418834972,111.22847840654096,122.49242513380754,144.10534724849427,229.70732328672267,197.95005110905743
3.0363697030363697,-7.729668665373253,2.84959207124532,171.3898369765471,110.34979310940872,122.31909058942615,143.70895581621363,228.79458408942887,199.5789074690929
3.0697364030697365,-6.888053924642844,2.84959207124532,174.83664516062603,109.87474938954249,122.22054903044618,143.13524923984014,227.8374143935449,201.2892882243037
3.103103103103104,-3.63962534337812,2.84959207124532,178.02438373985277,109.06450037811788,122.254343622961,142.55731309942092,226.63332855068552,202.9602174594069
3.1364698031364697,1.9220102605848075,2.84959207124532,181.3165414668828,109.02987165264898,122.47201766120509,141.9599388925477,225.2336538175909,204.52264258156504
3.169836503169837,1.9220102605848075,2.84959207124532,184.2249301508077,109.05495614944512,122.87931470818276,141.41389867199214,223.51640988571216,205.9387932470165
3.2032032032032034,1.9220102605848075,2.84959207124532,187.8085826354632,109.06855308347085,123.6073508706865,141.1022893191854,221.326286397548,207.4019735102758
3.2365699032365702,1.9220102605848075,3.581662784419704,190.31665898787767,109.45296278940069,124.62296313564042,140.89459993454125,219.0436749385154,208.57955538259213
3.2699366032699366,1.9220102605848075,3.581662784419704,192.0623155421144,110.56229554388868,125.75507000068716,140.76710664733025,216.75955840695391,209.436824427494
3.3033033033033035,1.9220102605848075,3.581662784419704,193.2907661051192,112.480277959352,126.93477083966224,140.55260899313703,214.5097797903673,209.98803012840656
3.3366700033366703,1.9220102605848075,3.581662784419704,193.58974014116976,114.90805030855176,127.9762977272686,140.41468363676114,212.48306923448112,210.01278379795423
3.3700367033700367,1.9220102605848075,3.581662784419704,193.27807007653723,117.40712582088617,129.03850864354644,140.43393533864173,210.41505297491315,209.74005114780664
3.4034034034034035,1.9220102605848075,3.581662784419704,193.8647061948595,121.40715224530555,130.2381660948735,140.73686141815966,207.84462076996263,209.25608687460465
3.4367701034367704,9.612712054269029,3.581662784419704,194.4665838739581,125.44853027605988,131.78290088632392,141.1520468018518,205.1925177812039,208.61051010451104
3.4701368034701368,19.57635626833496,3.581662784419704,193.774119101894,128.79365603220833,133.0063808985379,141.48610646899792,202.98970525302207,207.72462636997028
3.503503503503504,31.3483283899446,3.581662784419704,192.37082375808325,131.6684214003214,134.30906318881463,141.91409879339324,200.9187041887876,206.74054186170184
3.5368702035368704,44.70041508923805,3.581662784419704,190.73711243154744,135.09470335740548,136.2429939354669,142.4079472553255,198.56815440569503,205.79191752408525
3.5702369035702373,59.14488680899768,3.581662784419704,187.8036389577474,137.22467801851042,138.09184828839724,142.68916858255432,196.46496655256672,204.73943732797105
3.603603603603604,74.52863837543194,3.581662784419704,182.789837495803,138.25754761927132,139.98900011054536,142.70609561075992,194.6243413637689,203.54649527482823
3.6369703036369705,90.55397073482877,3.581662784419704,177.81008886449197,138.19429897975746,141.5442546037496,143.02627828442067,193.1442763143698,202.2337651874004
3.670337003670337,106.92839899068498,3.581662784419704,173.97824437840143,138.15376167705014,142.79499782238636,143.5884549704013,192.29499692632385,200.72965874266907
3.703703703703704,123.51227469090868,3.581662784419704,167.80834361527482,134.00666018844572,143.76607437838953,144.12294472985238,191.73478043153608,199.22846637081528
3.737070403737071,140.2132928635878,3.581662784419704,161.02880271138915,125.4952272528651,144.20350857432044,144.9152895995749,191.7382154043393,197.6810285815255
3.770437103770437,156.97901437536106,3.581662784419704,157.78192646574757,119.62471557296377,144.49048134615597,145.6058523191026,191.9206443436665,196.29952934403545
3.803803803803804,173.49382871716358,4.601341475313045,151.67824727719727,111.51680518437152,144.84309830685677,146.26937428129628,192.2209200830985,194.91851407384613
3.8371705038371706,189.6131192130884,5.893105133411417,147.57460363087014,103.04605218527544,144.8909321858739,146.97321598810402,192.71501210076,193.541780157289
3.8705372038705375,204.90363334883952,6.885622434538405,147.74842790976743,93.21068386560708,144.71080402625697,147.523242063369,193.53812883275944,192.3406941929973
3.903903903903904,219.63583604136565,-0.210858717144871,145.43810174129888,86.83225094454819,144.23886803167684,147.6008230068961,194.24040419365883,191.517081747576
3.937270603937271,242.71144896130207,4.276624925341074,136.42459933497278,78.84931628355189,143.76767195710238,147.41313330078742,194.80733404107275,190.9069756259712
