Time,Left Shoulder Angle,Right Shoulder Angle,Left Elbow Angle,Right Elbow Angle,Left Hip Angle,Right Hip Angle,Left Knee Angle,Right Knee Angle
0.0,7.256408139843321,1.4358130895732075,176.98375977208508,169.64366799970574,170.11792601863166,212.2723376800824,182.4648632086053,174.70429461038557
0.0333667000333667,7.083490965890963,1.5558700414179978,177.32897666908426,170.24316857870505,170.3005851773402,212.26158671968085,182.3479068939293,175.42453247317093
0.0667334000667334,6.924085288363841,1.6505422633340234,177.65288043602953,170.78494004089276,170.44648349058843,212.2360989608404,182.23690006085644,176.06632822660086
0.1001001001001001,6.777616750924877,1.7213255130723066,177.95587474899943,171.27216361484733,170.55761454717518,212.1967595764381,182.1319277491185,176.63348088718
0.1334668001334668,6.64351099723699,1.769715548383869,178.23836328407262,171.70802052914738,170.63597193589914,212.14445373935132,182.0330749984469,177.12978947141312
0.1668335001668335,6.521193670963099,1.7972081270197315,178.50074971732766,172.0956920123714,170.68354924555905,212.08006662245745,181.94042684857345,177.55905299580488
0.2002002002002002,6.410090415766125,1.805299006730917,178.74343772484312,172.43835929309793,170.70234006495372,212.0044833986335,181.85406833922949,177.9250704768599
0.2335669002335669,6.309626875308987,1.795483945268446,178.96683098269764,172.73920359990555,170.69433798288185,211.9185892407569,181.7740845101468,178.23164093108295
0.2669336002669336,6.219228693254605,1.769258700383341,179.17133316696982,173.00140616137278,170.6615365881422,211.82326932170483,181.7005604010568,178.48256337497867
0.3003003003003003,6.138321513265899,1.7281190298266238,179.35734795373818,173.2281482060782,170.60592946953352,211.71940881435452,181.6335810516912,178.68163682505175
0.333667000333667,6.066330979005788,1.6735606913493153,179.5252790190814,173.42261096260032,170.52951021585457,211.60789289158345,181.57323150178155,178.83266029780688
0.3670337003670337,6.002682734137193,1.607079442702438,179.67553003907804,173.58797565951767,170.4342724159041,211.4896067262686,181.51959679105943,178.93943280974875
0.4004004004004004,5.946802422323033,1.530171041637013,179.80850468980668,173.72742352540882,170.3222096584809,211.3654354912873,181.47276195925645,179.00575337738204
0.4337671004337671,5.898115687226229,1.4443312459040616,179.92460664734594,173.8441357888523,170.1953155323836,211.23626435951687,181.43281204610412,179.03542101721143
0.4671338004671338,5.856048172509698,1.3510558132546069,180.02423958777442,173.94129367842666,170.05558362641108,211.1029785038347,181.3998320913342,179.03223474574162
0.5005005005005005,5.820025521836362,1.2518405014396683,180.1078071871707,174.02207842271042,169.905007529362,210.9664630971178,181.3739071346781,178.9999935794773
0.5338672005338673,5.789473378869141,1.1481810682102698,180.1757131216133,174.08967125028218,169.74558083003518,210.82760331224355,181.35512221586748,178.94249653492312
0.5672339005672339,5.763817387271004,1.1481810682102698,180.22836106718245,174.14725338972193,169.57929711723068,210.6872843220909,181.34356237463533,178.86354262858524
0.6006006006006006,5.741059445808393,1.1481810682102698,180.23613840457188,174.18515125714964,169.4053195987323,210.55753511513493,181.3436050713757,178.7881551517203
0.6339673006339673,5.721154766512399,1.1481810682102698,180.2289181457413,174.24019411945562,169.22102912832526,210.42190137755395,181.3609334560921,178.69913636112636
0.6673340006673341,5.701309464763616,1.1481810682102698,180.20453394372933,174.311000893451,169.03528150366594,210.2819747183132,181.390155007008,178.60992929710375
0.7007007007007008,5.723336211966571,1.1481810682102698,180.161610358216,174.30832628456128,168.9163048398084,210.17063712586832,181.391149925866,178.51166308712217
0.7340674007340674,5.759079457266494,1.1481810682102698,180.114918263751,174.3524482306459,168.82398836594763,210.06999597376583,181.3895778592248,178.41515385484118
0.7674341007674341,5.78193358656719,1.1481810682102698,180.07652991302078,174.44648859558149,168.7273216709579,209.96449794475032,181.40244334125413,178.32669629537406
0.8008008008008008,5.791058813387023,1.1481810682102698,180.04308994370027,174.6012771157829,168.62040722120656,209.8594730835196,181.43370663809227,178.24018902991875
0.8341675008341676,5.785531172117438,1.1481810682102698,179.96014403933623,174.7922054351293,168.49240391483454,209.75416152333108,181.4751764877797,178.17455760517626
0.8675342008675342,5.767247193517086,1.1481810682102698,179.8583862319689,175.04221337948778,168.35172908586014,209.6490706122892,181.52924794088383,178.1149467217918
0.9009009009009008,5.734140017102301,1.1481810682102698,179.77139830664808,175.32513937061628,168.20706298507616,209.54074853360143,181.5977456329266,178.05474971220832
0.9342676009342676,5.684272130682773,1.1481810682102698,179.72347768253573,175.63124307967493,168.06100034301687,209.42639063571045,181.68254963670208,177.99838122740078
0.9676343009676344,5.629839278152746,1.1481810682102698,179.69311840910063,175.96809791087864,167.92829383054945,209.3270027771884,181.78967130864729,177.9198569610598
1.001001001001001,5.560859086286137,1.1481810682102698,179.6976313849323,176.31173405532954,167.7961637618742,209.226216798867,181.9157314975017,177.83579796961814
1.0343677010343677,5.476420204343588,1.1481810682102698,179.75339796292,176.65430544401957,167.66350618329184,209.1193125282946,182.0517406332528,177.75789175441716
1.0677344010677343,5.378833398889504,1.1481810682102698,179.8555990565007,176.9838237967552,167.52773243675887,208.99219650520425,182.2033921779131,177.69903772961212
1.1011011011011012,5.240633934514622,1.1481810682102698,180.0077044440302,177.161993827653,167.3888638339713,208.80375167253013,182.37402642201303,177.72648352499485
1.1344678011344678,5.089239423158326,1.1481810682102698,180.2290021154081,177.31826406130438,167.2500611152838,208.5846413531528,182.5581150907252,177.79103954661713
1.1678345011678346,4.942601551305547,1.1481810682102698,180.5084280709861,177.47866434188984,167.11842352221075,208.35386189391912,182.7481615699332,177.87260682032203
1.2012012012012012,4.797676209454533,1.1481810682102698,180.8576327028708,177.62202831767016,166.9785775303332,208.1110655464647,182.9469123289153,177.9615309575444
1.234567901234568,4.629193470377343,1.1481810682102698,181.23134867597125,177.72724121856183,166.83702434515595,207.7616368694007,183.1307697218772,178.10013788864478
1.267934601267935,4.459827725719688,1.1481810682102698,181.660269006877,177.82620253693975,166.69487453097383,207.41493712411065,183.3054762922818,178.22219116444904
1.3013013013013013,4.2892337517008166,1.1481810682102698,182.1450457445793,177.93230924487852,166.53241316468967,207.091937440093,183.4860718735659,178.28131172086313
1.334668001334668,4.142497163937263,1.1481810682102698,182.6619042967569,178.05119485193302,166.37093125477537,206.8332853746161,183.6605456342677,178.26486767906326
1.3680347013680347,3.9741306100080815,1.1481810682102698,183.2459180472644,178.1473332455007,166.2236568570113,206.6527948026756,183.8194066551236,178.1732082822657
1.4014014014014016,3.832221939589186,1.1481810682102698,183.84914189426493,178.21750037978885,166.09109993043856,206.5443261718651,183.9663962182626,178.00749462484504
1.4347681014347682,3.737213176018901,1.1481810682102698,184.4323199465944,178.24927271964003,165.9694621992366,206.5008146184866,184.102911371244,177.79127765141655
1.4681348014681348,3.712344212103412,1.1481810682102698,184.9725287166439,178.29663872949524,165.8697905781456,206.5158954123241,184.2273829145936,177.5246521717241
1.5015015015015016,3.712344212103412,1.1481810682102698,185.3018211758312,178.2797844163272,165.76994467661595,206.6108528357359,184.3597010211859,177.17629926480328
1.5348682015348682,3.712344212103412,1.1481810682102698,185.5717094842075,178.25162280964713,165.68390760345451,206.7703378585943,184.4840356691413,176.7930822874953
1.5682349015682349,3.712344212103412,1.1481810682102698,185.8454392939156,178.23141973395013,165.62236357811452,206.98290892418623,184.59187508098665,176.38128462844116
1.6016016016016017,3.712344212103412,1.1481810682102698,186.13634433928172,178.18008182564992,165.55163543817494,207.20752863043,184.7059485953632,175.99077638143925
1.6349683016349683,3.712344212103412,1.1481810682102698,186.30752449925305,178.08403709942738,165.44338999294462,207.41143010644583,184.828108723838,175.63255587287043
1.6683350016683351,3.712344212103412,1.1481810682102698,186.4827361184913,177.9589147966948,165.34639908566822,207.631659096065,184.93158227099732,175.30441079591316
1.7017017017017018,3.712344212103412,1.1481810682102698,186.6450215035624,177.8060556619742,165.28709430381622,207.8834416892791,185.01164358039944,175.00347737476258
1.7350684017350684,3.712344212103412,1.1481810682102698,186.81436565138983,177.74384655146963,165.2959870216339,208.16549323100207,185.05767259763107,174.7329695902479
1.7684351017684352,3.712344212103412,1.0415732713174422,186.9150021062302,177.6079599972296,165.35595756682736,208.48660545630537,185.0746353650291,174.4935959045049
1.8018018018018016,3.712344212103412,0.9452318946649794,187.03618332198428,177.50638016155352,165.48118909030654,208.8356707307788,185.05427180464463,174.29346302099086
1.8351685018351689,3.712344212103412,0.8418116541339803,187.2157731665133,177.4651851530916,165.6783719973642,209.2137224362968,184.98877103432795,174.12634634613906
1.8685352018685355,3.712344212103412,0.7435301931012924,187.44883213823715,177.58246667649328,165.86538300515164,209.58143068610045,184.9268798202998,173.99619499666244
1.901901901901902,3.712344212103412,0.6413581907608082,187.6566031348165,177.83685811648115,166.12142495065092,210.05421051409024,184.81451797412308,173.81670711501266
1.9352686019352687,3.712344212103412,0.5347139324628674,187.8909930174036,178.11562568669007,166.4095008325821,210.5430561875557,184.67625076932688,173.64337950196213
1.968635301968636,3.712344212103412,0.4390753067855535,188.20990715429252,178.3788109523626,166.71500779530626,210.9989428052503,184.5224897200301,173.5125868454407
2.002002002002002,3.712344212103412,0.3584844384660319,188.62679350795696,178.6323098646403,167.03220028087543,211.3946069398397,184.3717422529638,173.4226175424156
2.035368702035369,3.712344212103412,0.2893931142177488,188.9436596768321,178.8562249730564,167.30914661600062,211.7289149728823,184.25222573189944,173.3758195223692
2.0687354020687354,3.712344212103412,0.2185125424585167,189.3163834106682,179.06976103605766,167.56966509913582,211.9958077018036,184.1493855888448,173.38032184217676
2.1021021021021022,3.712344212103412,0.1519198845154561,189.8783611842048,179.25965269792567,167.8151404660917,212.19055018428685,184.06396453595616,173.44045781839566
2.135468802135469,3.712344212103412,0.1059336718572032,190.62447827991343,179.3812134059048,168.02706020811328,212.2784635609292,183.9833127887238,173.58038986153986
2.1688355021688355,3.712344212103412,0.0371822628021014,191.5090648068479,179.112806699617,168.20527371691236,212.2690724114948,183.89920978384612,173.79663228827258
2.2022022022022023,3.712344212103412,-0.0067443824647621,192.4395580878428,178.88458736316034,168.38293923691492,212.15839795791123,183.81474714848355,174.08890153255794
2.235568902235569,3.712344212103412,-0.0159137128284969,193.343355218706,178.73915452472448,168.5660163165193,211.9395607747804,183.73234450322812,174.45646823962704
2.2689356022689355,3.712344212103412,3.2948048843683964e-05,194.2115038013482,178.82908163975335,168.76155174258494,211.67075548814788,183.64253638834035,174.81039481508492
2.3023023023023024,3.712344212103412,0.0420521180464028,194.9203411543984,178.8189149775083,168.97241377509886,211.34792182426577,183.54564449463643,175.17452625747958
2.335669002335669,3.712344212103412,0.1064101375609578,195.61872630808028,178.95231045078134,169.19301803949372,210.9696035929751,183.4451127198647,175.5433815033811
2.369035702369036,3.712344212103412,0.1977078737815731,196.2988344772687,179.2804598040562,169.41521964923825,210.5336033275296,183.3436926536407,175.91640839246602
2.4024024024024024,3.712344212103412,0.3135724888986829,196.99373628637707,179.79031243315953,169.6273176561437,210.1697691250899,183.2670450446601,176.19614478966506
2.4357691024357693,3.712344212103412,0.3787588630770629,197.75994676460303,180.2850605594566,169.79001205778454,209.79709600420887,183.22001903973623,176.4396530920925
2.469135802469136,3.712344212103412,0.4603332981015176,198.4925531869745,180.9170396661285,169.94824443282624,209.4352747769944,183.1834839557961,176.6632498315904
2.5025025025025025,3.712344212103412,0.5642620579173716,199.12862216701143,181.67717961863485,170.09815437596814,209.080731828732,183.16180620266067,176.85052213250336
2.5358692025358693,3.712344212103412,0.7157513510955879,199.581120144838,182.56954139057743,170.23164792509135,208.73033604397708,183.16472925271825,177.01106178490784
2.569235902569236,3.712344212103412,0.8638762625969187,199.77049534855408,183.39870297308343,170.31400589262526,208.4506895708384,183.1901177215192,177.13970080804145
2.6026026026026026,3.712344212103412,1.065527345083452,199.79951046760223,184.2970267199074,170.386237960921,208.19800968710305,183.23674378426497,177.23799277414753
2.6359693026359694,3.712344212103412,1.3412725016053442,199.67505427797244,185.30414175844007,170.4599514426872,207.9628640150279,183.2982587481737,177.30042782731343
2.669336002669336,3.712344212103412,1.6790020637689125,199.61543113659604,186.5011995365754,170.56191676883813,207.71531994018025,183.35071300636528,177.37227811402232
2.702702702702702,3.712344212103412,2.0965139645365283,199.4126003860769,187.59828427726663,170.68723651282934,207.4644157769358,183.39979755727128,177.43177709860072
2.736069402736069,3.712344212103412,2.5853483475929524,199.12886946767705,188.7588059438356,170.84161253350462,207.2142872664041,183.4393396854801,177.48216393280663
2.7694361027694363,3.712344212103412,2.5853483475929524,198.74620241532983,190.01405685194408,171.0201253238683,206.96894363410613,183.46352300970332,177.52039161088874
2.802802802802803,3.712344212103412,2.5853483475929524,198.42636591104545,191.3870489273357,171.28171800614223,206.78549801750748,183.4547041961888,177.52934785025263
2.836169502836169,3.712344212103412,2.5853483475929524,201.68706334861912,192.31201920165225,171.62694778661722,206.5917653619904,183.4315103457723,177.52924025295775
2.8695362028695364,3.712344212103412,3.1267022614890685,203.82340393510503,193.3419090315852,172.00577244249496,206.4226535457045,183.3941485282588,177.51040337302868
2.902902902902903,3.712344212103412,3.1267022614890685,205.47600356761347,194.56487965114155,172.4091524404559,206.305454927314,183.3444292293192,177.46757175192158
2.9362696029362696,3.712344212103412,3.1267022614890685,205.15351486579792,196.17835154508563,172.86734361392718,206.2599972645809,183.26170942402115,177.38060140074705
2.9696363029696364,3.712344212103412,3.1267022614890685,199.7886482299644,198.67892210071864,173.2778723702971,206.40895369978955,183.1376868851536,177.2417655477146
3.003003003003004,3.712344212103412,3.1267022614890685,195.1902672665097,201.3637571703977,173.71731154845023,206.64260067834888,182.97497724547745,177.04612788936493
3.0363697030363697,3.712344212103412,3.1267022614890685,191.19610427585457,203.4656783605668,174.19998366214372,206.94213746856784,182.7764830950853,176.7858472445222
3.0697364030697365,3.712344212103412,3.1267022614890685,187.81559677494764,205.7386035950346,174.6520377703398,207.1513908260073,182.60116174350108,176.55276408220882
3.103103103103104,3.712344212103412,3.1267022614890685,184.80992442399528,207.01948775851795,175.09999530731332,207.3704180494721,182.43970290518124,176.31555231967795
3.1364698031364697,3.712344212103412,3.1267022614890685,185.5216243380141,208.30265770549624,175.51854403270178,207.5781667459885,182.2946684831863,176.07402478211728
3.169836503169837,3.712344212103412,3.1267022614890685,182.5546359731704,209.7706295398532,175.90435000289776,207.754055178254,182.1653236526276,175.8207259771585
3.2032032032032034,3.712344212103412,3.1267022614890685,183.4893720377954,211.68072604616955,176.30479697687375,207.87902938152752,182.018828195887,175.56195534612576
3.2365699032365702,3.712344212103412,3.1267022614890685,181.40460518649232,213.94342846764283,176.7308000027677,207.89697111131133,181.8684999472452,175.29530394638402
3.2699366032699366,3.712344212103412,3.1267022614890685,179.52549670802102,219.44342608350564,177.1521873634126,207.85760045984912,181.7146190640008,175.02195195678578
3.3033033033033035,3.712344212103412,3.1267022614890685,178.13781380814368,223.2180194560504,177.5492567989347,207.8099332398331,181.56344686057216,174.7527802995031
3.3366700033366703,3.712344212103412,3.1267022614890685,177.0955835159557,225.626494199634,177.9387354805291,207.7435960988404,181.4173317483125,174.50177676986186
3.3700367033700367,3.712344212103412,3.1267022614890685,178.1933309039875,224.45369084703145,178.28177603040595,207.666962529915,181.2793457334758,174.27290805688816
3.4034034034034035,3.712344212103412,3.1267022614890685,178.97502036344915,223.4784773958501,178.5806754024445,207.57182371766768,181.15234828210296,174.07025010331157
3.4367701034367704,3.712344212103412,3.698677219159687,179.51156472178707,222.80308882259936,178.83508596881202,207.4575482952336,181.0424901661745,173.89533290245694
3.4701368034701368,3.712344212103412,3.698677219159687,179.9804699283081,222.68364220312017,179.04057260898935,207.3192383811803,180.95050173064337,173.74011450429697
3.503503503503504,3.712344212103412,3.698677219159687,180.8487238922933,227.57507499910488,179.21378621471192,207.20703264308435,180.86356226324148,173.61077769301636
3.5368702035368704,3.712344212103412,3.698677219159687,181.57642278984395,231.72586836668563,179.32954334228106,207.0784922048641,180.78648522870068,173.50898488062444
3.5702369035702373,3.712344212103412,3.698677219159687,182.0708004787452,234.33645703033628,179.38350169752474,206.92190805894228,180.729485328056,173.43430065800916
3.603603603603604,3.712344212103412,3.698677219159687,182.1992571085582,235.71632603208127,179.42435137717163,206.7673136203085,180.68647070908136,173.35053167119963
3.6369703036369705,3.712344212103412,3.698677219159687,182.06189698397583,237.8824957702039,179.44107299166268,206.5811977257292,180.6748205332636,173.26378170849063
3.670337003670337,3.712344212103412,3.698677219159687,181.4869736338252,236.68262588302272,179.46919320370495,206.3216140560982,180.6746038834763,173.18455551199222
3.703703703703704,3.712344212103412,3.698677219159687,180.720795694918,234.5843289990335,179.4678206985022,206.08541216864563,180.6774559894374,173.10993721339565
3.737070403737071,3.73132525895901,3.698677219159687,179.94577779345497,231.353186937088,179.46825894910376,205.8125192014365,180.680903830407,173.0564951932909
3.770437103770437,3.73132525895901,3.698677219159687,180.26666034771887,227.8781954198097,179.51221357114943,205.55990597724147,180.6673183052241,173.00779704861446
3.803803803803804,3.812372835384824,3.698677219159687,180.49512869120343,223.23338546839315,179.54835131788812,205.3241671629432,180.6568153072793,172.96326251345852
3.8371705038371706,3.812372835384824,3.698677219159687,180.37073252140803,217.35502045653448,179.55884758614158,205.1006786826468,180.6551639871149,172.92756830659786
3.8705372038705375,3.812372835384824,3.698677219159687,180.00126179797033,210.58080787757143,179.53347706178005,204.8835711783452,180.6712134949374,172.90215230805893
3.903903903903904,3.9621338664695616,3.698677219159687,178.9396716462047,201.37966180432224,179.53519848708115,204.66014830517776,180.7164842337044,172.881075847475
3.937270603937271,3.9621338664695616,3.698677219159687,177.59959647451024,191.69159150825644,179.5035895680855,204.4431005038216,180.7818153250424,172.87247922434463
