Time,Left Shoulder Angle,Right Shoulder Angle,Left Elbow Angle,Right Elbow Angle,Left Hip Angle,Right Hip Angle,Left Knee Angle,Right Knee Angle
0.0,82.22043901933371,42.48132473890856,64.6344241401648,23.731446723744604,104.39772975320516,110.52156469627316,238.03057060570063,227.13114291364133
0.0333667000333667,62.221104286945646,39.30388921380671,63.28398877186863,33.051991116778794,103.84254255771786,110.16674628772864,237.67887822046805,228.67917682172703
0.0667334000667334,45.080381984926994,36.474607249774905,62.02721554875456,42.31150767380673,103.1939462295786,109.60250350333368,237.4577421195249,230.16774758353915
0.1001001001001001,30.63316053780356,33.9758039059336,60.89089189204477,51.488075348408685,102.47727091858732,108.87034080412776,237.34566714018555,231.58306832412583
0.3003003003003003,18.714328370101185,31.789804241403264,59.9018052229614,60.55977309416498,101.7178467745441,108.01176265115036,237.32115811976405,232.9113521685354
0.333667000333667,9.1587739063457,29.89893331530437,59.08674296272664,69.50467986465588,100.94100394724892,107.0682735054409,237.36271989557468,234.13881224181603
0.3670337003670337,1.801385571062923,28.285516186757395,58.47249253256263,78.30087461346173,100.17207258650178,106.08137782803888,237.4488573049316,235.251661669016
0.4004004004004004,-3.52294821122129,26.931877914882804,58.08584135369155,86.92643629416276,99.4363828421027,105.09258007998372,237.55807518514908,236.2361135751836
0.4337671004337671,-6.979339015981168,25.82034355880107,57.95357684733556,95.35944386033933,98.7592648638517,104.1433847223149,237.66887837354128,237.07838108536697
0.4671338004671338,-8.732898418690823,24.93323817763267,58.10248643471682,103.57797626557168,98.16604880154875,103.2752962160719,237.7597717074224,237.76467732461444
0.5005005005005005,-8.948737994824441,24.252886830498063,58.55935753705751,111.56011246344012,97.6820648049939,102.52981902229412,237.80926002410664,238.28121541797424
0.5338672005338673,-7.791969319856207,23.76161457651773,59.35097757557978,119.28393140752496,97.33264302398712,101.94845760202108,237.7958481609082,238.6142084904946
0.5672339005672339,-5.427703969260321,23.44174647481214,60.504133971505794,126.7275120514065,97.14311360832846,101.5727164162922,237.69804095514127,238.7498696672238
0.6006006006006006,-2.0210535185108824,23.275607584501763,62.04561414605772,133.86893334866502,97.1388067078179,101.44409992614696,237.49434324412016,238.67441207321005
0.6339673006339673,2.2628704569179234,23.24552296470707,64.00220552045772,140.68627425288082,97.34505247225545,101.6041125926248,237.1632598651589,238.3740488335016
0.6673340006673341,2.2628704569179234,23.333817674548538,66.40069551592796,147.15761371763418,97.78718105144112,102.09425887676518,236.68329565557187,237.8349930731467
0.7007007007007008,2.2628704569179234,23.52281677314663,69.26787155369061,153.2610306965054,98.49052259517492,102.95604323960758,236.03295545267312,237.0434579171936
0.7340674007340674,2.2628704569179234,23.794845319622045,72.63052105496809,158.97460414307565,99.48040725325744,104.230970142192,235.1907440937791,235.98565649069263
0.7674341007674341,2.2628704569179234,21.969836949867272,76.25310337843352,165.1664844696624,101.73102545693295,107.7699261782168,233.6897488582637,233.50400592856403
0.8008008008008008,2.2628704569179234,23.10002482641136,79.96272728838791,168.39531528528306,104.33882246910848,111.6675390017741,231.51912306516732,231.14187395140732
0.8341675008341676,2.2628704569179234,23.68522874732902,84.69846779454836,171.58877044672684,107.36018957670709,115.86472110456664,229.10347179994923,228.5099733006245
0.8675342008675342,2.2628704569179234,23.339994460793807,90.35579214205924,173.95838633141238,110.70724765673005,120.40456539920127,226.46378525441355,225.8007810018188
0.9009009009009008,2.2628704569179234,22.427970001249864,106.0009415080062,176.40272450733164,114.57375133786049,125.79220212547403,223.64119355932303,222.21518140457508
0.9342676009342676,2.2628704569179234,23.87791321393124,114.58769468926906,176.64882435736436,118.43474769848083,131.30258680763404,220.66016740711265,218.6856636346976
0.9676343009676344,2.2628704569179234,24.716918430924764,122.52280195828482,176.2174525122776,122.41065076678603,136.99220609372466,217.6198690654209,215.00170309833533
1.001001001001001,2.2628704569179234,25.167712131824995,131.3098072264353,181.26639513638204,126.4915633270808,142.80926604170833,214.53272827777187,211.5682378841268
1.0343677010343677,2.2628704569179234,25.77268214076033,139.97510855943398,186.62865852596812,130.67800809387631,148.69492589589254,211.3908841985312,207.9329104339721
1.1344678011344678,2.2628704569179234,26.899163515482712,147.6083969073112,188.23952953728704,134.7853126737594,155.31001272543423,208.3529150039085,204.9452762767474
1.1678345011678346,2.2628704569179234,28.12035680393705,155.08515678440725,191.44539974556923,138.9164122642599,161.5445330013449,205.2794311647154,201.7582122096488
1.2012012012012012,2.2628704569179234,28.673213089437777,161.91010829462394,192.2968827931784,143.06752704071687,167.45147742375673,202.2140739091743,198.420120094986
1.234567901234568,2.2628704569179234,28.854252995964664,168.49944220464928,192.3548084474868,147.24358510522197,173.11632345830475,199.1673920309537,195.14810462540407
1.267934601267935,2.2628704569179234,28.711498404693184,174.53579829829022,192.54099367660024,151.362221657959,178.59864720536018,196.17109611121023,191.88195392612928
1.3013013013013013,2.2628704569179234,28.6690307765435,179.99338998744858,190.96141127771529,155.28854149176286,183.79189672972032,193.27256770014412,188.753861110558
1.334668001334668,2.2628704569179234,28.85699331972745,184.7863357850608,188.6091962464582,159.0334195493359,188.7008872808248,190.4874204984922,185.73641322317613
1.3680347013680347,2.2628704569179234,28.76388732280996,189.27748214702285,185.4147252880485,162.6441582847492,193.22135137380224,187.8374584198189,182.84058033360765
1.4014014014014016,2.2628704569179234,28.753679351641413,194.5459442580508,188.09564681644008,165.9351164212906,197.320267132895,185.38691471834792,180.2112434190734
1.4347681014347682,2.2628704569179234,28.902431853599463,197.15496419445515,191.3093607316128,168.91189484191003,200.86778612889745,183.1503984155857,177.84477693615773
1.4681348014681348,2.2628704569179234,29.5138260129437,199.88410034828644,195.9329215177535,171.4224608983303,203.7192590962811,181.2390077269563,175.8231975339662
1.5015015015015016,2.2628704569179234,29.35716119950015,200.8949957307917,194.3375813777181,173.44089228466814,205.70310828394423,179.78659521297655,174.25343359681597
1.5348682015348682,2.2628704569179234,28.78783606472525,200.66187594579964,190.93667359313585,174.98762115124538,206.78259317546096,178.70882665160275,173.33198427290964
1.5682349015682349,2.2628704569179234,30.756226643717284,199.35400651306995,197.1148544327308,175.99200458626933,207.0582166782025,178.08423213292537,172.8528227305238
1.6016016016016017,2.2628704569179234,31.73935874516193,196.3601683159191,202.20219507603883,176.41607495770123,206.53560676081423,177.8914634446552,172.74881089381594
1.6349683016349683,2.2628704569179234,32.52609841550597,191.880839763386,205.12689620138173,176.08694198007183,205.072684788039,178.21658443025075,173.15373716148454
1.6683350016683351,2.2628704569179234,36.387882808523074,192.2545403671112,205.27279952568372,174.88053983288404,202.51196718872217,179.21521684287367,174.1158136958907
1.7017017017017018,2.2628704569179234,40.30418955783216,191.2776307902975,202.47781556808243,172.6651843066482,198.8431905558832,180.8356577407954,176.4058194631945
1.7350684017350684,2.2628704569179234,42.85596613876892,190.1759509676984,202.511996422931,172.92123952086578,198.6045345938936,180.56312010069604,176.19698079313832
1.7684351017684352,2.2628704569179234,38.98217036757574,188.77526654545647,202.281310028899,173.122624887889,198.3244502356743,180.296588137281,176.00792411264223
1.8018018018018016,2.2628704569179234,37.4130534516376,187.2522599599428,201.3665402167069,173.27898678863764,198.00786197483933,180.05306606706546,175.82872810311446
1.8351685018351689,2.2628704569179234,37.98930802779738,185.35828681412252,199.7257757487029,173.41875698776593,197.69508883272644,179.83210113418693,175.66215217158816
1.8685352018685355,2.2628704569179234,40.82825245862968,183.27265015034453,197.43184806739416,173.5701853003525,197.40164311041065,179.61797367657877,175.46572825835474
1.901901901901902,2.2628704569179234,44.95216893942688,180.9940504511882,195.244705894154,173.67326378295618,197.1225480794737,179.4252672619256,175.28239125637975
1.9352686019352687,7.258956381551883,50.83018213058045,178.3601834794353,192.45973550518409,173.7463788014835,196.85394068004692,179.24361792589903,175.1209965309233
1.968635301968636,12.80209267991684,64.06884734027464,175.44238154852715,190.27194125711915,173.79577505100085,196.59901515252693,179.08168622138595,174.9842854945485
2.002002002002002,18.72716777653893,69.89191944407145,172.31759265445453,187.41152571788703,173.8344514055387,196.35892215164372,178.95097120126337,174.87661221902368
2.035368702035369,23.864087449546023,86.82421925463754,169.57974418469925,182.3687259963289,173.70201537308878,196.12267380647705,178.84744555852808,174.8067091886486
2.0687354020687354,28.823725962011807,101.59196307364314,166.89368374426397,179.7609427614625,173.53514210041416,195.86642886977492,178.76529426382422,174.76985405211798
2.1021021021021022,32.10229073550136,114.55730213966676,163.73561150727463,180.02351080540228,173.4329916846689,195.65445762245008,178.71746829563048,174.74819289280808
2.135468802135469,34.81438709325039,117.36338111461556,159.70181518646712,173.90990998237783,173.22117728397558,195.0445667307646,178.71772713841247,174.92548772957252
2.1688355021688355,36.82295565453628,120.49849621410613,155.1280180126727,167.97306636707685,173.1693090675982,194.86965217051545,178.6862156384212,174.96883560268896
2.2022022022022023,39.65592857486048,124.38330632061884,150.70599822392913,162.0034476698157,173.24786926088188,194.79789488178585,178.64259136373153,174.92788771046492
2.235568902235569,42.125950724343504,128.8358593336795,146.1881469326997,156.35369904326836,173.45930856175036,194.784690421039,178.5425204617624,174.87207687765488
2.2689356022689355,44.30473515259344,133.70075109807888,141.41114829582247,151.22256337712147,173.73338824919404,194.8377354856308,178.38354639759285,174.80341841071714
2.3023023023023024,46.0923155197842,139.3943661565719,136.24178800107322,146.06729651603388,174.0752968671094,194.93451165069544,178.18565470228287,174.71461818971235
2.335669002335669,47.5870449464196,145.16771091488,131.57380194071604,141.45899759493275,174.4217903938872,195.09823885029004,177.9556800688919,174.59906568043965
2.369035702369036,49.279226346696674,151.06791366399145,127.76238079747228,137.5890669745416,174.77004316617686,195.2964206501541,177.73157179647697,174.46771670425028
2.4024024024024024,50.69601691750872,156.98938412899997,123.9262541243461,134.17705665474077,175.12546744165388,195.570215574981,177.4946459088554,174.32523201377305
2.4357691024357693,51.83434707531776,162.88689253186627,121.11871804995415,130.09436994785204,175.52080789103826,195.88320235120364,177.27288816766628,174.1976459080546
2.469135802469136,52.66105010208496,168.73396018103892,118.86670440969873,127.60022561456012,175.9230321556994,196.1780101172193,177.03685997571898,174.10188442165474
2.5025025025025025,53.24923960502266,174.4943560568125,116.40942702647676,125.47369205944206,176.3211253022683,196.3662526842108,176.8263740816307,174.02412024066004
2.5358692025358693,53.674284746222455,180.1280648812892,113.59049214049816,124.10968522477532,176.6664448916367,196.574557341014,176.61154461798185,173.9163094190424
2.569235902569236,53.93177288409803,185.3727320993855,110.11172543318744,123.53446985709496,176.9980367018456,196.81637409477847,176.38537640046144,173.78511886820755
2.6026026026026026,53.82892538266766,190.1106900802308,108.76783074982448,123.71291370275682,177.2639957206789,197.03613780633967,176.26293221613565,173.6517187659564
2.6359693026359694,53.29771935515895,194.22822256705365,107.47150051951154,122.41600807815404,177.45258741760378,197.2342512181335,176.25767653211918,173.47865167288742
2.669336002669336,52.35084304148134,197.71428201027183,106.1385893290899,121.71971055883208,177.64972851732205,197.46882010808704,176.2468404324554,173.2847382644882
2.736069402736069,50.88437459298402,207.02886414681603,104.43040217417152,121.2782372391555,177.6799242095337,197.7153302385896,176.40381449052467,173.12703740083396
2.7694361027694363,49.39969006015584,214.1040498563208,102.6879995984937,121.1165433863567,177.64186202818297,197.9058983637373,176.70290459079752,172.99742905229974
2.802802802802803,47.68542969829738,219.1439807230822,100.8359777943652,121.00668964731702,177.5925181358895,198.2266613328435,177.09099046016044,172.72216539635198
2.836169502836169,45.98738575741767,223.06623474238992,99.42729436744256,125.58622532363452,177.46193077927717,198.56849659877932,177.5313213321177,172.45769590780762
2.8695362028695364,43.69836812748876,223.70215695386364,98.55101968032774,126.53596965688192,177.3723726517806,198.9005132156101,178.0531236794673,172.24184020620632
2.902902902902903,51.58507982923143,221.49484108548447,97.33940088467564,125.49060184976037,177.28716200794534,199.1977213870265,178.65905351396492,172.04318687034075
2.9362696029362696,62.32627995371556,216.52428849100983,100.45094468489408,126.40864066059274,177.25148418782857,199.5229303424831,179.3557209213506,171.82435107107904
2.9696363029696364,64.87882442090259,217.4249074491791,100.06471405128076,123.6672226969172,177.15288421394698,199.84142280136496,180.06646788913812,171.6234484317578
3.003003003003004,67.12358372660505,217.57020178825752,99.7334630678966,123.89545735798652,177.0053453674429,200.1540743761396,180.7848882355406,171.45524727686606
3.0363697030363697,69.0538512621126,216.90721054824309,100.82516763326858,127.13306159662515,176.74236083827017,200.43142968213527,181.5603417732754,171.28987313855143
3.0697364030697365,71.06474934698306,215.39019185336463,103.39211415097888,126.78377170300824,176.43318021364593,200.7700491463413,182.32757816877904,171.22298337756422
3.103103103103104,72.74812916403874,213.77082761385128,106.77487761759616,126.64227764769682,176.07599122340295,201.117170696542,183.1526118164564,171.3153530382708
3.1364698031364697,74.05714605762375,211.7885749362089,111.050921529275,127.41538937544776,175.6734930701933,201.43773855603465,184.01806282698385,171.6199782762747
3.169836503169837,75.08133998075368,201.3593765789904,116.1055963565737,127.54854690135956,175.09543641918927,201.52939131832363,184.9696656111344,172.12949857488405
3.2032032032032034,76.03951127634132,197.66741324043605,121.59199431634772,128.05527131764867,174.5149544055306,201.6598260908582,185.8922031374101,172.74750506660737
3.2365699032365702,76.72908502398252,181.08930520489272,126.94538240907332,131.34087741718054,174.09359034252043,201.890120457829,186.7956312233138,173.5770594719701
3.2699366032699366,77.6181492489975,161.6657993849879,129.38327070374226,132.4877635813198,173.78175370797348,202.11452388121296,187.61694634436407,174.5737859303927
3.3033033033033035,78.55015817239213,139.04055135458475,135.39803975305932,130.83929946691416,173.5372176520196,202.46908376891,188.3323203925888,175.67165233897052
3.3366700033366703,78.86415972729958,124.43077514471888,141.54962949376795,133.75303461207864,173.53608531364654,203.4778154520781,188.9403156497964,176.52273307069743
3.3700367033700367,78.36835613190416,110.0440431971506,147.72688378342502,134.07443336441747,173.51882225254332,204.2436027333748,189.5129297570534,177.55797554334407
3.4034034034034035,77.41821557156211,96.07027891212924,153.78388369533403,135.29279774177056,173.50626930750025,205.00667119614693,190.0062321016802,178.65257188177097
3.4367701034367704,76.42316678259063,82.16020391339839,159.73577287344867,136.15913219958344,173.5451880790533,205.8866864191578,190.40449547681013,179.7679625514102
3.4701368034701368,75.70528375389767,69.00899632808715,165.94016975259217,136.85022404066453,173.66223412847626,206.7322549391209,190.6547962280908,181.0028203208705
3.503503503503504,75.0010096617189,56.63302328181075,172.99007012043705,138.58298700893906,173.88340595916262,207.6482605438476,190.7596694252993,182.36609269463847
3.5368702035368704,74.07942116280164,45.2658294342632,179.4148082944825,140.58517543867862,174.2427212676618,208.50429940718908,190.67078625702945,183.7778384804478
3.5702369035702373,73.19594629354808,34.84493416565503,184.7528526324624,142.65557855572567,174.73579494028476,209.3306497652113,190.38838332492685,185.2077773991143
3.603603603603604,72.62118388553584,25.19269718035416,189.18852179912443,144.02828102198575,175.3667675586086,209.9705328075364,189.95007101792143,186.65004359424492
3.6369703036369705,71.7479329967802,15.899292090096504,194.04580753882587,144.80613423208692,176.05317775638576,210.44637514908345,189.29447921697883,188.08706604038235
3.670337003670337,71.59616688309751,7.25444930058828,196.3136431694874,143.80666570250526,176.79243213150312,210.83943721476163,188.4916214313436,189.42444362278547
3.703703703703704,71.28577102989281,7.25444930058828,198.3815863999173,143.07043217753943,177.57130237967004,211.15417712155352,187.55762115911784,190.61127254218337
3.737070403737071,70.41171222061058,7.25444930058828,199.6312314137388,143.76635691545792,178.4200594669334,211.3990941214224,186.5355115535938,191.7276192875165
3.770437103770437,69.54005084054097,7.25444930058828,200.02529749544897,143.65527665047253,179.2841432428191,211.4975565809208,185.5112443168982,192.78823819975284
3.803803803803804,68.11185658659194,7.25444930058828,200.11325931126217,144.36250517881516,180.18324529929703,211.5215913499426,184.45983471584017,193.7299330709355
3.8371705038371706,67.33662927619834,0.2333145665047877,198.78465470817736,145.53906013756028,181.14573611032617,211.4397678638208,183.33815180740115,194.643481342998
3.8705372038705375,67.43479811882503,-3.9460296399918695,196.77583463657035,146.49632812147226,182.08081632402167,211.2310422943584,182.28032548889007,195.5233200473163
3.903903903903904,67.41022451264081,-6.289276378386857,194.15403125480577,147.74567923295436,183.13813415840693,210.9608400944289,181.1430052904481,196.22911124161595
3.937270603937271,66.60625382768606,-5.370402882510708,191.64269335709056,148.967214633013,184.24778641902296,210.7777820641412,179.9632040019592,196.73894292415125
3.9706373039706375,65.82759302209915,-1.4884523833151198,189.764666095143,149.47867090342518,185.3781846623196,210.4649379218672,178.8090189022316,197.3611961599871
4.004004004004004,65.12904361932226,5.648088358270647,188.1623645464217,139.70220584051074,186.51246339556968,209.9210696758783,177.7050086662309,198.0342652375882
4.037370704037371,64.35904556464445,5.648088358270647,187.6333811326148,134.26712440177153,187.6644525396784,209.57172708460493,176.3293140690549,198.8169457363572
4.070737404070738,63.86023843135353,5.648088358270647,190.9940868877821,130.65376265955845,188.6283032762548,209.053318715122,175.20766312315405,199.4777758822779
4.104104104104104,63.740588726622896,5.648088358270647,189.488509947586,125.9418275441561,189.41795903599012,208.2027787161165,174.3390139022128,200.20508392965075
4.137470804137471,65.6130114715415,5.648088358270647,188.26608457365225,126.63769889970762,189.908350634616,207.1896478424322,173.8193072574166,200.89476447812137
4.170837504170838,66.22568854320637,5.648088358270647,187.07478475988296,126.23587245585068,190.102145150188,206.09953463877508,173.58030622424852,201.62016014676345
4.2042042042042045,67.47526499750641,5.648088358270647,190.76531841642904,125.75520991626584,190.4529564086044,204.78346826368244,173.76236313939367,202.3736520722732
