Time,Left Shoulder Angle,Right Shoulder Angle,Left Elbow Angle,Right Elbow Angle,Left Hip Angle,Right Hip Angle,Left Knee Angle,Right Knee Angle
0.0,22.51495047088716,32.96268665613757,144.56140268754967,164.4751479836512,143.93180995411464,147.3251379652333,192.2859392557553,194.0262585010076
0.0333667000333667,22.09516317928612,31.89974796622141,142.71173197268533,162.49412110137692,143.45437788445463,147.38805993554632,192.9109348913709,193.82981729577608
0.0667334000667334,21.764228078361096,31.02371414296755,141.2164932109202,160.82336517978882,143.01014976658195,147.41207000398754,193.429813444608,193.6925966412548
0.1001001001001001,21.51664782796944,30.32436848582744,140.05100730306907,159.4449680864466,142.59806651614707,147.3993620380327,193.84946910259933,193.6103601453161
0.1334668001334668,21.346925087968504,29.79149429425256,139.19059514994672,158.34101768890994,142.21706904880034,147.35212990515754,194.17679605247807,193.57887141583265
0.1668335001668335,21.24956251821564,29.414874867694373,138.61057765236788,157.49360185473853,141.8660982801922,147.27256747283772,194.41868848137707,193.5938940606768
0.2002002002002002,21.21906277856819,29.18429350560434,138.28627571114737,156.8848084514921,141.54409512597312,147.162868608549,194.5820405764293,193.65119168772108
0.2335669002335669,21.249928528883512,29.08953350743394,138.19301022709993,156.4967253467303,141.2500005017935,147.02522717976706,194.6737465247677,193.746527904838
0.2669336002669336,21.33666242901896,29.12037817263463,138.30610210104038,156.31144040801286,140.9827553233037,146.86183705396766,194.70070051352533,193.87566631989992
0.3003003003003003,21.473767138831864,29.26661080065788,138.60087223378346,156.31104150289946,140.7413005061543,146.6748920986265,194.669796729835,194.0343705407795
0.333667000333667,21.6557453181796,29.51801469095516,139.05264152614393,156.47761649894983,140.52457696599558,146.46658618121927,194.58792936082972,194.21840417534912
0.3670337003670337,21.87709962691949,29.86437314297793,139.6367308789366,156.79325326372364,140.331525618478,146.23911316922172,194.4619925936425,194.4235308314813
0.4004004004004004,22.13233272490892,30.29546945617766,140.3284611929762,157.2400396647806,140.161087379252,145.99466693010956,194.2988806154063,194.6455141170485
0.4337671004337671,22.415947272005205,30.80108693000582,141.10315336907755,157.8000635696804,140.012203163968,145.7354413313585,194.105487613254,194.88011763992327
0.4671338004671338,22.72244592806572,31.371008863913872,141.9361283080554,158.45541284598272,139.88381388827642,145.46363024044427,193.88870777431856,195.12310500797804
0.5005005005005005,23.0463313529478,31.995018557353283,142.8027069107245,159.18817536124726,139.7748604678277,145.18142752484258,193.65543528573292,195.3702398290853
0.5338672005338673,23.382106206508794,32.662899309775526,143.67821007789968,159.98043898303376,139.68428381827226,144.89102705202913,193.4125643346302,195.61728571111755
0.5672339005672339,23.72427314860625,33.36443442063231,144.53795871039685,160.8142915789033,139.61102485526175,144.5946226894808,193.16698910814472,195.86000626194888
0.6006006006006006,24.10934267597909,34.002522672681714,144.79077752956536,161.5579202241944,139.50822266665926,144.27245304450503,192.9061475078192,196.1243001130308
0.6339673006339673,24.40380982271721,34.595961129519054,144.75637173286614,162.183965908164,139.4393897004751,143.95475419120697,192.69339855791728,196.3474473499037
0.6673340006673341,24.63402659771636,35.26262188417815,144.60845939655516,162.77660738301813,139.46631105168663,143.61288177099937,192.46358870853484,196.50753010909307
0.7007007007007008,24.85993208659965,35.95153561658704,144.56177544542166,163.36927393787178,139.497673057129,143.2817435007793,192.2936579208877,196.61740969182088
0.7340674007340674,25.06405468844856,36.64026510134416,144.42804318050176,164.01053176802606,139.62771356288903,142.9360301340355,192.08731448864103,196.67383436365145
0.7674341007674341,25.2705410859542,37.32363513268856,144.42742913504875,164.66700554592936,139.74501531159706,142.62808491879915,191.97244534744152,196.6858080289437
0.8008008008008008,25.12767941893537,37.9445490905774,143.88452351661948,165.31742691760388,139.8678205968688,142.34511430167242,191.98512878256724,196.62144958366332
0.8341675008341676,24.99896055448325,38.518687861555776,143.54708079191445,165.89758544611803,139.9588953229824,142.11961670977476,192.1146365806508,196.52288597720576
0.8675342008675342,24.884537228091112,39.10231291410703,143.11160970289808,166.48944615924472,139.98886774499977,141.868575654386,192.36487037850355,196.52558804548585
0.9009009009009008,24.90681895804881,39.649805220868814,142.91354359647934,166.9650254209561,139.88733495045756,141.60987840172987,192.73340060825856,196.61377263786392
0.9342676009342676,25.021988342091404,40.09198694112953,142.95119785825668,167.45538987451835,139.69318231227777,141.3218707437649,193.248610037318,196.76868843458087
0.9676343009676344,25.240526409882808,40.4637784800255,143.24332935058982,167.71732945183174,139.44417899814147,141.09852621497836,193.8473540219748,196.89163303833143
1.001001001001001,25.59821080746785,41.27646033811692,143.93235507743384,168.49604041990202,139.14925659333548,140.95729393930995,194.47799345994736,196.93183681167292
1.0343677010343677,26.08876096143583,41.95954477687255,144.98132106387854,168.9740903537688,138.79416695338338,140.9109771532857,195.16211702396689,196.9085830628472
1.0677344010677343,26.67668050582535,42.48504991080277,151.3613234284545,169.38246462598536,138.49413693227802,140.94651196854156,195.82833161819988,196.82536277325772
1.1011011011011012,27.343464683046044,42.83388375451135,156.3442335620767,169.570675868625,138.203041424105,141.07947593146835,196.506644156656,196.6815178539927
1.1344678011344678,28.09049862833831,42.680718946051485,152.24863026705216,168.6062881454468,137.95527401075864,141.3101366696888,197.1861334756996,196.43794715529413
1.1678345011678346,28.88472852504661,42.30615810572228,150.83727979447278,167.3352431807129,137.6893730447186,141.64459103274825,197.8959037168732,196.106629292511
1.2012012012012012,29.703701937067883,42.01988645950691,150.95536192867488,166.21228250178382,137.38835396185058,142.07871608840335,198.6166692076715,195.7053768589388
1.234567901234568,30.51866994459713,41.66964981124437,151.5668807256157,165.02163564962558,137.06983978526668,142.60179127806637,199.33037523248544,195.23711638167708
1.267934601267935,31.444964798454443,41.25603242686889,152.58364406397325,163.87503762840478,136.7738533898336,143.22476214868752,199.9578937738884,194.68733400580544
1.3013013013013013,32.37977413971985,40.73221108105747,153.88852363837884,162.6236975589197,136.48751333854332,143.89199780130176,200.54555610189564,194.0978676155221
1.334668001334668,33.502813462257244,40.35765118340447,155.47450744571185,161.66982991579312,136.12721756995853,144.5595364671628,201.1459887455117,193.4990430066892
1.3680347013680347,34.58897904722298,39.90987505172022,157.32109600183145,160.52560262153048,135.79232089084002,145.27823670155902,201.71092679607747,192.8604404026729
1.4014014014014016,35.783219749879066,39.10644931937787,159.16813688633383,158.84740816385747,135.52902450225892,146.03246752103416,202.22960225757748,192.1919960064666
1.4347681014347682,36.771953672729445,37.99947584164689,160.63313351277085,156.84042723683945,135.34361335685148,146.8221346528417,202.6696331264244,191.51476336077087
1.4681348014681348,37.4509132032026,36.75919954496174,162.07410058080285,155.34710701651653,135.1770936926876,147.62318775323962,203.05144613114703,190.8590457284126
1.5015015015015016,37.838471352990005,35.36742999871899,163.23601816867108,153.63604718977228,134.9904621269637,148.42714987262823,203.3878976172268,190.20279984577147
1.5348682015348682,37.00282392104359,33.77634605742613,165.85569505462408,153.34859996161904,134.7962884837488,149.26567183272778,203.6430130323632,189.5716147774451
1.5682349015682349,35.30616838408262,31.823938787086377,166.9401687044085,152.86473667557456,134.68793728537122,150.12552703046504,203.7606561012307,188.96262277706649
1.6016016016016017,24.808522111656515,29.4019611139245,166.5672134371977,152.69812259927673,134.59314868215816,150.93026298563746,203.7811714337061,188.39117624619448
1.6349683016349683,17.41110181803151,27.05355217726294,165.56743514269596,151.14507444074485,134.6004458564559,151.69939143602645,203.67043877465028,187.8263657729821
1.6683350016683351,21.870559132567017,24.71595657864744,164.8996795226797,148.36017274219415,134.72980300000353,152.41663700077294,203.41870974288503,187.28639495387168
1.7017017017017018,26.416585133127,22.57375829349665,163.77236045174322,144.76903468876435,134.8997215851053,153.02481880347167,203.23684408855675,186.7346601110603
1.7350684017350684,21.79831522129351,20.263805490201904,160.99891481651508,139.9492392808451,135.14625799206993,153.51145446771187,202.99755542838005,186.2065315722788
1.7684351017684352,19.79816339665989,18.34782427371552,158.4896279167265,134.43484059084125,135.47667568946912,153.93071831885698,202.7010202675888,185.6856898094381
1.8018018018018016,20.30541407148272,16.869496248540333,156.17194378551537,127.97766613175703,135.86589848313588,154.23196219116025,202.35119855898216,185.21522523150307
1.8351685018351689,22.87263593102746,15.748302893103409,153.93768742177338,121.15359468033836,136.22172413368386,154.48453101850967,202.04638004631232,184.7958632427548
1.8685352018685355,27.535926910985463,7.217794335291105,151.2348591571051,113.68909243522292,136.64055009959662,154.66659554774824,201.7150611891425,184.4269973041412
1.901901901901902,33.924952018212736,1.9045831909424669,148.6681316553657,105.79900994940282,136.96299349372023,154.81839972028885,201.533054784402,184.13791638039348
1.9352686019352687,41.93616538529095,1.9045831909424669,145.97746183205783,96.04671166088148,137.30068588695772,154.91060711008282,201.3948263233972,183.9359083742786
1.968635301968636,51.62592921241945,1.9045831909424669,144.27067904075918,87.09285586972986,137.57610659238853,154.94734605522677,201.28955371104507,183.88027053615704
2.002002002002002,62.63007804310468,1.9045831909424669,142.98422572609255,78.8261405197912,137.84553692183474,154.90499682311193,201.20967608061144,183.95407001297093
2.035368702035369,74.75329763713331,1.9045831909424669,142.40124962507252,71.65354151571394,138.14995393581947,154.88228870810494,201.124521237962,183.9945368063232
2.0687354020687354,87.69664644459866,1.9045831909424669,142.418291246618,65.40286790572753,138.51913877966192,154.87407944841772,201.04928918771785,184.0140561148437
2.1021021021021022,101.3740878442364,1.9045831909424669,143.09779017652616,60.16564878558197,138.8947484567502,154.9217207804077,200.96791247927783,183.980041884221
2.135468802135469,115.81345906591766,1.9045831909424669,144.1568292885694,56.00045151879712,139.2432005575331,154.9435572390797,200.8953125195644,183.9483526185365
2.1688355021688355,130.652209933994,1.9045831909424669,145.64674605827736,52.05102265013526,139.53909084966,154.94947538483922,200.88703742244263,183.95031435555768
2.2022022022022023,145.75411594851118,0.0235560590280519,147.79897326199406,48.78374798924452,139.79496253681432,154.93500657346937,200.91967256085297,183.9562801406793
2.235568902235569,160.85888548477905,0.1329834992184162,143.80983293364486,45.98156951112029,139.93552423944828,154.93156939894567,201.0533414911293,183.94928741259824
2.2689356022689355,175.72294851786955,2.5954877870736386,138.68592535886117,43.7348528854941,140.0101751728825,154.94257157369674,201.26382348407583,183.90599993721344
2.3023023023023024,190.2065935831241,2.5954877870736386,142.53664529546964,43.173067217205855,139.9602477952958,154.96367124494228,201.5594096323962,183.8634978569311
2.335669002335669,204.21152182301824,2.5954877870736386,145.5326993293977,43.89373121549187,139.85573836093954,154.98683275918094,201.88599130603845,183.8292850398303
2.369035702369036,217.56703607120645,2.5954877870736386,148.0032811409956,45.32968210694701,139.6876225697235,155.01265794015382,202.2562681519027,183.7926391961689
2.4024024024024024,230.16561047116383,2.5954877870736386,150.4878109200365,47.69235001884047,139.43653233378222,155.04344466974425,202.6707150032952,183.75199886378508
2.4357691024357693,241.67090956118653,2.5954877870736386,153.07423096766271,50.81449221304654,139.06719953853815,155.03511909014384,203.1963338717508,183.74961901272263
2.469135802469136,251.9841457485191,2.5954877870736386,155.8295467699856,54.803830822035785,138.60212034378426,154.99655326814678,203.79808899953684,183.7963918184294
2.5025025025025025,260.6372159483012,2.5954877870736386,158.51973480712303,59.09897788055615,138.1693842450541,154.98019506730728,204.39572409926555,183.84763829362296
2.5358692025358693,267.48698536896114,2.5954877870736386,160.89725571202783,64.05386072061181,137.77452751720273,155.00287149930153,204.9636532436223,183.872285471165
2.569235902569236,272.0541682299028,2.5954877870736386,163.101090838736,70.25078723400236,137.3178044845346,155.03479331265996,205.54805617222087,183.91356037031207
2.6026026026026026,274.45670172612614,2.5954877870736386,165.42289731774292,78.43092631765221,136.7672714237496,155.0534024273568,206.1661872127458,183.9756489796333
2.6359693026359694,274.53246793650544,2.5954877870736386,167.65222395554892,86.4503379533,136.19470124862633,155.08464914887912,206.77803599131155,184.01496287810457
2.669336002669336,272.1346122869546,2.5954877870736386,169.92407403305347,93.98835615594516,135.59679507353155,155.131550124914,207.3787729266996,183.98371084341363
2.702702702702702,268.2658263487554,2.5954877870736386,170.0092633604515,99.25473133618118,135.02888570646024,155.12923152630808,207.93388092426835,183.911001977808
2.736069402736069,262.6629594338116,2.5954877870736386,170.63837611411827,101.9033255835879,134.42482139475885,155.1537107947801,208.5711450422476,183.6142331378877
2.7694361027694363,266.79377697455936,2.5954877870736386,171.72493195215662,102.97352384141854,133.89270165514725,155.17654739539424,209.1993231641165,183.3071180199608
2.802802802802803,271.4537304659439,2.5954877870736386,172.9318153869457,105.70432205547804,133.395005895593,155.2049395315833,209.84039164094165,182.9336004200805
2.836169502836169,264.8486318821855,2.5954877870736386,173.131463546323,107.5563857855005,132.90377573082233,155.1215730176019,210.42084996026028,182.70501230611845
2.8695362028695364,254.8448512942785,2.5954877870736386,172.99436291523688,104.85045240036104,132.3257128103584,154.9371643103499,210.99328598155844,182.45066720026475
2.902902902902903,254.21597292404687,2.5954877870736386,173.63879754119966,102.6545190783184,131.73910319239616,154.6427384901227,211.5275474909953,182.3516615833973
2.9362696029362696,264.78386664608973,2.5954877870736386,176.0184317215813,101.86235480389465,131.13344012669518,154.30135231820884,212.0661586238516,182.40540935910727
2.9696363029696364,272.2310922615597,6.908196666550206,177.22221495646775,100.16825900682012,130.5938682485364,153.91604630444817,212.51266655604337,182.64293201273964
3.003003003003004,276.60670775728727,13.01026051063664,176.2088617378742,96.80893353054783,130.11266128528956,153.42197299156584,212.82304564221243,183.07942526279743
3.0363697030363697,278.1716259137158,20.929461756352254,174.0880506831475,93.39864346013422,129.66049687188524,152.8339307710339,212.99927262220984,183.7566798489858
3.0697364030697365,277.16449022450035,30.793015378819483,175.80497617563285,89.58030075114438,129.31403717811372,152.08728423821807,213.03963204640627,184.68270976400572
3.103103103103104,273.9678368876756,41.64778108552893,176.8677096778227,86.93300813339599,129.02910797685345,151.26501163833143,212.98224699925,185.82350788989933
3.1364698031364697,268.5912539611745,53.69834328525807,172.6418951440089,85.16605580886801,128.68180307560286,150.358934992902,213.06737212742743,187.10507752356105
3.169836503169837,261.56866305563244,66.78631076831832,169.0620056483739,84.4387480195261,128.4105327963586,149.47274673187013,213.045724043136,188.5153970989272
3.2032032032032034,253.15617143288097,80.69276285267094,166.6584062654147,83.83655390347505,128.2452417463002,148.5778415387322,212.92502295904345,190.0057838179706
3.2365699032365702,243.57997979679945,95.66882535112693,164.29239497387843,83.91730863685095,128.16687156934415,147.667843927135,212.6496668405384,191.6518672427711
3.2699366032699366,232.9618780102273,111.39276740320756,161.72802410921173,83.88689407607754,128.1664926018679,146.81136271171636,212.28244420978103,193.50508117578136
3.3033033033033035,221.2468925818076,127.37942256803738,159.6683363684749,84.16674509767353,128.17890914811682,146.00222895486004,211.89773295781657,195.5153344242071
3.3366700033366703,208.76821995748105,143.54754706135606,157.980232057598,84.52034744544525,128.270934892039,145.27861123746283,211.36900714565928,197.62724318711355
3.3700367033700367,195.65245924891693,159.70523907438752,156.66230046804216,85.73916878348133,128.44343870979478,144.6415242359621,210.74852893476256,199.74690030231747
3.4034034034034035,183.25842558918544,175.7086797767819,157.20390345904886,88.88526365318017,128.75234761678723,143.97308575795108,209.8974775607664,202.0007685051324
3.4367701034367704,170.18059501312663,191.0058985114981,157.81794561172418,93.89466790167413,129.19321219784143,143.3084051144763,208.921285412264,204.25082399275163
3.4701368034701368,156.8821698344535,205.5734158111914,158.46461083126695,98.33700553153002,129.60064757513751,142.62032277860618,207.9571270648448,206.41778822306884
3.503503503503504,143.33041884324211,219.39429739982768,158.99914719381434,100.19517347167836,130.03071868766284,142.03928492076605,207.00929450422976,208.4113181727187
3.5368702035368704,129.42521056253878,231.93905399753,159.51096193089816,102.47916742868014,130.63240010828287,141.88277984904724,205.9042763192259,210.17776091706165
