Time,Left Shoulder Angle,Right Shoulder Angle,Left Elbow Angle,Right Elbow Angle,Left Hip Angle,Right Hip Angle,Left Knee Angle,Right Knee Angle
0.0,22.406543823830862,18.953097630306864,189.62006623104008,176.30770324316106,198.82499300031705,222.3671900735043,171.1112672653627,169.02228662287402
0.0333667000333667,22.556182620426355,19.01886528033041,189.12984227762456,176.68829759322864,199.22459485272967,223.2428498228005,170.81173537601697,168.75524366799704
0.0667334000667334,22.682992229307345,19.066721320336143,188.7129993600435,177.0206735641272,199.55891869154863,223.9923583503409,170.56131701066937,168.53035412211153
0.1001001001001001,22.790461687005138,19.098808675663467,188.36465619885155,177.30982043559996,199.83210039984533,224.62125070282664,170.3571934310324,168.3464821844593
0.1334668001334668,22.88208003005103,19.117270271651773,188.0799315146033,177.5607274873901,200.04827586069115,225.1350619269587,170.19654589881856,168.2024920542821
0.1668335001668335,22.961336294976324,19.124249033640453,187.8539440278532,177.77838399924082,200.2115809571576,225.5393270694384,170.0765556757404,168.09724793082168
0.2002002002002002,23.031719518312315,19.12188788696891,187.6818124591559,177.9677792508953,200.3261515723159,225.8395811769666,169.99440402351036,168.02961401331982
0.2335669002335669,23.096718736590304,19.11232975697653,187.558655529066,178.13390252209675,200.3961235892376,226.04135929624465,169.947272203841,167.9984545010183
0.2669336002669336,23.159822986341595,19.09771756900271,187.4795919581381,178.28174309258833,200.425632890994,226.15019647397352,169.93234147844487,168.00263359315883
0.3003003003003003,23.22452130409748,19.08019424838685,187.4397404669268,178.4162902421133,200.41881536065665,226.1716277568545,169.9467931090344,168.04101548898325
0.333667000333667,23.29430272638927,19.06190272046833,187.4342197759865,178.54253325041475,200.3798068812968,226.1111881915885,169.98780835732214,168.11246438773324
0.3670337003670337,23.372656289748253,19.044985910586565,187.458148605872,178.66546139723596,200.31274333598603,225.9744128248768,170.05256848502057,168.21584448865062
0.4004004004004004,23.46307103070573,19.031586744080933,187.50664567713773,178.7900639623201,200.2217606077956,225.7668367034205,170.13825475384226,168.35001999097716
0.4337671004337671,23.569035985793008,19.02384814629084,187.57482971033835,178.92133022541032,200.11099457979705,225.49399487392063,170.24204842549966,168.51385509395456
0.4671338004671338,23.694040191541383,19.02391304255567,187.6578194260284,179.06424946624986,199.98458113506163,225.16142238307845,170.3611307617053,168.70621399682466
0.5005005005005005,23.84157268448215,19.033924358214826,187.75073354476248,179.2238109645819,199.84665615666088,224.77465427759492,170.4926830241717,168.92596089882915
0.5338672005338673,24.01512250114661,19.05602501860769,187.8486907870952,179.40500400014963,199.7013555276661,224.33922560417133,170.6338864746114,169.1719599992099
0.5672339005672339,24.21817867806625,19.092357949073826,187.9468098735825,179.6128178526976,199.5528151311504,223.8606714095105,170.78192237473823,169.44307549720986
0.6006006006006006,24.46731068532721,19.156849964790297,188.1365261581951,180.05180848815004,199.4504687140213,223.41715907057463,170.92167566688377,169.73855485028756
0.6339673006339673,24.773327212956104,19.23335092110971,188.10330541681543,180.5073331586456,199.3163795353705,222.9317047475164,171.08697391121092,170.06392011566714
0.6673340006673341,25.15376635466788,19.34009402187241,188.00944860703743,180.99894261645017,199.19196208955907,222.3965706879583,171.24871181975098,170.42125511463445
0.7007007007007008,25.43177265671308,19.494764179705147,187.95594532051769,181.49106913729165,199.0997715186648,221.8252970678685,171.4017168348473,170.7972281846126
0.7340674007340674,25.79624795020501,19.69201788403757,187.9056672113344,182.01309360412003,199.0406829372793,221.22797272386416,171.54307603969102,171.1974849579353
0.7674341007674341,26.19212107838249,19.89634271637072,187.84069179015003,182.4267604234362,198.97335311293423,220.5702261908788,171.68597098672618,171.63339411078567
0.8008008008008008,26.68816251747276,20.14018954676684,187.7792932931376,182.8461420669377,198.9298952977741,219.9013190220094,171.81886338423934,172.08207373766044
0.8341675008341676,27.2636885523694,20.41052025574396,187.60604461631172,183.2813559402184,198.88245988255127,219.22417177245163,171.97156851468068,172.56995354127432
0.8675342008675342,27.949560598328045,20.74740161889362,187.4260328810545,183.7082555285797,198.8775861871444,218.5617372673796,172.08711452580422,173.05836964658897
0.9009009009009008,29.12747140682276,21.0900811223047,186.43934489259092,183.98740160496607,198.9359358458064,217.9025920109732,172.16206948334266,173.54227438300722
0.9342676009342676,30.13005367835822,21.452101351377443,186.08029762660288,184.35945493425376,199.0603880449113,217.27953938083385,172.17025389162453,173.9969791121635
0.9676343009676344,30.78559429616113,21.79439181163425,186.1857646093292,184.55134343139565,199.13356444780612,216.70302773367308,172.1254670926743,174.43936357227213
1.001001001001001,31.54623336476811,22.169776371458813,186.31933519943465,184.93178219431465,199.28649254900964,216.22185348341168,172.0053451791826,174.8039991761988
1.0343677010343677,32.474244142263416,22.547073611645995,186.38955801323124,185.8931999631621,199.5969082704735,215.84396564970564,171.7913517473999,175.08696591785673
1.0677344010677343,33.53586631668759,22.96174883635999,186.4095284034481,186.96704052734825,199.9728729604664,215.53413665761784,171.5299941635701,175.30690699986505
1.1011011011011012,34.718657354755834,23.37791956327024,186.23874999769927,187.9648699870204,200.4108422564489,215.30864984213383,171.22818216466862,175.4573197824172
1.1344678011344678,35.98450722244778,23.82372768976842,186.0659555129007,189.0765104593053,200.92931335420627,215.18966485647843,170.86192097487623,175.50966313892462
1.1678345011678346,37.15873747781348,24.29682137135969,186.10382699639445,190.1846546461309,201.51982948394053,215.1847267164562,170.44055939989923,175.45946659563307
1.2012012012012012,38.40610180251543,24.86833357425488,186.18767860491064,191.2992141021523,202.145247672737,215.25022842419355,169.97202568330786,175.33343780812615
1.234567901234568,39.67429608751426,25.455727310720192,186.10960239872605,192.0507587902537,202.75707692836968,215.3789264511428,169.49217342955532,175.15194081439768
1.267934601267935,41.06691419076149,26.01507023609709,185.9801156555754,192.9539200935572,203.3419197431988,215.47995390824576,169.0082940531579,174.9654992260995
1.3013013013013013,42.55277214625427,26.888305645602383,185.6491886063125,193.36074365271585,203.93996694724663,215.6156673753742,168.4755739591263,174.73868507772866
1.334668001334668,44.11233190561693,27.785902007708973,185.31561057287053,193.8947649248358,204.552119970197,215.7892330063536,167.90498269938374,174.46001355461397
1.3680347013680347,45.70379199136965,29.12382238451846,184.8119369064552,195.5203110589295,205.1917735073727,216.04401594958708,167.2774328328084,174.10071287450262
1.4014014014014016,47.39232763286633,30.06524796647032,184.4003728805856,196.94822429530177,205.85669171493345,216.29740237294536,166.61155698780473,173.68324942978407
1.4347681014347682,49.10243272976355,30.610704368198355,183.9104221466069,200.4826227739214,206.51887635769603,216.5924526267184,165.91940342657628,173.18422766886042
1.4681348014681348,50.76773514508419,30.866055592211044,183.64549348803345,203.4928326896461,207.15490524522795,216.83718166263927,165.21998112888537,172.72722405285782
1.5015015015015016,52.25495485512891,31.045448841663795,183.55159446200608,206.2245321960015,207.72048461210497,217.07362890730613,164.537925120523,172.28084297518672
1.5348682015348682,53.659109943535086,31.005808344420423,183.79199727147247,208.63616354616696,208.2499187676005,217.28434003095748,163.85920725490746,171.8293378544885
1.5682349015682349,54.976160738950334,30.57770010227153,184.1890929770363,209.89102437744225,208.7435908237231,217.41058601311445,163.23600332888404,171.4006599995907
1.6016016016016017,56.36739508344428,29.921329401607263,184.6045581994092,210.4967789370289,209.16746152130128,217.5311632424473,162.6998474659202,170.96833102545193
1.6349683016349683,57.76892431636884,29.25567728235917,184.8901898008833,208.6699259492784,209.5768503517974,217.60932379209743,162.22506635706705,170.54661709496085
1.6683350016683351,59.14319226345658,28.387007552176325,185.3132556810262,208.2188395292766,209.97789581698305,217.7919618336162,161.74763896629557,170.10655549579852
1.7017017017017018,60.43128283369901,26.68526913341645,190.1283064307136,207.80707195310225,210.36665996481725,217.9722307407061,161.27138230696096,169.66593620218626
1.7350684017350684,61.623595982595646,24.94781259860288,194.00631232513533,213.03679636237823,210.72159304713483,218.0476490170616,160.8187244035361,169.23816742925803
1.7684351017684352,62.24872730682528,22.56576010206995,196.7165778719653,215.95223739495648,211.0177871644732,218.09249732451852,160.38856934859442,168.8401125780179
1.8018018018018016,62.51652771191406,20.61047847255901,198.6007865821689,214.7765314882772,211.24889449396323,218.1265297896157,159.94768085585423,168.47771721379215
1.8351685018351689,62.54196190388131,21.153840811975776,200.4572261433608,212.96702240555888,211.3043056776037,218.19672884653284,159.52686250817817,168.19440232300718
1.8685352018685355,62.75131130082296,21.387807321135963,201.4328651971788,211.1756380607052,211.41417052906712,218.11377732056016,159.12613431107147,167.91819126100503
1.901901901901902,62.83047750871647,19.64825059327008,201.25455369230264,213.44698399204967,211.5335280210466,217.8085115807208,158.75150870142264,167.64116332926133
1.9352686019352687,63.031620155859805,18.071667634352803,200.1669275215323,214.55020663296887,211.734789207898,217.3981659525307,158.38027404763983,167.35049453066233
1.968635301968636,63.47755171402343,17.39431959545007,198.5657658693648,215.10942022697296,211.93758878648472,216.97972503590043,157.98585955614666,167.10030795281983
2.002002002002002,64.04695921171934,18.46735912276992,196.6676931724301,216.5774147058959,212.21794741443432,216.48255693500712,157.52155116756643,166.82115150198817
2.035368702035369,64.82667709392192,19.10392631167163,195.0060591528433,217.23752435448284,212.57302874074924,215.98536692059545,157.01575829593324,166.52303576624095
2.0687354020687354,65.45035740059166,19.541354718374272,194.11131532154303,217.04887983308,212.97172381067048,215.41177759407245,156.47331251924643,166.196637097001
2.1021021021021022,65.94468497094059,19.65138965337407,192.10311969065492,216.5209332420726,213.37876140135089,214.81513657995845,155.92843688145308,165.84580191962624
2.135468802135469,66.73983661789457,19.87854916146185,187.7954251393476,214.24989292971148,213.90482556636823,214.2435486178651,155.40575248344825,165.44459596376095
2.1688355021688355,67.43750543560067,19.89269148146827,182.6406310900094,210.4410793574853,214.4783402545172,213.71609423580384,154.92214205005715,165.00270633378705
2.2022022022022023,68.28551433679323,20.28500513315336,176.53160030493854,204.6241884308565,214.99101709446484,213.20083146920905,154.49730319765777,164.55054875591625
2.235568902235569,68.78958620431148,21.39875073577392,169.47004542606982,196.2937496904912,215.5297739042372,212.659217356833,154.09532595147772,164.13067899916751
2.2689356022689355,69.19131014361258,22.28624872743078,161.93950736079574,187.25582497636736,216.0809613120323,212.14587899150965,153.70192892580042,163.69959684414988
2.3023023023023024,69.78458668248759,23.35301541541975,154.86350533030165,178.5439655974573,216.5717951764068,211.6743362892408,153.36136509325453,163.26039147351858
2.335669002335669,70.55131443073867,24.41666181243488,146.77279452580976,169.36964135017274,217.023245457186,211.28069745465487,153.04652235811395,162.8036001401559
2.369035702369036,72.11036679883867,25.48026665137871,137.64017609770568,159.4338556623532,217.4129313831901,210.96449040350555,152.7672520852876,162.32817131824706
2.4024024024024024,73.67740609445667,26.57147686526063,128.20754042496006,149.64859125590803,217.8044368455788,210.74857110715243,152.45541944479626,161.79993603636626
2.4357691024357693,74.81013295625708,27.361403554129023,118.21142882571414,139.12969903277622,218.24108535995657,210.61090442635384,152.1238825981998,161.20858302403408
2.469135802469136,75.35369992570341,27.54959996305267,108.0225570144224,129.52186773049638,218.6305134883152,210.57684665037573,151.88384840882622,160.57132519813572
2.5025025025025025,74.72622340481239,26.81544025210347,96.7504429285662,120.54759621234668,219.18031311007584,210.71371410688567,151.66707076715036,159.82245941537877
2.5358692025358693,73.87755824333072,25.497269372665187,86.72113163725363,111.62481261834138,219.7135859078889,210.97712967483025,151.41293633336366,159.026889681015
2.569235902569236,73.07272789826558,25.68378409035659,77.5780655403525,104.30776708586372,220.2308527941997,211.2877223306625,151.09766242929857,158.27410100854422
2.6026026026026026,72.46902738846998,25.80624038190925,69.77845459503601,95.22690679229224,220.6719444350169,211.61203217050988,150.76492858566723,157.57802975534673
2.6359693026359694,72.67075987099822,25.41266459098275,61.37758222896053,87.79667318061561,221.2894544427453,211.5584712164796,150.5371430070218,156.88976076857935
2.669336002669336,72.64437213537187,24.48182444742241,54.68256678340335,79.74159908649993,221.71461280937643,211.75510201141475,150.31756143875992,156.2766888664498
2.702702702702702,72.96833186732837,23.74502934468085,49.279311387740535,71.60629631293286,222.13801949752573,211.99164390417232,150.13946628810066,155.73547320173384
2.736069402736069,73.05696270086023,22.993877614067586,45.622514096084096,64.17888576479535,222.4206471456013,212.4059931529657,149.94224873826363,155.26912479527724
2.7694361027694363,72.12954048819032,21.43963164147734,43.771942424257766,57.4266709169418,222.6488651731968,213.1640222537048,149.56658924075936,154.83830853203077
2.802802802802803,71.38389152087741,19.867022451388568,43.89402065505045,54.84442860456444,222.86313431271972,213.9723707255741,149.17093685677418,154.45394792862095
2.836169502836169,71.16662147800675,19.09298004585255,46.773265952644095,54.115514963454274,222.94504568093367,214.52690118773023,148.85084878837546,154.12470382678532
2.8695362028695364,70.25418576252457,19.2565951795154,45.98209124248071,55.44212983187396,222.9449609350272,215.1102843321912,148.54367998135075,153.85577698526575
2.902902902902903,68.53052919867415,17.123218174797234,45.36389408018399,48.40492223746208,222.82895651712448,215.86403776999447,148.27367943104983,153.67858811263247
2.9362696029362696,67.06538259510873,18.61671126984805,45.53448444625586,44.93182624697375,222.72230852468024,216.5600195522101,147.99282464675088,153.5704900836444
2.9696363029696364,65.3534404467355,21.112594661448448,46.42997081948203,41.39434822046717,222.76171425967087,217.3418900167944,147.5678163879668,153.49466755801407
3.003003003003004,63.72010819245818,21.20858309944826,47.34724861274196,41.776828704435744,223.0086956551916,218.03335455130068,147.10592213537083,153.4004300403813
3.0363697030363697,61.83657320489763,20.17056617655751,48.656826639528994,46.1280649158181,222.9376801568889,219.1243007132272,146.63301307863253,153.35815320482595
3.0697364030697365,60.34342334432423,21.48956366683545,50.877807198345,47.6760053583012,222.99799068191223,220.1888438367513,146.1684687217047,153.37745891686424
3.103103103103104,58.891073374308526,22.453265968479965,53.32358313112829,49.73909798713291,223.15559362681807,221.07427109043604,145.61527925239463,153.47240738872785
3.1364698031364697,57.63164090029581,23.75734098023637,51.41716428078816,53.50246044628205,223.3899498501981,221.8158035380272,145.14660543327523,153.5803983323689
3.169836503169837,56.52029758688367,24.24073662927602,51.89597764826517,50.60395639119733,223.70896144391293,222.4705775264672,144.7372882827019,153.7394729191459
3.2032032032032034,55.04963382467197,26.45125258210241,53.8932037194034,52.24231579021927,223.9622130156692,223.0727905636988,144.529915476896,153.92534074020796
3.2365699032365702,53.207554536191935,26.620920972332613,57.50827220101469,55.14447280705862,224.4639486923212,223.7987992419864,144.23786440330693,154.05144122646806
3.2699366032699366,51.74067455413331,27.06609892468887,61.677559297549166,56.05944933235608,224.9122683309373,224.61535990713648,144.141626143072,154.18029258847807
3.3033033033033035,51.5635695542092,29.070667492941613,66.34665971464514,56.67375392705267,225.3099455015435,225.5721927551152,144.0940129297827,154.29415822208452
3.3366700033366703,51.51108963181067,31.35245550895639,72.04467921424423,57.5284313965581,225.53083966280184,226.54292209724733,144.3476041127528,154.45242473298853
3.3700367033700367,51.37073334034232,33.34009287292694,79.10666372767034,59.48926865254746,225.73474173612584,227.49213764482684,144.72791814984518,154.54021685006023
3.4034034034034035,51.72413661063454,34.46228679367213,86.86986087836024,64.04453366517482,225.7896702501408,228.44826752127963,145.37743859588548,154.6041263005716
3.4367701034367704,53.07617283858444,35.76926089593385,94.37185951833531,71.66257928609906,225.86493415062145,229.3860209076676,146.08835612677143,154.57876073110788
3.4701368034701368,54.55530644890853,36.492545462307326,100.03690490384362,79.07667655905166,225.81553973732872,230.28013334023387,147.0473636793257,154.60093659183875
3.503503503503504,55.81228605197151,37.15626017367489,105.00835300280131,87.66846367520236,225.6245966845625,230.90573744534265,148.14442882592263,154.74591456910073
3.5368702035368704,55.74972718315627,37.28140655327415,110.42355429156538,96.44184816501058,225.2905738549582,231.3900812193428,149.51066637737824,155.01537065027782
3.5702369035702373,55.36085888675331,36.71785897317096,118.3555177703076,104.57693276583944,224.8404650752801,231.9823966083936,151.24740480264552,154.97109641597427
3.603603603603604,54.18313677855024,36.01179301555644,126.64786384776788,113.0091947296006,224.2971174697926,232.60045987088137,153.19232689242946,155.01643866667962
3.6369703036369705,52.86857212644494,35.64879156323888,134.514228822321,121.88331523808604,223.7433340727452,233.1356102436766,155.1591914971198,155.07744342120486
3.670337003670337,52.33664102918672,36.05718160820531,143.58446901525002,131.1226753408153,222.94599127911485,233.47751913510612,157.22137277407734,155.4455688900029
3.703703703703704,51.5661775698014,35.97177374327712,151.46519677752667,139.63798939163354,222.0433077837129,233.51010277351355,159.489706462321,156.17203470380323
3.737070403737071,50.62299326336087,34.270868088794465,158.62432557275312,147.52873649626272,221.0211787410213,233.3756930011314,161.92426461937686,157.10118473404788
3.770437103770437,49.66840562502136,32.23731082541262,163.07768950359676,155.93578165988865,219.9628939452496,233.1535864743199,164.48757446741453,158.17146496380977
3.803803803803804,47.87918551357605,30.62542559859335,171.41940480948406,162.49652772564394,218.5843277347361,233.3559072050109,167.00082346042765,159.41681914485696
3.8371705038371706,45.90301184233236,29.375177344750053,180.6882090704916,169.74054430648945,217.285267171867,233.41107127595072,169.52429915934488,160.7902948976238
3.8705372038705375,43.46866945567491,27.69784441794186,189.31413870507944,175.6814048933627,215.86720679082737,233.53675021973092,171.97183637824045,162.25545305036556
3.903903903903904,40.20615657055991,25.914647763615907,196.6784874736052,180.19434962036004,214.4695621718953,233.66966577803623,174.32063498776228,163.74517438764306
3.937270603937271,37.95975304791344,24.83194565797335,202.65748266810343,184.56726358659247,213.10891037982944,233.48701458484985,176.69527086313514,165.31455925134125
