Time,Left Shoulder Angle,Right Shoulder Angle,Left Elbow Angle,Right Elbow Angle,Left Hip Angle,Right Hip Angle,Left Knee Angle,Right Knee Angle
0.0,35.23092460568036,30.49789628869492,193.19887390137808,193.60817720025864,223.38280155977023,219.60929713252585,156.52627117861385,159.90476090144978
0.0333667000333667,34.61061004431083,30.18081761784707,194.1596217520012,194.35137868491512,222.81122104364945,219.0724888303064,157.21425584847245,160.3544474163083
0.0667334000667334,34.09789672168937,29.92481564439623,195.051527831856,195.05827152331864,222.347286681732,218.67414718292264,157.8400664312672,160.71630830655215
0.1001001001001001,33.68341325512227,29.724793612265145,195.8758442133184,195.7261043472561,221.981212460901,218.4051789417036,158.40794642401028,160.99552717135242
0.1334668001334668,33.35778826191584,29.57565476537655,196.63382296876424,196.3521257885144,221.7032123680393,218.2564908579785,158.92213932371396,161.19728760988022
0.1668335001668335,33.111650359376384,29.4723023476532,197.32671617056943,196.9335844788804,221.50350039002976,218.2189896830766,159.38688862739045,161.3267732213066
0.2002002002002002,32.93562816481021,29.40963960301783,197.9557758911098,197.46772905014103,221.3722905137555,218.2835821683269,159.80643783205193,161.38916760480265
0.2335669002335669,32.82035029552362,29.382569775393183,198.5222542027612,197.95180813408325,221.2997967260993,218.4411750650588,160.18503043471068,161.38965435953943
0.2669336002669336,32.75644536882291,29.385996108702017,199.02740317789952,198.3830703624939,221.27623301394428,218.6826751246012,160.52690993237889,161.33341708468802
0.3003003003003003,32.73454200201439,29.414821846867063,199.47247488890065,198.7587643671599,221.29181336417324,218.9989890982833,160.83631982206882,161.2256393794195
0.333667000333667,32.74526881240436,29.463950233811072,199.85872140814035,199.07613877986813,221.3367517636692,219.3810237374344,161.11750360079262,161.07150484290491
0.3670337003670337,32.779254417299136,29.528284513456786,200.1873948079946,199.33244223240555,221.4012621993149,219.81968579338363,161.3747047655626,160.8761970743154
0.4004004004004004,32.82712743400501,29.602727929726942,200.4597471608392,199.524923356559,221.4755586579936,220.3058820174601,161.61216681339093,160.644899672822
0.4337671004337671,32.87951647982829,29.68218372654429,200.67703053905,199.6508307841154,221.549855126588,220.83051916099308,161.83413324128986,160.38279623759578
0.4671338004671338,32.92705017207528,29.761555147831587,200.8404970150029,199.70741314686168,221.6143655919812,221.3845039753116,162.0448475462716,160.0950703678078
0.5005005005005005,32.96035712805227,29.83574543751156,200.95139866107385,199.69191907658472,221.659304041056,221.9587432117449,162.24855322534836,159.7869056626292
0.5338672005338673,32.97006596506559,29.89965783950696,201.0109875496385,199.60159720507144,221.67488446069544,222.5441436216222,162.4494937755324,159.46348572123102
0.5672339005672339,32.94680530042184,29.94819559774078,201.02051575307465,199.43369616411044,221.65132083778423,223.1316119562743,162.65191269383723,159.1299941427855
0.6006006006006006,32.815459367147824,29.85987553232137,200.9765676011845,199.39748170635923,221.33534160337928,223.66421871317124,162.9932452980752,158.92737865551078
0.6339673006339673,32.783183673327336,29.80685399739017,200.18885664577545,198.90183764914497,220.98340842539423,224.033926428908,163.3277025230305,158.7311515430858
0.6673340006673341,32.55837649270295,29.714456057824325,199.4844015399235,198.20043889653087,220.57678440150548,224.34842214738308,163.6630993632909,158.49579024175114
0.7007007007007008,32.02614359987998,29.63729997597496,199.11833658124672,197.3828469411,220.1115752768084,224.61647717879663,164.00387752818918,158.2776107034618
0.7340674007340674,31.37257094447321,29.50221661435009,198.7649696874559,196.28890527978925,219.5885932247621,224.8854452367468,164.33636022730246,158.03012342749727
0.7674341007674341,30.58852060179733,29.315750093342984,198.5338784091556,195.06134767112016,219.0106915687797,225.18712692361464,164.6618047746387,157.72610435298307
0.8008008008008008,29.83320872660849,29.06622755848411,198.3174443504724,193.7820175620528,218.36154160354,225.4963972570556,165.01060543895557,157.42368192391822
0.8341675008341676,29.22742121414249,28.81811684611417,198.0319616794545,193.83522138988343,217.69144024645144,225.7505027146183,165.35500334111845,157.20563008890556
0.8675342008675342,28.5033872141286,28.566388700890336,198.10764593018123,193.5584647704717,216.9744174833305,225.9734431727645,165.69791692905315,157.00652989897034
0.9009009009009008,27.652246784572093,28.20477853909645,196.44029896349016,191.52472619504744,216.2283146388142,226.2458040791217,166.03338187791104,156.78564301700888
0.9342676009342676,26.55192993545124,27.66278906752765,195.85573685966065,190.10572562929963,215.40411763613807,226.49094679390163,166.39215623051172,156.59594080490783
0.9676343009676344,25.03906652587164,27.25863796307232,196.2652465889013,188.31449323447595,214.5296668138171,226.7416449077753,166.7665192065483,156.39069863391236
1.001001001001001,23.405124680079783,26.832283235650205,197.3658034463703,186.6944784130729,213.6013050203088,226.97582962434413,167.15623538206458,156.181293311653
1.0343677010343677,21.647408960819007,25.63164182813252,199.3366975997332,189.969349117226,212.59475720691952,227.08347574395304,167.56748654776874,156.03872392464982
1.0677344010677343,19.793029123796902,24.30995503134661,201.8829479100589,192.14836766857536,211.60745215219777,227.11257516092388,167.98935404496737,155.9020103975192
1.1011011011011012,18.080816573381966,23.35875543130648,204.40006366832733,193.12680823823945,210.58608673120847,227.1258528750216,168.42331723814007,155.73010144960443
1.1344678011344678,16.08295037308857,23.28255767572197,207.58348252591853,190.7139113621936,209.54637447056703,227.1106912340084,168.84435722733173,155.53966226154046
1.1678345011678346,12.994457379669065,22.93369777243892,212.73450645249287,188.4681427337596,208.4541221176414,227.15467703334977,169.24621098455373,155.35093863979233
1.2012012012012012,10.247537821636376,22.65986766872962,217.8411276406884,184.7183930073396,207.39925404372588,227.12935628082084,169.67334552213876,155.21529605040192
1.234567901234568,9.421613806363226,22.7080880590383,219.6241058441061,185.01296033142947,206.48678777732235,226.9445935201251,170.12612278027385,155.1389470384477
1.267934601267935,8.517262919864004,22.21922552107309,221.8018584835243,184.0022203550828,205.686154743161,226.7053175174252,170.55835726857055,154.96901118496496
1.3013013013013013,7.447314816655821,22.028182260029045,232.7803815724141,182.66382099616413,204.99041369520447,226.32697586268475,170.95393105655418,154.74524503836895
1.334668001334668,6.872082746276245,21.94517500595087,241.12471706620744,181.07682625868063,204.3605807455,225.98729210445435,171.29915617168612,154.42318711123863
1.3680347013680347,6.883235858789671,21.754083189915807,247.7198535434511,178.7506239780419,203.82153455741377,225.6777428051612,171.59755611581014,154.0576121454584
1.4014014014014016,7.207804112560074,21.61502397641994,252.4317261184449,176.3838172310479,203.34768479948724,225.4667728156248,171.83180938760958,153.62887961519635
1.4347681014347682,7.873207127100272,20.31351913608066,255.1712174798504,171.62691056742898,202.96584583833248,225.33090438630265,172.00622658945784,153.17772776918116
1.4681348014681348,8.700025964555135,19.2259444127212,256.33888101351533,164.5436638158938,202.6606670812122,225.28817492530845,172.1056346522301,152.6935521788672
1.5015015015015016,9.782041085511706,18.44239755730177,255.33050421226648,158.5214720198588,202.4752641934693,225.29034582243864,172.14025152492408,152.2035463140158
1.5348682015348682,11.238797653594652,18.14563941995821,252.25618161693112,153.3360945928982,202.25453627258216,225.3554230354054,172.1520368737155,151.6326177868799
1.5682349015682349,13.238700699357311,18.293514147764785,248.22595255469008,149.01416940266307,202.11621643141387,225.478597471669,172.12151468158157,150.99343551496435
1.6016016016016017,14.862960181634405,18.85571793189799,244.03878238474223,145.43057406701578,201.8614928160516,225.4262657153189,172.1466277700653,150.61386001316575
1.6349683016349683,16.78777524578852,19.787798409001542,238.5982051903952,142.50501373130774,201.64155710409983,225.37067807512443,172.16789930979562,150.28132433726068
1.6683350016683351,18.983914073283017,21.058736707558246,231.7118458291476,140.33341341285583,201.54922736499452,225.48095539859952,172.16603125707616,149.67759080741573
1.7017017017017018,21.12811219777079,22.462629486361934,223.3168838218567,139.11903760929758,201.5395442648087,225.66934477298125,172.1243349001615,148.92730537074678
1.7350684017350684,23.007934514783205,24.23490914225357,213.8112811924225,138.30488910405168,201.57726857055204,225.821755335514,172.02579465525918,148.16582585133094
1.7684351017684352,24.940083220825706,26.3444120531443,203.0950688797022,138.0760598311702,201.6849933414556,225.99913001288732,171.83979890213035,147.38791604924086
1.8018018018018016,26.70635488903324,28.77816206635131,192.26243792098288,138.56502919136176,201.85653494519212,226.32041989424744,171.6003685155138,146.533663305025
1.8351685018351689,28.46692140928495,31.34961293807532,180.90511757969244,139.8352302638807,202.0708920478557,226.73796935725585,171.32987576308804,145.6418323536243
1.8685352018685355,30.38570962017587,34.00729754005521,168.81671936992188,141.9127770458974,202.3266860176779,227.2375802655135,171.0474676180759,144.68451377921008
1.901901901901902,32.273551275068726,36.8017806850973,156.4423450674663,144.9635915447838,202.6571861508405,227.7720024296218,170.75855336078217,143.72590014834032
1.9352686019352687,34.18420940011986,39.71399892006868,143.76637843668996,148.95241031799893,203.0262344385649,228.2762776561208,170.48061001156796,142.8336105901902
1.968635301968636,35.95775545145311,42.58584020680394,131.02707518702027,154.0552325309282,203.40414625381305,228.78211229992309,170.22468448187757,141.98669391277323
2.002002002002002,37.38124594175741,45.46267475825934,118.49834068969292,158.40806079788118,203.7428280870489,229.3358790449028,170.0029824440195,141.08948773522764
2.035368702035369,38.59813248745792,48.74211220099307,105.90986579419804,168.98746911060437,204.0580025172124,229.9277563905543,169.80999078041256,140.17232916805253
2.0687354020687354,39.64553287224204,51.76881538660017,96.00981778322895,179.54754105027033,204.30072866173083,230.4540924874217,169.69035991244598,139.29911620684646
2.1021021021021022,40.51223986155328,54.45185629033555,86.91220112908776,183.43336558105617,204.52093454220952,231.0363161499888,169.61443143400408,138.3824149252893
2.135468802135469,41.444044314536605,56.796851756842415,78.57151901395665,189.1584081726535,204.6923403892089,231.5571100831974,169.5914399771535,137.5254755698054
2.1688355021688355,42.2672282931356,58.27556914874859,71.23035280781669,197.13613016718216,204.7532632052875,232.01175305440972,169.7157466929486,136.71053032395287
2.2022022022022023,43.03866311440179,60.40294105280947,64.59567333055,200.1838197588136,204.7604079157896,232.48923193499832,169.9090455446476,135.9003806591111
2.235568902235569,43.68612132106419,62.95433480365443,59.0731945233678,202.60601894805723,204.66831876342067,232.9156138273061,170.20564728085023,135.1745422837387
2.2689356022689355,43.869141684620416,65.36598548547225,55.2781908711416,204.5784777810684,204.55032775113392,233.24904330264067,170.52680688192416,134.5681561243169
2.3023023023023024,44.18048902497996,67.22788078367073,53.23842815307451,208.6233271147257,204.35540916854788,233.50579963959044,170.92082287553694,134.10900407756128
2.335669002335669,45.80115471094568,69.22776223096832,50.94837744326112,212.2672942904701,204.2419336300578,233.5679325859529,171.2777200244804,133.75956365722217
2.369035702369036,48.20099934874743,71.03755144530871,49.66986894812323,217.7785164836548,204.15388532414687,233.4665592489127,171.68419533287454,133.47307043647035
2.4024024024024024,49.07063949065701,72.12828487848937,53.38378622715453,218.7206865902248,204.1071897013896,233.34687131648832,171.96191140148582,133.22382669186692
2.4357691024357693,49.64965329860129,72.11314747913652,59.06188072769231,222.0426027522716,204.0761464977387,233.06900100438835,172.2959769827876,133.08133407953994
2.469135802469136,50.365563834809045,71.65965286559366,56.60135205182963,223.27265110071303,204.11333547501823,232.83820112054565,172.5235450491301,133.0223830021245
2.5025025025025025,50.60473568463623,71.38010092222537,50.49553992818608,224.82732798415933,204.0796464076635,232.79300181943327,172.57092535133572,132.94844302456127
2.5358692025358693,50.87627245412548,71.72455257164731,45.80131382641239,222.76270395764223,204.1376833888994,232.7338751021826,172.45839460688137,132.9540016935967
2.569235902569236,51.40372261103186,71.16123113116004,42.6512708622581,217.4230877217585,204.27990233918013,232.70902821260952,172.25515420843672,132.95472530196602
2.6026026026026026,51.94705943124536,71.7521825199195,41.35811912403908,212.6177570319528,204.5424179382196,232.65153384263084,171.9134034252577,133.05728960736042
2.6359693026359694,53.11503241669605,72.24727809611245,41.052704011132604,209.6590531442398,204.9129728787,232.5388382908908,171.50324317388717,133.37097011430214
2.669336002669336,54.31627727883264,72.89726774322747,47.61469682250846,206.2929203585541,205.4264481664801,232.4159294824157,170.9246716738522,133.7972694246392
2.702702702702702,55.617584805908976,74.25635441628484,51.70076595451473,200.5130850747799,206.0393716807937,232.34564709679373,170.13679289524734,134.28453217772417
2.736069402736069,56.43158238573797,75.62585708267326,56.64489407891101,196.54762481483783,206.7617134296456,232.32518181429063,169.16702559653777,134.83977844742344
2.7694361027694363,56.727514586937765,77.22030562563207,62.43161745380629,192.0791353149012,207.4430987398048,232.37999899559296,168.00907325419195,135.40086545483112
2.802802802802803,56.74822336664779,78.66822869643468,68.61819198192325,187.60579558240065,208.18137446492585,232.43049776320936,166.71165590313234,136.00691530025497
2.836169502836169,57.26182492895204,79.92281138446396,74.33009279691296,182.8399098845113,209.04282685210063,232.44600872936485,165.23220469423478,136.64487103576033
2.8695362028695364,57.78143638564328,81.00481095189502,80.7643536696859,178.1609959223235,209.9838760226539,232.3951114245647,163.66830362724716,137.3588167320929
2.902902902902903,57.910742625068366,81.5827958662018,88.08159330873855,174.27434537545017,210.972800002987,232.3132696864526,162.08039422573884,138.09841041470395
2.9362696029362696,57.70139480627542,81.76503920949918,96.3240309669318,171.02428804622176,212.00711465061235,232.16178129352585,160.51713434473876,138.88103499344038
2.9696363029696364,57.18685242265139,81.65888597231557,105.6715320614254,168.26752304176568,213.21897553536584,231.9805448291561,158.61837637568786,139.73352020795767
3.003003003003004,56.37454683222255,81.21944259344254,115.56552767810294,166.4278570035721,214.43376005428075,231.7397492199587,156.82140531076354,140.65832067431506
3.0363697030363697,55.42995144968472,81.1354098072993,125.75901253357203,164.65858603391433,215.76709056361847,231.6198479781029,155.15792348646676,141.15112369089297
3.0697364030697365,54.22825541187729,80.80686512185041,136.25904967719146,163.50251186627017,216.9597566110617,231.32425807317816,153.73827557974454,141.84226519404083
3.103103103103104,52.988996597868685,79.54493545874475,146.39126209078154,164.00864418907605,217.862032229962,230.7957636919618,152.61525459879334,142.8808077895641
3.1364698031364697,51.31034831097292,77.90795777825686,156.18321874229804,165.6605264754075,218.54293477537064,230.23767540854425,151.76142735705196,144.012766335724
3.169836503169837,49.40907539480929,76.01788889200428,166.4315300202015,168.18492104918545,219.0084415398673,229.77045207342823,151.22363836327276,144.88847254103783
3.2032032032032034,47.230566686123446,73.59211587982062,176.77057601299407,163.4042497622642,218.9817855892057,229.3761022265789,151.04288694158103,145.7216533550084
3.2365699032365702,44.116418523686505,70.31284727130564,186.8664495852536,159.1509151691417,218.92979834303736,228.84941044342344,150.88743552152158,146.82505727585985
3.2699366032699366,40.737603931593625,66.6659252575582,196.52408412127247,161.70460694796049,218.69691171872137,228.0256402191379,151.00817792675088,148.2191778780733
3.3033033033033035,37.0127475165577,63.21365016911168,206.1439627599272,164.026171620409,218.06513009045585,227.1691109353996,151.50367390980165,149.66903716889445
3.3366700033366703,33.67621771572708,59.95946222023994,214.4785423145202,166.57111645421708,217.29046269837943,226.12564277517524,152.26009927586895,151.10730498877103
3.3700367033700367,28.89787356795385,55.71589051466457,222.40488771534936,176.64479947784767,216.0434789512748,224.6802754531191,153.27364520587437,152.64589779056152
3.4034034034034035,25.058339579268424,51.92886568565932,228.51397386438188,184.95394374203903,214.86762333343967,223.075070999726,154.48459557882023,154.09003528109034
3.4367701034367704,21.406195737276487,43.28684729996109,233.94903947579792,187.5960683607732,213.6232072709261,221.3049062648205,155.9789641032759,155.50053293722098
3.4701368034701368,19.3438778628864,38.78554067965304,236.2783553926737,186.5041036303253,212.4894785980058,219.4516674120349,157.51380896583677,156.88393190238293
3.503503503503504,19.92245123576315,34.497863723468484,235.44409511053752,189.3299277743212,211.980878613374,217.23340102834263,159.00935392795466,158.40821061131916
3.5368702035368704,19.025515669748973,31.05773590766588,231.49048722884623,202.0337228796729,210.8988521335208,215.78121436593383,160.43102378203236,159.8615393575774
3.5702369035702373,19.496900868960008,27.620451557763303,229.60382307438908,212.8260733673568,209.8520411899344,214.1019492073288,161.9707053960211,161.04984197756258
3.603603603603604,20.067538992718976,25.748455003951047,227.2990972647236,219.0015568537288,208.8871498251864,212.50829709247583,163.3782857057643,162.1321635755189
3.6369703036369705,17.333583660803782,24.206447505459945,225.17433577092072,212.46581416402628,208.10475991155744,210.96255061713345,164.69916317644692,163.16016217252755
3.670337003670337,16.510888300107812,23.141743917681254,226.9389219107785,204.1871998307364,207.5621585706025,209.36219826023475,165.99919132951786,164.22596442502044
3.703703703703704,16.484815582340907,22.01752925517348,229.0271286820401,198.3473580425894,207.0753730094692,207.83437354505105,167.2369265374653,165.23057842214655
3.737070403737071,17.336058025178005,22.11450727222909,230.97859014116173,193.9504936554638,206.68198188003103,206.32972407547024,168.3690204601788,166.3466457554156
3.770437103770437,19.11726760301756,23.080564771669685,232.5499255994713,190.2548855500752,206.3410294144716,205.0323474380792,169.57021381358553,167.30768926638913
3.803803803803804,21.05523521064609,25.11129013283091,234.9464426693442,187.3608865039734,206.0545400966469,203.8732159912865,170.6079328894766,168.18576269349333
3.8371705038371706,22.76513646242405,27.938848419602856,232.57189873562947,185.13491904805016,205.8214277741637,202.9066002591436,171.47480990991735,168.8905492787592
3.8705372038705375,25.075951174717588,30.85861295303585,232.6592430272135,185.83771374559288,205.6517323157345,202.04735616831724,172.18371213485807,169.53700940773837
3.903903903903904,28.35831736045488,34.10153014840833,231.82295422033783,185.78612961193704,205.57030813841743,201.32991654347228,172.69686077874422,170.1236422977359
3.937270603937271,32.57043504704112,37.45404702624121,230.2192116606305,186.42321028297587,205.7219144811367,200.6709537009624,173.0724951418713,170.7349151739856
