Time,Left Shoulder Angle,Right Shoulder Angle,Left Elbow Angle,Right Elbow Angle,Left Hip Angle,Right Hip Angle,Left Knee Angle,Right Knee Angle
0.2335669002335669,5.174083057769022,14.81974072839714,200.3302128038061,131.03079100621713,173.25269347771567,197.88994185181824,173.48676936377345,181.55873189479948
0.2669336002669336,5.038007754253715,13.538125951568093,196.4936095624332,140.1112936382043,172.31251756173558,197.6298422695562,174.51764444592442,181.4352124437312
0.3003003003003003,4.9244750546105776,12.421168635285396,193.05523806091168,147.39834148331954,171.42932142013146,197.3956960300526,175.48345462170954,181.3638297733704
0.333667000333667,4.833402382074811,11.459864887527509,189.9961409740889,153.01739938491272,170.60171190244935,197.1862647125447,176.38647652871623,181.3401060256937
0.3670337003670337,4.764707159881617,10.645210816272884,187.2973609768118,157.0939321863337,169.8282958582354,197.00030989626995,177.228986804532,181.35956334267777
0.4004004004004004,4.7183068112661966,9.96820252949998,184.9399407439276,159.75340473093237,169.1076801370357,196.83659316046564,178.01326208674428,181.4177238662992
0.4337671004337671,4.694118759463752,9.419836135187252,182.9049229502833,161.1212818620585,168.43847158839628,196.6938760843692,178.74157901294055,181.51010973853457
0.4671338004671338,4.692060427709483,8.991107741313161,181.17335027072613,161.3230284230621,167.81927706186332,196.5709202472179,179.41621422070824,181.63224310136044
0.5005005005005005,4.692060427709483,8.673013455856156,179.72626538010306,160.48410925729297,167.24870340698288,196.4664872282492,180.03944434763483,181.77964609675345
0.5338672005338673,4.692060427709483,8.456549386794698,178.54471095326124,158.72998920810102,166.72535747330105,196.3793386067004,180.6135460313078,181.9478408666901
0.5672339005672339,4.692060427709483,8.332711642107238,177.60972966504778,156.18613311883604,166.24784611036392,196.30823596180883,181.1407959093146,182.13234955314712
0.6006006006006006,4.692060427709483,8.292496329772238,176.90236419030973,152.97800583284794,165.8147761677176,196.251940872812,181.62347061924265,182.328694298101
0.6339673006339673,4.692060427709483,8.326899557768154,176.40365720389426,149.23107219348665,165.4247544949082,196.209214918947,182.0638467986795,182.5323972435284
0.6673340006673341,4.692060427709483,8.426917434073438,176.0946513806484,145.07079704410188,165.07638794148176,196.1788196794514,182.4642010852125,182.73898053140584
0.7007007007007008,4.692060427709483,8.58354606666655,175.9563893954193,140.62264522804364,164.76828335698443,196.15951673356253,182.8268101164292,182.94396630371
0.7340674007340674,4.692060427709483,8.787781563525943,175.96991392305404,136.01208158866177,164.49904759096228,196.1500676605177,183.15395052991704,183.1428767024173
0.7674341007674341,4.692060427709483,9.030620032630075,176.11626763839973,131.3645709693061,164.2672874929614,196.1492340395543,183.44789896326344,183.3312338695046
0.8008008008008008,4.692060427709483,9.303057581957502,176.37649321630502,126.80557821332758,164.07160991252928,196.1557774499113,183.71093205405737,183.50455994694985
0.8341675008341676,4.692060427709483,8.795187043976956,176.0342490264856,125.18072765516033,163.75352809627174,196.18547094927084,184.2851628953232,183.6069121719868
0.8675342008675342,4.692060427709483,8.439555850000847,176.88091064455887,123.7079269039502,163.45250810393082,196.19699795108733,184.85247528662865,183.67652453880865
0.9009009009009008,4.692060427709483,6.381594203237636,181.90643168417068,125.81292798444152,163.47990074287847,196.13170239259367,184.8102491704704,183.71023741733248
0.9342676009342676,4.692060427709483,6.381594203237636,180.84035134797705,125.0120422531806,163.59784080024392,196.1074432217456,184.669511262974,183.7038313797544
0.9676343009676344,4.692060427709483,6.381594203237636,177.00601167479155,122.87628017587208,163.75191973890463,196.1770669515968,184.5079105556817,183.61408636083672
1.001001001001001,4.692060427709483,6.381594203237636,177.95168359135667,121.02988833323973,163.9578761265162,196.0808485169296,184.3384351382885,183.52184515098537
1.0343677010343677,4.692060427709483,6.381594203237636,178.2374541909775,119.40143895193822,164.07716434327287,195.9212250454965,184.34373269126613,183.42606870267213
1.0677344010677343,4.692060427709483,6.381594203237636,178.7756472475362,118.33383530874742,164.10026028829915,195.7641124889456,184.48581434166047,183.2890409396635
1.1011011011011012,4.692060427709483,6.381594203237636,179.35018113743416,118.22475547127128,164.03732785404227,195.6953829233981,184.7608790838712,183.10438033107448
1.1344678011344678,4.692060427709483,6.381594203237636,175.311125746938,119.55032420444124,163.85813207929664,196.06087705507315,185.1035687373039,182.9618345275233
1.1678345011678346,4.692060427709483,6.381594203237636,176.737598114762,121.63798332155828,163.645789476891,196.4464763055974,185.4513548251637,182.7983354899459
1.2012012012012012,4.692060427709483,6.381594203237636,177.33334236174352,124.6289459764913,163.5305553601222,196.8490393452456,185.7990838969644,182.464765869369
1.234567901234568,4.692060427709483,6.381594203237636,176.6563691309554,128.22693656824077,163.47608581969732,197.24384333955288,186.14220327748927,182.0457235044028
1.267934601267935,4.692060427709483,6.381594203237636,181.2695555769504,130.0654188560557,163.5045140248118,197.39523326186412,186.44902270967688,181.558725265886
1.3013013013013013,4.692060427709483,6.381594203237636,183.9591627444636,131.89999855321736,163.61742862759976,197.4660720808592,186.70867553515984,181.05849242300252
1.334668001334668,4.692060427709483,6.4389861992241775,184.9967141482136,134.74327297100527,163.79666183916055,197.5674588486512,186.92613472024425,180.5919745397249
1.3680347013680347,4.692060427709483,7.656327248672618,182.41211069641147,139.59984459787816,164.03789515682357,197.54995193744352,187.116943791666,180.2060905613945
1.4014014014014016,4.692060427709483,9.09670557887076,181.24893655187068,144.1348391105275,164.3330390973828,197.37195655378824,187.23108375377743,179.86843325673138
1.4347681014347682,4.692060427709483,10.720398303301703,179.90085509171124,148.9199831951914,164.63097784683487,197.146893807485,187.28346671799125,179.57216404178155
1.4681348014681348,4.692060427709483,12.256324502038645,178.934303322018,149.16405431248472,164.9392716260164,196.8782707384132,187.254607270232,179.35877207628212
1.5015015015015016,4.692060427709483,13.641263377228018,178.12770127927797,153.74591327548904,165.2183023430219,196.88185679393803,187.1667438204993,179.23372200570725
1.5348682015348682,4.692060427709483,14.612895034359545,177.60802234293445,159.18676072358576,165.47221285045154,196.99157868454915,187.03484889826385,179.20750583941876
1.5682349015682349,4.692060427709483,15.417230851392876,177.63860556082886,162.18657838575373,165.7450174782879,196.9635065195723,186.85255515609623,179.2155282242449
1.6016016016016017,4.692060427709483,16.068711366294558,177.69521125332872,164.3720350818963,165.998744133671,196.9489512553429,186.6417655829084,179.2824645010828
1.6349683016349683,4.692060427709483,16.646527711309215,179.61629109093275,169.243228766636,166.21310502882432,196.88412337050767,186.42232045295827,179.38663202764164
1.6683350016683351,4.692060427709483,17.633228101753183,179.27410679874387,171.60152767730727,166.45936304504147,196.8588647557591,186.17338474057752,179.5207778716561
1.7017017017017018,4.692060427709483,18.683375976609188,178.98777862251967,169.10045968347242,166.71101275509557,196.67455268157383,185.88144494201816,179.65583934602108
1.7350684017350684,4.692060427709483,19.49748734121985,178.72264980351656,164.22250833574546,166.87087737968037,196.44667794539447,185.55410536940067,179.82462263405515
1.7684351017684352,4.692060427709483,19.785656745819782,178.54129202368196,165.6798431362091,166.99438670099963,196.14693784827955,185.194559084876,180.01718654039803
1.8018018018018016,4.692060427709483,20.320677779316043,178.61325090097648,172.1650067265596,167.10352982303294,196.0369547881216,184.8092591747449,180.2753227205658
1.8351685018351689,4.692060427709483,20.83030232567912,178.98043116215158,177.39062603153903,167.25664555776305,195.7022483906626,184.38257674944424,180.5660773222961
1.8685352018685355,4.692060427709483,21.39310853955036,179.47644044768643,180.06105433110466,167.4571289553125,195.330522607836,183.959908498043,180.86264502775973
1.901901901901902,4.692060427709483,21.49940355623292,179.9334749042718,182.5128321243604,167.72169520800733,194.92498495265176,183.49713752880416,181.1713661555355
1.9352686019352687,4.692060427709483,20.694131609561047,180.42141939091965,183.53332253169268,168.0426803547975,194.65014037778704,183.02392834963985,181.46362678129907
1.968635301968636,4.692060427709483,20.02627774861277,181.3171952871332,182.0036526393405,168.36782792941196,194.43228357254185,182.5493168824132,181.677363132179
2.002002002002002,4.692060427709483,20.19277706764298,182.4800013816652,181.7685287076916,168.7336474653436,194.1971732693803,182.11739836711,181.86721422257617
2.035368702035369,4.692060427709483,20.09877679236217,183.8368585169391,180.4093582922877,169.13101373320507,193.8889191056726,181.71662095945968,182.0913526954562
2.0687354020687354,4.692060427709483,20.197389866484727,181.56879696263977,172.98358432103362,169.5938766716459,193.55338879938344,181.33960335593912,182.3120896744619
2.1021021021021022,4.692060427709483,21.3014380419776,182.39971182422155,166.24923304325247,170.0320609392474,193.2029761691653,181.0027353164979,182.51570539997732
2.135468802135469,4.692060427709483,22.497095471827,185.29560448670165,161.02870471797755,170.44469068500194,192.80564052014324,180.69606576916763,182.7134703999336
2.1688355021688355,4.692060427709483,22.28681881380924,185.6492065784004,155.3476028355396,170.79632508880982,192.65142705660028,180.4416486677968,182.83418770104635
2.2022022022022023,4.692060427709483,15.152200582931288,187.39936303955884,149.81957666830513,171.01287128885187,192.7017831374269,180.29289311843047,182.89205824549072
2.235568902235569,4.692060427709483,17.031051542653188,189.1177464126414,142.7804189436127,171.1451377789417,192.93318254684544,180.1652939768676,182.89870832957743
2.2689356022689355,4.692060427709483,12.8501481990534,190.67169749675804,137.305078487614,171.32657780634364,193.21680715264287,180.00168238793964,182.84782413423272
2.3023023023023024,4.692060427709483,17.095158904755362,191.6734969500755,131.4201885263187,171.67549318362674,193.12439812997908,179.79466599442307,182.6236402768853
2.335669002335669,4.692060427709483,22.076322177980632,192.5661241965761,124.99622578811304,172.19426302974614,192.9625081008953,179.56222574910743,182.2389407666869
2.369035702369036,4.692060427709483,26.5721367319014,193.66772027628417,119.40762556299886,172.70405157769457,192.7029515544752,179.32037560483795,181.9029638928401
2.4024024024024024,4.692060427709483,31.086882937276712,196.1199403186557,113.51677446042982,173.21697574164077,192.25216069186567,179.0840143339141,181.57544262832369
2.4357691024357693,4.692060427709483,29.61991820849148,192.5101003649456,108.40974655284784,173.72036447159394,192.03510093635504,178.83444891225452,181.2810499482921
2.469135802469136,4.692060427709483,32.24312904637006,188.6446388061019,104.5625647570954,174.17229548567147,191.91455705014613,178.57567941944353,180.9891479728045
2.5025025025025025,4.692060427709483,42.52476024685009,184.8582661246193,100.60954931699035,174.56424903508068,191.6936789789303,178.31657503839173,180.6706713831174
2.5358692025358693,4.692060427709483,52.056573024658775,184.05956750762155,96.92680050678264,174.92705899880116,191.49881674141847,178.01323382412968,180.33141714098824
2.569235902569236,4.692060427709483,60.98689469085536,182.4798976233357,94.2867627602974,175.1884733626147,191.46606627488208,177.742606755922,179.97692411957195
2.6026026026026026,4.692060427709483,69.29815521462672,181.26976940795663,93.05632011811976,175.38740726144272,191.61203226217137,177.49308109158045,179.618517888662
2.6359693026359694,4.692060427709483,77.9837465065483,180.2112741927635,93.96980977493752,175.51759215413617,191.7981322105979,177.26537511562077,179.24278826258026
2.669336002669336,4.692060427709483,85.78090335102387,179.11304290515056,95.87216468878933,175.5846111895564,191.87862933122105,177.0672444762915,178.8494122917964
2.702702702702702,4.692060427709483,92.75083510143394,178.2945455816998,96.14704418487976,175.57956426651452,191.8646922812393,176.8835653558868,178.4310595653037
2.736069402736069,4.692060427709483,98.78434175454105,176.99066017893648,100.21837099625786,175.5122905686619,191.9695820082912,176.729521256034,177.99897255320735
2.7694361027694363,4.692060427709483,103.95711614161686,175.67066948443173,104.59883035950362,175.33087786088447,192.1994495841509,176.59278938295242,177.55146307889473
2.802802802802803,4.692060427709483,108.57509000165668,171.7281139271584,109.22655893311337,175.17100485471835,192.40351245637308,176.43655849007513,177.1108184853475
2.836169502836169,4.692060427709483,112.32654038955673,169.48432215198108,113.80556958739236,174.9590643373738,192.5639845749461,176.29078560390826,176.68342466986434
2.8695362028695364,4.692060427709483,115.30653474365631,167.1451330511516,118.64351570831202,174.77665443691117,192.7407526904061,176.11741924149194,176.26419482906147
2.902902902902903,4.692060427709483,117.36264729509516,165.11041853069193,125.61688685638433,174.6789662325626,192.89157550049504,175.94246346038554,175.86410857216867
2.9362696029362696,4.692060427709483,118.79180167364146,163.38320069392742,131.60315558437475,174.61985171666225,192.99030510785963,175.76349533806803,175.5117383017924
2.9696363029696364,4.692060427709483,113.0665622074156,161.66554275081467,133.026645828788,174.5779635112075,193.0376924400888,175.58565775644846,175.19504019513545
3.003003003003004,4.692060427709483,108.2958542726578,159.9222746153603,133.05506925707635,174.5646805751959,193.0867080534112,175.41557711353565,174.90841992091725
3.0363697030363697,4.692060427709483,104.44283812675089,158.31656705018847,133.5980713095062,174.56082408050568,193.1137084216135,175.24317118803694,174.65880867585875
3.0697364030697365,4.692060427709483,101.6193086173656,157.3346921910845,133.57607081378757,174.5369343136975,193.1714236795381,175.08978058556218,174.4575690094262
3.103103103103104,4.692060427709483,101.0652996127089,156.85212755670358,133.27747358696143,174.47354740912994,193.20605282385327,174.9380812238116,174.30472077450742
3.1364698031364697,4.692060427709483,108.14643195278552,156.27235742642733,134.47664759500174,174.41751683834278,193.121328411152,174.7879457824425,174.18647008471677
3.169836503169837,4.692060427709483,113.21345394804062,155.6539026569519,132.33787817923584,174.49845783427403,192.97133006667968,174.64942738571284,174.12998795021446
3.2032032032032034,4.692060427709483,116.69532698487804,155.36865305625054,129.78534706008267,174.4933967036309,192.87289172113387,174.49316628029348,174.07463249618348
3.2365699032365702,4.692060427709483,112.63766710099128,152.37835569344034,128.41797091931412,174.34105300859656,192.7761230719497,174.3459848676125,174.05604974060003
3.2699366032699366,4.692060427709483,109.01664227724734,150.02122787730465,126.91212584269834,174.03898730491707,192.5859427755768,174.23863366599792,174.0655416759766
3.3033033033033035,4.692060427709483,105.73015267171822,149.2365667373917,123.63985037719092,173.66252558736147,192.37717479721744,174.18153781647658,174.12870369347965
3.3366700033366703,4.692060427709483,103.9605420873594,150.2904814848446,120.79748773273184,173.30812706509514,192.1030751705831,174.13752094324556,174.23845405214064
3.3700367033700367,4.692060427709483,111.81436839131445,149.6497981197241,118.00380474049288,172.94398033119344,191.787436762848,174.07342048130116,174.38559617846795
3.4034034034034035,4.692060427709483,113.73583019995964,148.54740931951503,117.0310731653244,172.61469407457017,191.3852097951577,173.98302096359396,174.54145420336118
3.4367701034367704,4.692060427709483,124.55526025091018,147.450719647336,115.00701880438103,172.22233795409588,191.06079496959896,173.9194256727187,174.68379555049074
3.4701368034701368,4.692060427709483,129.49387496123603,146.5060962264721,113.91398549967096,171.84819962368718,190.7321905186896,173.85875701908273,174.85419626890737
3.503503503503504,4.692060427709483,133.85397557839943,145.47990595791944,113.52569791954788,171.42438408251317,190.4159862140918,173.8340169653317,175.01884279989997
3.5368702035368704,4.692060427709483,138.72742600621655,144.46904862353017,113.65896722243028,171.11531107153516,190.1388670506253,173.70780906001448,175.14144905173222
3.5702369035702373,4.692060427709483,144.5571442588426,143.45791611732471,115.01659253636848,170.75178964201524,190.01284699897144,173.62948270832908,175.2240459554715
3.603603603603604,4.692060427709483,158.5160456556803,142.3709221309642,116.89738425497367,170.42379392150306,189.91125539118664,173.57782090265763,175.31567782746797
3.6369703036369705,4.692060427709483,174.7399178716543,141.07891632210016,118.31717513498042,170.12750471025697,189.9325841036664,173.49893096924137,175.38333408586644
3.670337003670337,4.692060427709483,184.4457289907332,139.8585274333066,120.77497340736782,169.91259079784257,190.06806195730184,173.3813999393257,175.41400967004023
3.703703703703704,4.692060427709483,193.8324318026227,139.28197054903063,123.34775599527347,169.77305844382025,190.2586713710736,173.27065006431977,175.46150460017364
3.737070403737071,4.692060427709483,202.8853731649172,138.8112309375081,126.1865833522414,169.7790165365204,190.5856586123396,173.05735695717348,175.35280430136118
3.770437103770437,4.692060427709483,211.5240762712513,138.39910477893076,130.05284764657424,169.84790386595392,190.92260903789412,172.82196818010817,175.2734087078849
3.803803803803804,4.692060427709483,218.40704271427504,137.78159947878686,132.51303275208502,170.16117165161066,191.3329310067495,172.54535881810872,175.2163625419238
3.8371705038371706,4.692060427709483,224.45434434646577,136.5489199069812,134.59277977448372,170.5821143187879,191.82559602643084,172.3126098691659,175.2484637949583
3.8705372038705375,4.692060427709483,229.28785016800967,135.48258733597976,138.81968092629305,171.10162322212992,192.2890282434844,172.1592008214328,175.3790547031996
3.903903903903904,4.692060427709483,233.56531158012075,134.78626725261125,140.2774167746578,171.74902126858314,192.68573832821008,172.1222127685206,175.49416736181453
3.937270603937271,4.692060427709483,236.8036017790964,134.84074026639652,139.6403051535735,172.57979002177387,193.03618490436403,172.09575398210012,175.56153250416085
3.9706373039706375,4.692060427709483,238.8546579688644,135.59994976867242,137.81909227840404,173.47822649861916,193.37608959819067,172.19015150393096,175.6735080572427
4.004004004004004,4.692060427709483,239.3019302021426,137.08344283885,141.34212656442543,174.46548545132651,193.76630972163008,172.3706842232173,175.80160686823132
4.037370704037371,4.692060427709483,238.1356361557478,138.8130498323683,145.96785353438145,175.39313404530336,194.298269247318,172.71341051100714,175.89143944947773
4.070737404070738,4.692060427709483,235.6299299223552,140.47461289263055,149.073038567925,176.19151823488488,194.8794592152249,173.22319180848422,176.06911205498713
4.104104104104104,4.692060427709483,232.0730009137572,142.7026914307318,148.19075406194045,176.94028163248393,195.3743939117416,173.90458686742167,176.42975297580278
4.137470804137471,4.692060427709483,241.7818728798025,145.9428315224086,146.18112539906386,177.5825367369604,195.8939329238193,174.75540653868666,176.89396960697306
4.170837504170838,4.692060427709483,243.8732105537053,149.6103769074981,142.67519982141056,178.17926973892304,196.2189999789597,175.73007959578973,177.6665759797508
