Time,Left Shoulder Angle,Right Shoulder Angle,Left Elbow Angle,Right Elbow Angle,Left Hip Angle,Right Hip Angle,Left Knee Angle,Right Knee Angle
0.0,1.931016916396428,0.4404643296026291,193.5236277886501,171.14632505268153,163.50575361469876,214.00940321582289,181.71978627990788,171.01728814129788
0.0333667000333667,2.213886239601813,0.4404643296026291,192.49538411351216,171.64412399736253,163.17848679276045,213.91202509018697,181.9345213917948,170.83350716019515
0.0667334000667334,2.4440836507517654,0.4404643296026291,191.5877930637626,172.091285737157,162.89099129019408,213.834104283874,182.1380046015983,170.66724856450438
0.1001001001001001,2.625162963530752,0.4404643296026291,190.79482281843497,172.48985498599728,162.6412669143115,213.7740830644328,182.33053647669377,170.51761741809494
0.1334668001334668,2.760677991623241,0.4404643296026291,190.1104415565628,172.84187645781574,162.4273134724246,213.7304036994121,182.51241758445644,170.38371878483625
0.1668335001668335,2.854182548713701,0.4404643296026291,189.52861745717945,173.1493948665447,162.24713077184524,213.70150845636107,182.6839484922616,170.26465772859768
0.2002002002002002,2.9092304484865994,0.4404643296026291,189.0433186993185,173.4144549261165,162.0987186198853,213.6858396028284,182.8454297674845,170.1595393132487
0.2335669002335669,2.929375504626405,0.4404643296026291,188.6485134620136,173.6391013504635,161.98007682385656,213.68183940636305,182.9971619775005,170.06746860265866
0.2669336002669336,2.918171530817585,0.4404643296026291,188.338169924298,173.82537885351803,161.889205191071,213.6879501345138,183.1394456896848,169.987550660697
0.3003003003003003,2.8791723407446086,0.4404643296026291,188.10625626520525,173.97533214921248,161.82410352884042,213.7026140548296,183.2725814714127,169.91889055123306
0.333667000333667,2.815931748091943,0.4404643296026291,187.9467406637689,174.09100595147913,161.7827716444767,213.72427343485933,183.3968698900595,169.8605933381363
0.3670337003670337,2.7320035665440563,0.4404643296026291,187.85359129902253,174.17444497425038,161.7632093452917,213.75137054215185,183.51261151300048,169.81176408527614
0.4004004004004004,2.6309416097854177,0.4404643296026291,187.8207763499995,174.22769393145856,161.76341643859732,213.782347644256,183.6201069076109,169.77150785652194
0.4337671004337671,2.5162996915004934,0.4404643296026291,187.84226399573336,174.25279753703597,161.78139273170538,213.81564700872065,183.71965664126608,169.73892971574313
0.4671338004671338,2.391631625373753,0.4404643296026291,187.9120224152576,174.25180050491502,161.81513803192777,213.8497109030948,183.81156128134128,169.71313472680907
0.5005005005005005,2.260491225089665,0.4981517586207075,188.0240197876057,174.22674754902803,161.86265214657635,213.8829815949272,183.8961213952117,169.6932279535892
0.5338672005338673,2.1264323043326963,0.5465853645610523,188.17222429181123,174.17968338330735,161.92193488296297,213.9139013517667,183.9736375502528,169.67831445995293
0.5672339005672339,1.993008676787328,0.5864797435119838,188.35060410690903,174.11265272168666,161.99098604840077,213.94091244116404,184.0444103138411,169.66749930977105
0.6006006006006006,1.9064664147243624,0.6185494915618226,188.5583970477048,173.95771519940186,162.09614411830808,213.96640902254265,184.0920345707784,169.5589265681721
0.6339673006339673,1.848437612293096,0.6435092047988888,188.7431910956087,173.80298971875166,162.2155944423871,213.9857315007241,184.13248058459675,169.4548809084375
0.6673340006673341,1.841129695585584,0.662073479311503,188.7339385890819,173.5942628363254,162.30367347552993,213.98807492711,184.1714325047706,169.38736399073278
0.7007007007007008,1.846762816718312,0.6749569111879854,188.7504213591137,173.4293699166511,162.3915311972454,213.9800833518235,184.21071873633224,169.3514764543485
0.7340674007340674,1.8184017846061165,0.6828740965166564,188.8168394218879,173.22179009187204,162.4741034802703,213.95996431816008,184.2492892404209,169.33666187551125
0.7674341007674341,1.8349521446974064,0.6865396313858366,188.9175364183004,173.0640442331868,162.5413313290033,213.9238234983291,184.295427912735,169.3330653134027
0.8008008008008008,1.873815021960737,0.6866681118838462,188.9864883392134,172.94787503307413,162.5534252227428,213.84170207474529,184.3575252436316,169.3666749752315
0.8341675008341676,1.754583115737699,0.6839741340990055,189.4906226592701,172.83923099909777,162.53029065439046,213.72126913417617,184.4280961433967,169.44652521651818
0.8675342008675342,1.660763515364962,0.6791722941196351,189.91040460360543,172.87258454688686,162.47537518241728,213.5516313299541,184.4930310330209,169.57640968549484
0.9009009009009008,1.657923701546219,0.6729771880340554,190.0889536396309,172.98346184396985,162.40021088672194,213.3511259572492,184.54792284405053,169.74868220885344
0.9342676009342676,1.6156880142798464,0.6661034119305862,190.4008815470084,173.09533107033917,162.32608032544974,213.1110233845905,184.5806474730826,169.96293502763524
0.9676343009676344,1.5626971487488774,0.6592655618975486,190.7003510997316,173.2123150687544,162.2427048575624,212.8621770799957,184.6104941907839,170.18722815193377
1.001001001001001,1.5626971487488774,0.6531782340232628,190.52137829332665,173.36801358142904,162.1403850254873,212.61344520398004,184.63073563262893,170.43600449315238
1.0343677010343677,1.5626971487488774,0.6485560243960513,190.4304970336378,173.528021514516,162.04362136390398,212.37502943153825,184.65158941229384,170.67097378005585
1.0677344010677343,1.5626971487488774,0.6686770140727629,189.35102610778208,173.55681047007147,161.94796316687393,212.1596044896077,184.6755371345145,170.8907032087896
1.1011011011011012,1.5626971487488774,0.6869891572037992,188.4878557489552,173.5860069545268,161.87876382264548,211.95649302000788,184.7117774818772,171.127206642254
1.1344678011344678,1.5626971487488774,0.6927948163648693,189.0188212176263,173.46464091113904,161.81870313800658,211.77053429154543,184.7553285040441,171.3497583290203
1.1678345011678346,1.5626971487488774,0.6846946502788019,190.45676823677096,173.40375992627295,161.79344676931814,211.6085081492448,184.7983043425129,171.54439557308478
1.2012012012012012,1.5626971487488774,0.6036627024512121,191.8141279245736,173.4217273291777,161.8363115648887,211.5303799056251,184.83327952526568,171.65451944660492
1.234567901234568,1.5626971487488774,0.5339015838281701,193.2238347347331,173.52971919488115,161.92066620721204,211.48952675046965,184.87290479475743,171.7181581702464
1.267934601267935,1.5626971487488774,0.5352107345209766,194.31851553093,173.5132624732028,162.02080108841554,211.4561028507655,184.91469506021784,171.76065963517658
1.3013013013013013,1.5626971487488774,0.6016141140998277,195.54722659796616,173.65658163332373,162.1450105391082,211.4312720867575,184.94487424308988,171.78368274688077
1.334668001334668,1.5626971487488774,0.5559035447115581,196.9730588528556,173.9240878632716,162.29646194558637,211.44064346824376,184.95785397306608,171.77347248755152
1.3680347013680347,1.5626971487488774,0.5314382907500084,198.46096549782268,174.3282925029029,162.5002220849092,211.48229173078136,184.95967003187508,171.7285841283425
1.4014014014014016,1.5626971487488774,0.5768704185624054,199.71655268246948,174.61940974866928,162.68594566985587,211.5364191900132,184.9713155602144,171.66188408086362
1.4347681014347682,1.5626971487488774,0.6974906923374719,200.9775595693156,175.05542155771766,162.8724697995238,211.5844692560705,184.98743752799652,171.59578354069467
1.4681348014681348,1.5626971487488774,0.6974906923374719,201.8981456369817,175.2884818545961,163.0915794970589,211.65006907616612,184.9868427859041,171.52961346299435
1.5015015015015016,1.5626971487488774,0.6974906923374719,202.8599742395284,175.67957998413368,163.33060820336075,211.72631846873244,184.9711916617757,171.4431317437546
1.5348682015348682,1.5626971487488774,0.8731728080303021,203.3457554440945,176.48217937604133,163.56147709945049,211.80276962923847,184.9535617590566,171.344301207888
1.5682349015682349,1.5626971487488774,0.8731728080303021,203.82497302616704,177.50821899305217,163.84632687435953,211.88748198659,184.91091023296005,171.21346974783455
1.6016016016016017,1.588797691628072,0.8731728080303021,203.94682638264268,178.4782614127267,164.20168338184104,211.9890231408184,184.83724275394883,171.03961109223576
1.6349683016349683,1.6286720437532949,0.8731728080303021,204.4960766406122,179.56119517076866,164.60143965445766,212.07713724396305,184.7433187889226,170.84185625979387
1.6683350016683351,1.6286720437532949,0.8731728080303021,205.45489120337524,180.57985910667185,165.0274581125039,212.1586793473741,184.6328355719152,170.6206500725673
1.7017017017017018,1.722213910883773,0.8731728080303021,206.5419728046122,181.65190164140503,165.47526455054455,212.25314183642865,184.49589115764005,170.37574530192032
1.7350684017350684,1.722213910883773,1.1185782777435715,209.3642343207157,182.5871311069748,165.90916472468203,212.39999302436004,184.3153288588649,170.10561245176376
1.7684351017684352,1.722213910883773,1.1185782777435715,212.03669782442483,183.6767615156035,166.31239120928186,212.49832080262155,184.1299945097888,169.93976061013788
1.8018018018018016,1.722213910883773,1.1185782777435715,214.2706012862809,184.7038274312837,166.64826985024584,212.5579669731573,183.9373358519188,169.81468409728694
1.8351685018351689,1.722213910883773,1.1185782777435715,216.30183837498492,185.87483056231005,167.05163784291122,212.5857426466695,183.7326754134984,169.70113716122594
1.8685352018685355,2.066385048370748,1.1185782777435715,217.5980369559288,187.10433964248728,167.49850820538842,212.5601661180953,183.52224441323185,169.60109809748894
1.901901901901902,2.012264283934268,1.1185782777435715,218.45996693588697,188.5376267738141,167.95269708121953,212.4775101829104,183.31906742735012,169.5270316698145
1.9352686019352687,2.012264283934268,1.1185782777435715,219.1028547767416,189.9018184995984,168.38705164947874,212.33960552598955,183.12107313584949,169.4822619103855
1.968635301968636,2.012264283934268,1.3386057941152756,219.63277881833804,191.37191193724604,168.84756180307355,212.17722888879376,182.9117679810368,169.46278969596406
2.002002002002002,2.012264283934268,1.3386057941152756,219.43118103912008,192.96244832788847,169.2926595028504,211.9867713366231,182.69202069451083,169.47214767341717
2.035368702035369,2.012264283934268,1.3386057941152756,218.8665494584832,194.50935628606217,169.7848183055327,211.7894547971925,182.4663911396495,169.4961507091658
2.0687354020687354,2.0860129800095653,1.3386057941152756,218.0696580187344,196.0003334814156,170.31693536043494,211.5868281111901,182.24841917120648,169.5210059886883
2.1021021021021022,2.0860129800095653,1.3386057941152756,216.80281472888825,197.43884799444533,170.86918878773565,211.41485878171625,182.0442778925615,169.52911812687182
2.135468802135469,2.0860129800095653,1.3386057941152756,215.130644200266,198.7437826243064,171.409707493533,211.2688002058716,181.873052434535,169.54511248092132
2.1688355021688355,2.0860129800095653,1.3386057941152756,213.75021943816284,200.0107607854603,171.97812658292142,211.15159636006484,181.7199802975824,169.54452117840492
2.2022022022022023,2.279178745438804,1.3386057941152756,212.5745266618085,205.66260262268952,172.56835338832238,211.05836798621505,181.5797406115217,169.55078944195003
2.235568902235569,2.279178745438804,1.6370618283966916,212.7015592283468,210.41084128357,173.18476140223413,210.9691984824707,181.43960475712367,169.56862627040056
2.2689356022689355,2.279178745438804,1.6370618283966916,215.00567561251265,211.0111608890585,173.79965393856295,210.9088980765183,181.2946395487461,169.54357581696078
2.3023023023023024,2.279178745438804,1.6370618283966916,215.95095820949663,210.87749118337044,174.39987159468944,210.89270919498009,181.14211002709231,169.4906913574318
2.335669002335669,2.279178745438804,1.6370618283966916,215.46851951911432,209.88450011919,174.90490327634603,210.9360641215817,180.9967335855092,169.4390583725734
2.369035702369036,2.279178745438804,1.6370618283966916,214.45025735281448,208.22767283338723,175.37075796330296,210.9240819049968,180.87246035421649,169.43428168834683
2.4024024024024024,2.279178745438804,1.6370618283966916,212.5527007289003,206.4306828006737,175.78933564630535,210.85558766922588,180.74974347613264,169.4554768208048
2.4357691024357693,2.5597272263045285,1.6370618283966916,209.1664912414258,204.85290663510585,176.18648544235435,210.7632589471108,180.6418249527958,169.47957459820051
2.469135802469136,2.5597272263045285,1.6370618283966916,207.24689228946104,203.52404417017905,176.58561246148787,210.66011279030343,180.55423795796972,169.5083367743416
2.5025025025025025,2.5597272263045285,1.6370618283966916,204.66435367945127,201.53323839244104,176.96441101694822,210.52588111422847,180.477462426218,169.55828306773304
2.5358692025358693,2.5597272263045285,1.9514010293995527,201.47827196535323,199.1222468036645,177.3191613859003,210.3494456502571,180.4006907015475,169.63242788843226
2.569235902569236,2.5597272263045285,1.9514010293995527,198.10277359208183,196.5311813851596,177.7165439865945,210.1670672893452,180.29293772052017,169.71171652436104
2.6026026026026026,2.5597272263045285,1.9514010293995527,194.56074939756417,194.03033383199548,178.14013915118207,209.96772972136728,180.1505010910894,169.7908672128539
2.6359693026359694,2.5597272263045285,1.9514010293995527,191.0965441168826,191.6073527349772,178.5676350869307,209.75630448144915,179.99107976075504,169.86473298310798
2.669336002669336,2.5597272263045285,1.9514010293995527,187.1793459760769,189.3554834386736,178.97966208343675,209.5281440522511,179.81767044433604,169.9509256202003
2.702702702702702,2.5597272263045285,1.9514010293995527,183.79359788881217,186.5255564280367,179.41043810497095,209.3057512732412,179.6034982525996,170.0191276144854
2.736069402736069,2.5597272263045285,1.9514010293995527,180.70169031667623,183.26752707934943,179.8224925372251,209.1274556030725,179.36097009072074,170.05257606387792
2.7694361027694363,2.95929807591295,1.9514010293995527,178.56702529837256,180.0114051403668,180.1965128471339,209.0041250458732,179.08983067095866,170.05501515339833
2.802802802802803,2.95929807591295,1.9514010293995527,177.26036119176396,176.28188784412362,180.5495471567104,208.9191833103263,178.789279470977,170.03682150942348
2.836169502836169,2.95929807591295,1.9514010293995527,176.69492728603203,172.5160077648679,180.90289105603432,208.9223105989506,178.45565514660854,169.98032343001904
2.8695362028695364,2.95929807591295,1.9514010293995527,176.46072665568207,169.1388142655975,181.23792303043308,208.98787373002293,178.11541006899827,169.87560867324223
2.902902902902903,2.95929807591295,2.345231652581016,174.43956732705092,165.76782785637056,181.6146832529953,209.0566671189632,177.77518996358913,169.7275359364894
2.9362696029362696,2.95929807591295,2.345231652581016,172.41769678652508,162.77491640000366,181.977696718338,209.1684258670408,177.4249151912259,169.5571773391464
2.9696363029696364,2.95929807591295,2.345231652581016,170.1629392779312,159.92981914229048,182.3971366469732,209.32002125783487,177.06526986890435,169.35155442058945
3.003003003003004,2.95929807591295,2.345231652581016,167.3991322296251,156.62244046999993,182.8131025845437,209.46576457095543,176.71831522484143,169.10756276425644
3.0363697030363697,2.95929807591295,2.345231652581016,164.6940164001229,153.21509899659347,183.1916415080412,209.6286544563576,176.38455835987023,168.83118603507518
3.0697364030697365,2.95929807591295,2.345231652581016,161.93929257813392,150.5053854567957,183.5533698548172,209.7982911457821,176.0607265509159,168.52928607277713
3.103103103103104,2.95929807591295,2.345231652581016,159.26140944219654,148.58343699501958,183.90866961121145,209.9919203210185,175.7452163968365,168.22100926022958
3.1364698031364697,2.95929807591295,2.345231652581016,157.17565257185484,145.00444593945343,184.23833432110803,210.210841128326,175.4416947809172,167.91076812195192
3.169836503169837,2.95929807591295,2.345231652581016,154.97441523195985,142.4949080274402,184.57915166348016,210.45940458437727,175.1514150299116,167.58947875805322
3.2032032032032034,3.4290730261259297,2.345231652581016,153.03479865061,140.59383679413116,184.8760231701044,210.7418817638273,174.87916587113773,167.26074114264426
3.2365699032365702,3.4290730261259297,2.345231652581016,151.12027494990647,139.83300402898314,185.1390700507695,211.0645444277332,174.6173878531551,166.92083834096732
3.2699366032699366,3.4290730261259297,2.345231652581016,149.09777871754287,142.57517604208817,185.3548377637804,211.4298106035732,174.37519655439547,166.5516433184364
3.3033033033033035,3.4290730261259297,2.345231652581016,147.2410947457437,144.76696431661725,185.54076913866444,211.80939426254383,174.12094914976336,166.18774309864918
3.3366700033366703,3.4290730261259297,2.8455046970915863,146.05653347498722,147.29372429199867,185.66295261336128,212.19591730090733,173.8683588570291,165.85770071257355
3.3700367033700367,3.4290730261259297,2.8455046970915863,145.05400067485743,144.4733148397093,185.7112039970744,212.57190353667204,173.61706719573235,165.5716450106466
3.4034034034034035,3.4290730261259297,2.8455046970915863,144.54935131140306,140.70249400701735,185.6727852825481,212.89367998758232,173.38530057731296,165.36132214562545
3.4367701034367704,3.4290730261259297,2.8455046970915863,142.31941166058402,140.5379010587377,185.56893147069204,213.1892200422348,173.17147350793218,165.20481703916667
3.4701368034701368,3.4290730261259297,2.8455046970915863,140.10583608668276,138.28210147280225,185.43016795467568,213.44105976903865,172.9854583198993,165.09166395595722
3.503503503503504,3.4290730261259297,2.8455046970915863,138.27876361434238,134.4908066402531,185.3305959926221,213.6772072942023,172.8253402265779,164.95448139514943
3.5368702035368704,3.4290730261259297,2.8455046970915863,136.36884262107986,131.97868531628595,185.22713492643368,213.881021286779,172.68344223241735,164.81417857811036
3.5702369035702373,3.4290730261259297,2.8455046970915863,134.4887148092314,130.2775961533783,185.1446552975881,214.0703957689306,172.56241298893968,164.68769071657007
3.603603603603604,3.751968369480036,2.8455046970915863,134.57064068346526,129.16354643390804,185.09812370418047,214.24511282030048,172.4316711796982,164.5719413436329
3.6369703036369705,3.751968369480036,2.8455046970915863,133.00960414558867,127.9353054583032,185.06455433825,214.38276192265536,172.28149718542662,164.49025380310354
3.670337003670337,3.751968369480036,2.8455046970915863,130.92963867982073,127.85710731651976,185.03435836987865,214.47964653463995,172.120601599084,164.44593674521005
3.703703703703704,3.751968369480036,2.8455046970915863,128.6839052822206,128.4234682271589,185.0137162213163,214.5515583218217,171.95038018829578,164.42117120283015
3.737070403737071,3.751968369480036,2.8455046970915863,125.90862836674005,129.8655251781703,184.9632997075058,214.5979766181476,171.7965107459625,164.36240371178906
3.770437103770437,3.751968369480036,2.8455046970915863,122.64311363994148,132.0724123784513,184.9275355555217,214.64361007731395,171.6389856859099,164.32487891589983
3.803803803803804,3.751968369480036,2.8455046970915863,118.28660070126578,136.13456371696537,184.85079267694613,214.7004949975571,171.48958032540835,164.3671107157842
3.8371705038371706,3.751968369480036,2.8455046970915863,114.97682502227543,139.03536488082702,184.7836923127523,214.7589617057186,171.33465059028842,164.43450190979615
3.8705372038705375,3.751968369480036,2.8455046970915863,112.7388300681068,141.846905853948,184.7245187697784,214.84056619179336,171.18677693224654,164.4700205216022
3.903903903903904,3.751968369480036,3.4287124686425203,110.8887723090976,144.39629235763218,184.7197007443465,214.96997381157507,171.04685361420368,164.42432141670062
