Time,Left Shoulder Angle,Right Shoulder Angle,Left Elbow Angle,Right Elbow Angle,Left Hip Angle,Right Hip Angle,Left Knee Angle,Right Knee Angle
0.0,9.670667331295668,33.93549608155919,138.9798997593845,161.26686920384898,125.85052761601158,131.9440795240027,202.0579061551228,192.23159937883963
0.0333667000333667,8.139687185975676,34.194411999120426,136.63635306379416,161.9974334418589,126.45822025224348,132.9274115520933,200.59420322466107,191.16053936993185
0.0667334000667334,6.746561342023385,34.42016426740492,134.4850561651781,162.59404082577726,126.91615898127657,133.7697037733853,199.3473782503219,190.2114016043452
0.1001001001001001,5.492002246447804,34.61614498090862,132.52543866153766,163.06500999781943,127.23671995286978,134.47789434599918,198.3035613321877,189.37818116329325
0.1334668001334668,4.376722346257936,34.78574623412748,130.75693015087424,163.41865960020075,127.43227931678216,135.05892142805556,197.44888257034108,188.65487312798965
0.1668335001668335,3.40143408846279,34.932360121557466,129.1789602311892,163.6633082751366,127.51521322277274,135.51972317767493,196.7694720648645,188.035472579648
0.2002002002002002,2.566849920071374,35.05937873769452,127.79095850048384,163.80727466484228,127.49789782060051,135.8672377529778,196.25145991584043,187.51397459948183
0.2335669002335669,1.873682288092692,35.1701941770346,126.5923545567596,163.85887741153317,127.39270926002447,136.1084033120848,195.88097622335147,187.0843742687049
0.2669336002669336,1.3226436395357517,35.26819853407368,125.5825779980178,163.8264351574246,127.21202369080368,136.2501580131164,195.6441510874801,186.74066666853065
0.3003003003003003,0.9144464214095632,35.35678390330769,124.76105842225982,163.71826654473196,126.96821726269712,136.29944001419312,195.5271146083088,186.4768468801727
0.333667000333667,0.6498030807231299,35.4393423792326,124.127225427487,163.54269021567055,126.6736661254638,136.26318747343555,195.5159968859201,186.2869099848447
0.3670337003670337,0.5294260644854578,35.519266056344364,123.68050861170072,163.30802481245576,126.34074642886276,136.1483385489642,195.5969280203966,186.16485106376027
0.4004004004004004,0.5294260644854578,35.59994702913894,123.42033757290235,163.0225889773029,125.98183432265296,135.96183139889962,195.7560381118207,186.1046651981329
0.4337671004337671,0.5294260644854578,35.684777392112274,123.34614190909323,162.69470135242733,125.60930595659346,135.71060418136233,195.97945726027496,186.1003474691764
0.4671338004671338,0.5294260644854578,35.777149239760334,123.45735121827474,162.33268058004444,125.23553748044324,135.4015950544729,196.25331556584183,186.14589295810416
0.5005005005005005,0.5294260644854578,35.88045466657907,123.75339509844822,161.94484530236952,124.87290504396134,135.04174217635182,196.563743128604,186.23529674612985
0.5338672005338673,0.5294260644854578,35.99808576706444,124.23370314761506,161.53951416161797,124.53378479690676,134.63798370511967,196.89687004864373,186.3625539144671
0.5672339005672339,0.5540278197055564,36.13343463571268,124.89770496377764,161.12500580000645,124.23055288903949,134.197257798898,197.23882642604545,186.52165954433087
0.6006006006006006,0.5540278197055564,36.40633110839663,125.85888736467813,160.75933871044433,124.11237956435582,133.6096144465963,197.4319730189592,186.7577152891161
0.6339673006339673,0.5540278197055564,36.76109410004391,127.08114522051387,160.4962187333629,124.13902642574357,132.98575871147756,197.56907620957008,186.99437283127867
0.6673340006673341,0.7243207933924332,37.13874789208995,128.56287445582845,160.29005585128618,124.15941831473276,132.41024419534534,197.6991834723416,187.23429771514296
0.7007007007007008,0.7243207933924332,37.48200168083192,130.2693876720266,160.04154347951905,124.3335664462113,131.8660799035999,197.80469327067152,187.4979332200638
0.7340674007340674,0.7243207933924332,37.96797593242059,132.21866295221562,160.13042142870998,124.6705849774206,131.36903665414366,197.80531206226087,187.7121238807765
0.7674341007674341,0.7243207933924332,38.4599790714022,134.44321615190518,160.27562432180406,125.13251516414935,130.91479360631075,197.7731324051909,187.88193036374287
0.8008008008008008,0.7243207933924332,39.056216511500814,136.7637116050066,160.6836594530749,125.63856510118644,130.49450451576473,197.6732043739377,188.0266935420672
0.8341675008341676,0.7243207933924332,39.64386713642666,139.50111368859416,161.07865491193067,126.2022843584222,130.1432477284398,197.4941120472576,188.1228128119237
0.8675342008675342,0.7243207933924332,40.24168201778516,142.4246358092245,161.475351001584,126.7995470296397,129.85294167063452,197.26680697809417,188.20957771779985
0.9009009009009008,1.0410174325550905,40.74218988310008,144.79323871300002,161.60867254243166,127.45809397878548,129.59887870292158,196.977655526758,188.28242347534373
0.9342676009342676,1.0410174325550905,41.32418487821536,146.96061647944538,161.8103203040612,128.17798534489432,129.38783720603027,196.6397944483012,188.3276068027716
0.9676343009676344,1.0410174325550905,41.75919555813926,149.14626181465,161.6498624887665,128.9575456554953,129.26515433071398,196.23154835471635,188.2672113988959
1.001001001001001,1.0410174325550905,42.12141844203402,151.40630070998745,161.20303114459304,129.82034955441463,129.15707268994365,195.7266355487328,188.16587022485783
1.0343677010343677,1.0410174325550905,42.29040673887357,153.64751289882503,160.4380818758245,130.7340797703511,129.1058748079637,195.161706163974,188.0386211589235
1.0677344010677343,1.0410174325550905,42.35707348911006,156.02270300303408,159.44253727448958,131.66292984698325,129.11574631764958,194.51501007618697,187.8978894497065
1.1011011011011012,1.0410174325550905,42.19031999872382,158.8341520753269,158.18084390579003,132.6031579620475,129.23891136628862,193.828853601916,187.71898350845177
1.1344678011344678,1.0410174325550905,41.932100841431215,161.68987946727916,157.11359547531063,133.54264334438588,129.45431291693933,193.08556279407225,187.4991253089485
1.1678345011678346,1.0410174325550905,41.40467715850433,165.02337367610593,155.80216304212146,134.40287372859373,129.75466838235337,192.4149581410478,187.24514592191576
1.2012012012012012,1.0410174325550905,40.73007981606308,168.2170153234125,154.4024168641374,135.1839194480623,130.10299357258492,191.7920119927656,186.969718265978
1.234567901234568,1.0410174325550905,39.85257583639008,171.028756143557,152.74328498231003,135.9329033486037,130.52435811930704,191.1834213970615,186.6966315291312
1.267934601267935,1.0410174325550905,38.78454918988568,173.43430723239098,150.82645263964324,136.62952067198455,131.00372132035287,190.6197044483021,186.43445185854063
1.3013013013013013,1.5048301842025378,37.53064794144027,174.86637997189658,148.6026382958416,137.23880051212123,131.49373656261417,190.1186484181598,186.19901889143685
1.334668001334668,1.5048301842025378,36.35804770898224,181.35780389677524,146.63671343898255,137.7623168810891,131.96725293536767,189.65638966934048,185.9562838700085
1.3680347013680347,1.5048301842025378,35.12126786993614,186.4603716900353,144.59488431685315,138.14311634975263,132.4644427596231,189.28844145885807,185.7372537557944
1.4014014014014016,1.5048301842025378,33.72928211768047,190.53740378122407,142.5347263855649,138.3197341923431,133.0149689927624,188.9266728165761,185.55440992207733
1.4347681014347682,1.5048301842025378,31.97935874716542,193.6781175281816,139.80229802676357,138.3416985475273,133.63228852406434,188.7605688219413,185.3917834824662
1.4681348014681348,1.5048301842025378,30.13189455225633,195.8286334969887,137.21740134514457,138.1984409705672,134.2844377439687,188.76946620570536,185.2237182073765
1.5015015015015016,1.5048301842025378,28.144999612475043,192.43151608707163,134.21843204868895,137.89605600501608,134.9044143718003,188.96732020776523,185.0484025425822
1.5348682015348682,1.5048301842025378,25.94691930987425,187.7957781230568,131.15133001546286,137.44032156633511,135.5034757870239,189.2556089234633,184.8759191778784
1.5682349015682349,1.5048301842025378,23.679991525974952,183.1354054929104,127.6567921547395,136.86072321434187,136.09814871727178,189.6262818824736,184.7200014895824
1.6016016016016017,1.5048301842025378,21.290226693039507,179.71900576761752,124.0075203679788,136.12371835407416,136.6717528406707,190.13393445007208,184.5857024000197
1.6349683016349683,1.5048301842025378,19.073545071546743,175.62742638006847,120.14235622043276,135.6885546634461,137.11988637553657,190.52288957768607,184.56561621265345
1.6683350016683351,1.5048301842025378,16.83940599440816,169.6378669452042,116.45756123285616,135.2819470566531,137.47288563055807,190.90907892762624,184.57883301639737
1.7017017017017018,1.5048301842025378,14.777833468337546,163.97614173201043,112.62546954109207,134.90116992399751,137.8399780348901,191.29881130474223,184.58345797926708
1.7350684017350684,1.5048301842025378,12.8591761452644,159.41080140517926,109.32933872443706,134.56799914335463,138.17015498016508,191.74998361502395,184.57171772792896
1.7684351017684352,1.5048301842025378,11.186427686961698,154.36040991771978,105.7671371513537,134.2179690515235,138.47341377000964,192.2559640627825,184.57460853544492
1.8018018018018016,1.5048301842025378,9.773208439405265,149.91332869568754,102.29030085553734,133.86313628809577,138.72519016860278,192.8624357917937,184.6153637088202
1.8351685018351689,2.116471495343788,8.707371555678025,144.18973796126116,98.61874626744152,133.61782579470693,138.96630536619156,193.46745626926312,184.62412312474137
1.8685352018685355,2.116471495343788,7.915735623116166,137.09130717440723,95.07976665462616,133.4092164102677,139.21090309583556,194.05731830463176,184.5674489051557
1.901901901901902,2.116471495343788,7.348778337530788,129.61705768256635,91.118586732887,133.2171684874442,139.47076264954498,194.65147459997087,184.50921372968995
1.9352686019352687,2.116471495343788,6.955140243271439,121.99682759644782,87.18534477000247,133.0604269666991,139.77603822193282,195.21461599703585,184.4423630387824
1.968635301968636,2.116471495343788,6.748330648234364,114.49760611935446,82.6016687574799,132.92308879828562,140.1283244580869,195.74905162396809,184.36759474484532
2.002002002002002,2.116471495343788,6.71786795972242,108.03112914575422,77.61284504609544,132.74888850881484,140.47233542020615,196.14698822070787,184.2960384884484
2.035368702035369,2.116471495343788,6.964322593909837,102.3471020525606,72.3672758075169,132.6344455724226,140.81086142156764,196.4530052338308,184.19658561996243
2.0687354020687354,2.116471495343788,7.52158677059263,96.54378930975804,66.98727574970937,132.55338916152508,141.1371643349344,196.7493069442328,184.07565397024632
2.1021021021021022,2.116471495343788,8.22465770012271,90.83044023567513,61.35001535040285,132.52624211297058,141.46535960311525,197.00845705538944,183.94663118001964
2.135468802135469,2.116471495343788,9.129031910335891,84.8219464889732,55.68912877035007,132.53915871617363,141.74937042680662,197.2455196678859,183.8427081537164
2.1688355021688355,2.116471495343788,10.178847440141428,78.74407793976609,50.07077249550704,132.53000182924123,142.04402565235344,197.49996898559647,183.7492312177121
2.2022022022022023,2.116471495343788,11.361833922756537,71.61814688080547,44.62134971554318,132.51183883320314,142.32834297098017,197.77688045792704,183.6660609696737
2.235568902235569,2.116471495343788,12.67862657025135,65.31374321153513,39.48395582605362,132.51315033023943,142.62714231639256,198.0228730961285,183.57133147493104
2.2689356022689355,2.116471495343788,14.274344002757932,59.89827107666508,34.84655646225752,132.52138881881783,142.88430128599165,198.217861809636,183.48879553828635
2.3023023023023024,2.116471495343788,16.02926158249228,55.68089993320842,30.259217047698428,132.56491281744417,143.11234038149414,198.35704717008795,183.44411633006635
2.335669002335669,2.116471495343788,18.03661780611693,52.56730024641909,26.147474196705737,132.6275569599823,143.2990350698141,198.44873309281803,183.4270235662518
2.369035702369036,2.116471495343788,20.178719875056927,51.56879848989773,22.427757690892143,132.66398803685507,143.48230178451988,198.55280072444552,183.42841005136088
2.4024024024024024,2.116471495343788,22.482738402542537,52.85436845276359,19.27435976283238,132.67446078303044,143.63753734493386,198.6689322010105,183.4433658892557
2.4357691024357693,2.116471495343788,24.93462185152004,56.83804949363887,16.804762141452215,132.62522951612132,143.7882020838699,198.8047998440624,183.44414682939268
2.469135802469136,2.116471495343788,27.53337368594692,63.40902679845614,15.118649335503791,132.51703910532345,143.93008466360854,198.9613115017111,183.4333847604455
2.5025025025025025,2.876653812987802,29.927202293003912,65.63730658721342,13.630067479391656,132.29412069207555,144.11337585018717,199.1707771535739,183.44633991740224
2.5358692025358693,2.876653812987802,32.20406045002794,68.45541105317777,12.627512684625556,132.00481147971482,144.29686616482417,199.39326838008623,183.46836055300457
2.569235902569236,2.876653812987802,34.318430962855885,71.42182445612795,11.78702077088095,131.70298475676108,144.45999970825378,199.80203327147703,183.45957726510284
2.6026026026026026,2.876653812987802,36.27325147756456,73.88296430933858,11.447865622993657,131.38359585739423,144.59843439158035,200.1971172269176,183.4389692137971
2.6359693026359694,2.876653812987802,38.01914407299108,75.42923174312656,11.150939356027392,131.04896864779047,144.70532900941947,200.56553819256,183.42406069582708
2.669336002669336,2.876653812987802,39.53365909204082,81.22905061944755,11.257755047066604,130.71462343985607,144.8023440921186,200.8818239005231,183.402312394319
2.702702702702702,2.876653812987802,40.979242242438,88.50683040511868,11.477661895846351,130.3930426691185,144.87625761104445,201.2322596515805,183.3631275089737
2.736069402736069,2.876653812987802,42.27155410647065,96.79130702117418,12.13382719875726,130.06063084811134,144.92035725214052,201.6242161351694,183.3026200622829
2.7694361027694363,2.876653812987802,43.45670590983633,103.76502494242207,12.918112672911716,129.74371852147752,144.9401873409502,202.01825678656115,183.22017812167667
2.802802802802803,2.876653812987802,44.533856051444594,110.74576549241452,14.23060333979328,129.42182409261483,144.97807347342828,202.3777408441207,183.04367172829944
2.836169502836169,2.876653812987802,45.60940041208409,119.13231719795286,15.51225350462244,129.09911371444488,145.02335072376175,202.76396513505577,182.84506998553405
2.8695362028695364,2.876653812987802,46.68193165632134,127.89252421190103,17.19181201777078,128.86290322369462,145.0402896642431,203.194022055876,182.6584294495551
2.902902902902903,2.876653812987802,47.63733208095576,135.24766619400657,18.388701910193543,128.57389867222952,145.0488389633759,203.6341200108713,182.52243593664025
2.9362696029362696,2.876653812987802,48.59851533774266,142.1389337943293,19.78833346245249,128.22266106631108,145.0289063473204,204.139082833063,182.4340710031593
2.9696363029696364,2.876653812987802,49.287104813833565,147.0836791222751,20.841373992523447,127.8209858649543,144.99911540565552,204.5930595424286,182.38496137466365
3.003003003003004,2.876653812987802,49.72823213492282,152.1417504987076,22.04425856212582,127.45969609507368,145.0258223695373,204.91966967675333,182.31567588977265
3.0363697030363697,2.876653812987802,49.88628975179878,157.74559775927943,22.74671469719128,127.10226582850896,145.06655171313545,205.13617736492657,182.28230221929863
3.0697364030697365,2.876653812987802,49.81479205147689,165.5154498637114,22.03283791781436,126.56508492845585,144.96900677211605,205.35037291979407,182.34135958926768
3.103103103103104,2.876653812987802,49.501286117664925,173.28616710417262,20.6409439513227,125.97768077775858,144.83268162054767,205.5077264866616,182.443136483344
3.1364698031364697,2.876653812987802,48.868699903291024,178.7169000748858,19.25562200881341,125.24596436923656,144.64921404051424,205.69115664925,182.67392121311985
3.169836503169837,2.876653812987802,48.009520220599896,181.33351928503595,18.28970428519433,124.61983347368432,144.44933904172134,205.90532764245245,182.95041677295504
3.2032032032032034,2.876653812987802,47.268771489197846,181.39850091914704,16.97418138572369,124.20171840459886,144.3427501182252,206.1339409642601,183.1583602177376
3.2365699032365702,2.876653812987802,46.25646929129064,180.7982630053197,16.170053305007947,123.95059673856564,144.21662109619953,206.1384222575602,183.39138785419857
3.2699366032699366,3.622820142904458,44.66184772412223,171.04823044597487,15.275116168677249,123.70591664966804,144.31628793343043,206.1919329984624,183.4323685072805
3.3033033033033035,3.622820142904458,42.84815348880733,161.43245342609208,14.979801134157956,123.55212519566123,144.39158940671356,206.128140094676,183.4719388270774
3.3366700033366703,3.622820142904458,40.69085863429419,153.57321533476792,14.349879360319202,123.49444750461488,144.51767031175476,205.9194703683055,183.5956808952
3.3700367033700367,3.622820142904458,38.535437533278376,147.48898529155483,14.460490371794576,123.55146384717568,144.48616153859243,205.56553580491703,183.8396523212632
3.4034034034034035,3.622820142904458,36.20608235778216,142.55631620887135,15.10857689722564,123.84807570884487,144.265440938466,204.8573089176508,184.1400893430869
3.4367701034367704,3.622820142904458,33.84626731025371,138.11802699524773,16.46331718053443,124.26577756625784,143.78204041333197,204.0397720974008,184.67108289169252
3.4701368034701368,3.622820142904458,31.257736048904,134.32119189920851,18.059261406564183,124.70918454325096,143.22112276698104,203.18708475380063,185.1398969031002
3.503503503503504,3.622820142904458,28.79929950814484,131.6187692279371,20.33391344259424,125.23159849729096,142.52581299258006,202.26623011223103,185.66046576699367
3.5368702035368704,3.622820142904458,26.33387599371177,129.77747600289825,22.93918269833456,125.99077874138813,141.7344088135281,201.33705600280533,186.302201155227
3.5702369035702373,3.622820142904458,24.025356596924382,128.80913558495087,26.093435328354246,126.65101373318916,140.81401416480662,200.6559803006013,187.0664271194367
3.603603603603604,3.622820142904458,21.71697388502239,129.4842343413556,29.57630291943473,127.28559560809704,139.79107940791778,200.1178425200764,187.92686107615123
3.6369703036369705,3.622820142904458,19.68128278709764,130.53486113558753,33.61074423911987,127.7964185188294,138.6442092736279,199.8025457964624,188.87930334899147
3.670337003670337,3.622820142904458,18.28362204588037,132.04142207568563,38.6682550052312,128.21442685299104,137.4654274542016,199.577867451028,189.82484776842355
3.703703703703704,3.622820142904458,17.121867984248013,133.62883884042265,44.05546500569052,128.5223351599871,136.2033840600917,199.4780114009176,190.87187912272816
3.737070403737071,3.622820142904458,15.80867707680244,136.18949342587706,49.73053112116532,128.71335031581705,134.87815187107404,199.5148703631348,192.0543255362374
3.770437103770437,3.622820142904458,14.70572704009358,138.30655638842896,55.22559913478331,128.8056899971811,133.51550880605905,199.64001201502853,193.31668795823217
3.803803803803804,3.622820142904458,13.560032759702208,139.96976958992687,61.53626363852485,128.8571341565847,132.21223074468847,199.889079188963,194.7068922902584
3.8371705038371706,3.622820142904458,12.976096119253684,141.4426269294417,68.75588743629898,128.8419635208965,130.88664897353726,200.1857225919408,196.13313750216383
3.8705372038705375,3.622820142904458,13.421819752736386,143.10269671049429,77.77742278999327,128.7547343190395,129.5456135044979,200.50719091704656,197.63919092931164
3.903903903903904,3.622820142904458,14.284279070014636,144.66376692767295,85.04972845701609,128.60697908432715,128.18691546619394,200.82621809120045,199.10063711406468
3.937270603937271,3.622820142904458,15.735978312982182,145.17715735814403,90.70701511902966,128.32135656929242,126.85389284242312,201.24062263155167,200.4495693439404
