Time,Left Shoulder Angle,Right Shoulder Angle,Left Elbow Angle,Right Elbow Angle,Left Hip Angle,Right Hip Angle,Left Knee Angle,Right Knee Angle
0.0,28.145984262878407,44.12722319905937,164.8459290360286,167.57922506124157,132.55985060926972,136.85289370073886,207.50949713791107,211.58104387215823
0.0333667000333667,28.41953954011023,43.8645425410474,166.0191522027597,167.42681469156244,132.92422451086736,137.53001941971073,207.1637916971701,211.0729658331224
0.0667334000667334,28.660002373079088,43.61907004000693,167.0454610884965,167.27891444218773,133.2430053499015,138.1138211126459,206.84002606987343,210.62907513872048
0.1001001001001001,28.869839473620505,43.38984399578801,167.9335426086463,167.13500689326776,133.51798339976355,138.60983639989126,206.5377393400996,210.24609206748923
0.1334668001334668,29.051517553570005,43.17590270824068,168.69208367861637,166.9945746249529,133.750948933845,139.02360290179368,206.25647059192696,209.92073689796507
0.1668335001668335,29.207503324763103,42.97628447721496,169.3297712138141,166.85710021739348,133.94369222553723,139.3606582387,205.9957589094343,209.6497299086846
0.2002002002002002,29.34026349903533,42.79002760256091,169.85529212964673,166.72206625073986,134.09800354823167,139.62654003095707,205.7551433767,209.42979137818432
0.2335669002335669,29.4522647882222,42.616170384128566,170.27733334152157,166.58895530514238,134.2156731753198,139.8267858989118,205.53416307780265,209.2576415850008
0.2669336002669336,29.545973904159244,42.45375112176796,170.60458176484596,166.45724996075137,134.298491380193,139.966933462911,205.33235709682072,209.1300008076705
0.3003003003003003,29.623857558681976,42.30180811532912,170.8457243150272,166.32643279771722,134.34824843624276,140.05252034330152,205.1492645178328,209.0435893247301
0.333667000333667,29.68838246362592,42.1593796646621,171.0094479074726,166.19598639619025,134.36673461686044,140.08908416043028,204.9844244249174,208.995127414716
0.3670337003670337,29.7420153308266,42.025504069616936,171.10443945758945,166.0653933363208,134.35574019543753,140.08216253464406,204.83737590215304,208.9813353561649
0.4004004004004004,29.78722287211954,41.89921963004366,171.13938588078506,165.9341361982592,134.31705544536544,140.0372930862898,204.7076580336183,208.9989334276131
0.4337671004337671,29.82647179934025,41.77956464579231,171.12297409246676,165.80169756215585,134.2524706400356,139.9600134357143,204.5948099033916,209.04464190759737
0.4671338004671338,29.86222882432428,41.665577416712935,171.06389100804182,165.66756000816108,134.16377605283944,139.85586120326448,204.4983705955516,209.1151810746541
0.5005005005005005,29.896960658907112,41.55629624265557,170.9708235429176,165.53120611642518,134.0527619571684,139.73037400928715,204.41787919417675,209.20727120732
0.5338672005338673,29.9331340149243,41.45075942347024,170.85245861250138,165.39211846709858,133.9212186264139,139.58908947412917,204.3528747833456,209.31763258413133
0.5672339005672339,29.973215604211585,41.34800525900737,170.7174831322018,165.24977964033292,133.77093633396854,139.43754521813855,204.30289644713827,209.4429854836265
0.6006006006006006,29.922178289745187,41.24377587004967,170.2936938705448,165.09478617092466,133.5905374117931,139.29332643759213,204.28510532067088,209.56401141038384
0.6339673006339673,30.00729694469224,41.15395949338175,170.1754575361597,164.95723882037876,133.3816487487163,139.16412994353604,204.29040147507013,209.71949329604533
0.6673340006673341,30.13298955059205,41.07246155382854,170.1343978790228,164.83626525263648,133.15866399241446,139.06477582241004,204.32080363300813,209.88401836346904
0.7007007007007008,30.26891640299697,40.9804791444707,170.1413773859828,164.66674542283155,132.9483989192895,138.97006827866122,204.3359707234449,210.0744014383793
0.7340674007340674,30.404792727277265,40.87524148294263,170.1693850327904,164.46648194905555,132.7366347401867,138.89331572904982,204.35611152357325,210.26447084018463
0.7674341007674341,30.55473535470012,40.73001604185247,170.24258258659717,164.1877768375786,132.54016117126525,138.83634069846133,204.3631052475488,210.4397894537345
0.8008008008008008,30.730548602697908,40.57536923995757,170.3662401615685,163.91241260270752,132.35409720192737,138.8095714645305,204.3629008037801,210.5914503734922
0.8341675008341676,30.94580624096765,40.39423301456324,170.5345469489332,163.57064767130754,132.18586819860965,138.78621898648709,204.36511880163263,210.72489866874088
0.8675342008675342,31.18458809802152,40.204496229531465,170.7566726666306,163.2341687889588,132.02007416068437,138.80291605494153,204.3708040763686,210.8165798212104
0.9009009009009008,31.4766197936004,40.07347767900963,171.05948301655235,163.00284828196098,131.8653535482285,138.86688878623025,204.3932340698206,210.8507689829781
0.9342676009342676,31.786745134336584,39.96112399440799,171.43878154831157,162.8494901977741,131.73638195561605,139.00777906562564,204.4270468813796,210.82767184962808
0.9676343009676344,32.11518307773084,39.9464586337993,171.75749534354935,162.75502895107192,131.59083186831126,139.19302471387618,204.5512678332053,210.78440732036293
1.001001001001001,32.40790028058998,39.94116286895756,172.0691595478305,162.71811797041065,131.41150348293334,139.43427353156645,204.69856919313395,210.6841388857449
1.0343677010343677,32.676563052980256,39.90469670961446,172.43097104890782,162.7452492526278,131.2317269599404,139.74483694443802,204.80082559473053,210.5212655698264
1.0677344010677343,32.92002835094997,39.793657922813566,172.87664929149665,162.76569621626598,131.0535310462351,140.10607713895715,204.8792788755112,210.3021546748403
1.1011011011011012,33.18900262185594,39.764485627287634,173.4979733722729,162.91267125091022,130.88810706988244,140.62874269388695,204.9173596992338,209.9157488033296
1.1344678011344678,33.42415187105301,39.610464861137416,174.20230460193886,162.93492785551345,130.73052159853322,141.19099053382124,204.9301356382056,209.46277124081507
1.1678345011678346,33.61159365048532,39.44410686944972,174.94287809503493,163.0009152693102,130.57524291633445,141.6132854768561,204.92733221435628,209.13197052107049
1.2012012012012012,33.7369873471259,39.15771614534757,175.71259190300637,162.96290357104365,130.40572657240978,142.00171253459143,204.9103296010095,208.8172892895886
1.234567901234568,33.81847617933307,38.76771589974239,176.23149349698977,162.70500513137563,130.21106071980574,142.33212724764826,204.88422670200868,208.5148775211838
1.267934601267935,33.833093244003024,38.23861474936941,176.75054048424494,162.31497926203355,130.02662245972752,142.67478051579144,204.85469250913167,208.1686908426536
1.3013013013013013,33.92264342266522,37.74052344648655,177.51283740660884,162.0895078004945,129.86625551644403,143.0613020740399,204.83021852654977,207.7487262873001
1.334668001334668,33.97001807034558,37.09663623280573,178.33887316539452,161.7598186216734,129.6683821751352,143.47902163133497,204.85671263260576,207.27461992063127
1.3680347013680347,34.03212907296464,36.40470300039524,179.20549660968624,161.457532196366,129.4403949908252,143.9124631792839,204.9065776180834,206.7666168850826
1.4014014014014016,33.98767287620306,35.59399668580458,180.07590582238632,161.01965980844415,129.16924485545906,144.32937788920776,204.9977076101554,206.24402078687007
1.4347681014347682,33.87883380495378,34.64032060305684,179.8584863097832,160.9616029231227,128.86372466475294,144.72794004180736,205.12805272444268,205.7044672195616
1.4681348014681348,33.624090373917774,33.469869756429944,179.62642510447137,160.41857970293154,128.5118507179373,145.09325920155527,205.3133336439517,205.1600812622158
1.5015015015015016,33.28345280895643,32.350378930269336,179.34246323447158,160.580093791645,128.13867770623605,145.43095503010295,205.51698823255265,204.63151672229944
1.5348682015348682,32.738217604653634,31.11023600357933,179.33585057974724,160.23902191583525,127.77675816976986,145.77159098682884,205.735738873877,204.10170371912164
1.5682349015682349,31.73324759201222,29.272533611830365,179.87010513729788,159.73989967042567,127.52036096259695,146.10525431101314,205.92977872418007,203.5727042386081
1.6016016016016017,30.4731141856068,27.35718169520921,180.8067758929688,158.53853541762905,127.31573316416068,146.45296486323394,206.1354671121586,203.0410616720099
1.6349683016349683,28.9095492048587,24.98962290513789,184.5946555019976,156.99456120461167,127.12789448122471,146.75563679365055,206.35146632465708,202.5194744663334
1.6683350016683351,27.355174134972625,22.8093912969371,187.68755726967,154.80448206316606,126.95829849983886,147.06993770690005,206.5840139563652,202.0155439979519
1.7017017017017018,25.701055746833724,20.797446632713708,190.1234092162667,152.3040393438003,126.80210985716349,147.4147620523833,206.8526772290444,201.5316564808308
1.7350684017350684,24.09817593055633,18.97493238024406,191.82710894669765,149.22332000816573,126.66415244119833,147.77065677010484,207.15102907045508,201.0823560267089
1.7684351017684352,22.25159803688656,17.349598270500156,192.812164413809,147.66917102496245,126.55230650140132,148.16455339365933,207.4728303894376,200.68499251892663
1.8018018018018016,20.65864122802806,15.952999581234716,193.274525520592,144.55798043283585,126.46889879486405,148.55874897684814,207.8094341741193,200.319481687892
1.8351685018351689,19.37943967685952,14.58740502760444,193.381478600692,137.67257720525024,126.38759158932368,148.94360670797465,208.1514295155289,200.011505997234
1.8685352018685355,18.35156234258106,13.477950370936412,193.0052846385634,130.69738002954895,126.312528468332,149.324213447946,208.5120639255963,199.714140684764
1.901901901901902,8.078480193741859,12.473366225610553,191.2850535524504,123.81698904454647,126.2643411900227,149.66969362449652,208.86555924496832,199.43600331053696
1.9352686019352687,1.155070168889612,11.860458330257025,189.30820172760133,117.23698920942098,126.24289245441268,149.9761576978259,209.2253265029307,199.18092857432853
1.968635301968636,1.155070168889612,11.662727147654852,187.1513611675339,111.38523759752157,126.25909112719478,150.2262908621969,209.5846089710424,198.9498574488779
2.002002002002002,1.155070168889612,11.953851947046672,184.89998157911955,105.95266144789294,126.2942186612229,150.47141443489235,209.95266703800945,198.72983518626944
2.035368702035369,1.155070168889612,12.568795663149524,182.67176340276524,100.68515038535617,126.36918327226115,150.69545164024612,210.31512647040685,198.53890928713284
2.0687354020687354,1.155070168889612,13.54296448875456,180.31386936360445,95.67902152414474,126.4652018253223,150.91177744993712,210.67654477364889,198.38378482216493
2.1021021021021022,1.155070168889612,14.90756100351154,177.8384162391741,91.14987048717096,126.54684625781128,151.08762786001435,211.04522797844504,198.2720706666184
2.135468802135469,1.155070168889612,16.557003429964805,175.47883750518386,87.05120026711528,126.63948617262515,151.25793828972857,211.321432681034,198.15115116976943
2.1688355021688355,1.155070168889612,18.394033036430173,173.10101258807293,83.31106970037746,126.73488331686173,151.41573170925014,211.55103334422884,198.04698821711844
2.2022022022022023,1.155070168889612,20.524702891149698,170.87185199040795,79.98819084113254,126.81981843821076,151.53022600394294,211.79750255566265,197.9691140235212
2.235568902235569,1.155070168889612,23.007963111059485,168.69247812887588,77.28821627241906,126.89697536371672,151.59632007510314,212.031577071603,197.9138129939988
2.2689356022689355,1.155070168889612,25.62450846236967,166.54957895123647,74.92773070009063,126.94260389231282,151.45812051489597,212.29828635425068,198.02733798009555
2.3023023023023024,1.155070168889612,28.38847248829037,164.51278702194628,72.99843756947102,126.96122343354708,151.19210925302548,212.5769820462367,198.25314037689463
2.335669002335669,1.155070168889612,31.19197517105265,162.59298061539153,71.3729839043307,126.94803951831553,151.00668232012174,212.88410555610704,198.37591471474
2.369035702369036,1.155070168889612,34.1611441686134,160.93876287691344,70.34293094688337,126.91215147354968,150.82866069087996,213.2162426788324,198.4611369105189
2.4024024024024024,1.155070168889612,37.20633767400649,159.7476771833735,70.00489769147735,126.88081699422224,150.72449610855148,213.57719532541108,198.4771977521629
2.4357691024357693,-2.526570592737108,40.24377252333619,158.80192248717623,70.30097512568972,126.81800884306986,150.6737826356662,213.96187828964932,198.4350819718557
2.469135802469136,-3.398218862204925,43.11418777189916,157.8145202560506,70.96837659757881,126.73052472657882,150.6477508486323,214.3608570692693,198.37636142901687
2.5025025025025025,-1.4954279177344665,45.892365573495326,156.83461951936337,72.22896295298027,126.63740417571138,150.61012410285556,214.75518939264447,198.33190922495763
2.5358692025358693,2.7646319958894727,48.45011616486385,155.844441627327,73.93033939886348,126.56435639687211,150.59058414279318,215.15576761783987,198.2764695323684
2.569235902569236,2.7646319958894727,50.82006769226453,154.9073988302156,76.2807568998186,126.52100040274986,150.5854830545105,215.53920110342403,198.2084526356724
2.6026026026026026,2.7646319958894727,52.98843940027961,155.42971913106604,78.54904027791893,126.53784843885992,150.60503772812265,215.89174666654225,198.1264340165316
2.6359693026359694,2.7646319958894727,54.97014350395789,156.72458992361533,81.39443542459124,126.60576012784102,150.67269851547977,216.21237145983943,198.01624050713303
2.669336002669336,2.7646319958894727,56.46128693388871,158.98428597804283,83.38177871759241,126.74959672705802,150.78135144952984,216.5108495801136,197.87797365005736
2.702702702702702,2.7646319958894727,57.54852779140062,161.96004477799667,85.40191168149812,126.9588134504391,150.95827060993605,216.7593741457171,197.67019962431084
2.736069402736069,2.7646319958894727,58.849630817660085,165.35018058840694,87.02590761546786,127.12940057481016,151.16593793691575,217.0211688256556,197.4572434688153
2.7694361027694363,2.7646319958894727,59.95822968050653,169.24947096361865,88.66831921953249,127.28744066572644,151.39806508844435,217.27636470921576,197.23513267672013
2.802802802802803,2.7646319958894727,61.433353653579246,170.25827952489232,89.96710895973166,127.45580111906882,151.69359768032712,217.5445599379349,197.044898848292
2.836169502836169,2.7646319958894727,54.98150323455477,171.04996744416832,91.15731917172836,127.637444717471,152.07962437023969,217.83485709106856,196.82319203421807
2.8695362028695364,2.7646319958894727,50.869178303931605,171.51964451228133,91.82595100977584,127.83728017806985,152.494612739168,218.1191211616897,196.6226170509572
2.902902902902903,2.7646319958894727,48.868504083139264,171.74078481099735,92.2155808423327,128.04722540996124,152.92657530963936,218.38275098860456,196.46110118955585
2.9362696029362696,2.7646319958894727,48.88158886833048,171.77771501146532,89.62537935668787,128.26145236889275,153.3001088335549,218.6188078792593,196.3769685626671
2.9696363029696364,2.7646319958894727,58.541058388367325,171.62174049649886,86.59881479810426,128.48125812958693,153.6850854042728,218.8402974350259,196.2815904878426
3.003003003003004,2.7646319958894727,67.6790448176057,171.003434426601,86.4051772514506,128.73863833523393,154.00180236463405,219.0348537567839,196.24908275044305
3.0363697030363697,2.7646319958894727,76.2131134645857,170.0535301024583,86.44840838622869,129.03435871227703,154.2498844858468,219.19833579681787,196.2853893023576
3.0697364030697365,2.7646319958894727,84.26954904456774,169.86900363106213,86.63712123930617,129.3529464843639,154.4199199060163,219.3463856050677,196.43483388954505
3.103103103103104,2.7646319958894727,91.97151101914342,169.5920885127604,87.2273419447393,129.70200883956622,154.54125179799473,219.47571745633937,196.6519933998419
3.1364698031364697,2.7646319958894727,98.87864891605102,169.26431376857016,87.29311647333697,130.0532112633908,154.6146907375749,219.59217986725665,196.97109394210463
3.169836503169837,2.7646319958894727,104.86428957190525,168.8489429918469,86.70635051366442,130.43028973122784,154.7121324911494,219.67281741370172,197.29376478914293
3.2032032032032034,2.7646319958894727,110.14777055693668,168.31560645171726,86.31940716338367,130.78604058350868,154.76168212121647,219.7610604887904,197.7024189559708
3.2365699032365702,2.7646319958894727,115.14395012360632,167.99660143701075,86.40069006595165,131.1756046641082,154.74406981873182,219.8347920832144,198.21269959359813
3.2699366032699366,2.7646319958894727,119.21021490362769,167.6191248353552,86.31705670683822,131.5190106309466,154.64648464422385,219.91719822079983,198.8268345661528
3.3033033033033035,2.7646319958894727,122.18099284077223,167.219880438299,85.3263591228933,131.7654098309171,154.57870378788428,220.02045942308828,199.4769156271853
3.3366700033366703,2.7646319958894727,124.05653355879356,166.9036486475875,84.06612436617469,131.90704103661585,154.43299636620992,220.1303865855437,200.2249429379745
3.3700367033700367,2.7646319958894727,126.47632924519758,167.6798600161208,84.41354594171266,131.9899493381292,154.16987910661214,220.2026906391304,201.04457234987288
3.4034034034034035,2.7646319958894727,127.86193272100849,168.39275405822278,84.6812003352393,132.03573267738489,153.8116422203545,220.30274923616275,201.95224987420383
3.4367701034367704,2.7646319958894727,128.12488667627616,164.83603107118012,84.91363726487054,131.90487733382793,153.26326362581477,220.55263413655084,202.90756944308896
3.4701368034701368,2.7646319958894727,127.21315836813416,162.15999727247512,84.7630994558554,131.6764644182141,152.64028654860013,220.8703262420925,203.9235059193532
3.503503503503504,2.7646319958894727,125.28889402677372,161.65216767490605,82.27018612220556,131.16183888904985,151.996388149554,221.48296882932013,204.90681222899207
3.5368702035368704,2.7646319958894727,122.18456919092932,161.47836308712982,80.04528427338967,130.540342876759,151.32004604373037,222.11155969648,205.93104706970985
3.5702369035702373,9.26181365842059,117.49555236956895,161.48791625312063,78.19572571884169,129.77277605967282,150.72534645319675,222.95167532625408,207.0025159866532
3.603603603603604,17.653234951452884,111.90880782775346,161.56197269494254,76.97103589550906,129.09619059953965,150.1767289340886,223.63290732877127,208.1341182010122
3.6369703036369705,27.948669227029555,105.35492834518016,161.96014763502785,76.0274744951641,128.4025703869063,149.51838193993,224.09686618977412,209.44341715825004
3.670337003670337,39.76630841343655,98.05888552409944,162.52552945916517,75.65556156229994,127.8645291297147,148.88475741962358,224.2648020655831,210.79281177412744
3.703703703703704,53.00244572439394,89.98023003732119,162.9964024713562,75.94793357335799,127.31194596374488,148.22836082590564,224.2632897330696,212.2341072738305
3.737070403737071,67.29350084806705,81.268193456754,163.5658787811604,76.8292001047073,127.01832700952345,147.76117535295137,223.9298716908396,213.5664542086785
3.770437103770437,82.55726747125331,71.96855369164517,165.3690238621152,78.16985543230969,127.0554523991346,147.17983902260332,223.32032176840963,215.0130668554569
3.803803803803804,98.5133714577746,62.16316140053604,167.089743270765,79.93058880034577,127.28908283570402,146.67912942519075,222.49957775065684,216.33436364856985
3.8371705038371706,114.89973355438956,51.91225179385657,168.5280969865206,81.57752099863619,127.69795644813463,146.19615589171346,221.43711139217223,217.4672466635761
3.8705372038705375,131.60102996509752,41.25203092880917,169.67933908806117,83.87421763854445,128.14989851039314,145.8439950244603,220.3458840590904,218.4492221726036
3.903903903903904,148.51762781159496,30.312118968955303,171.255845338377,87.2989483763618,128.71788447144388,145.85371028436944,219.20312557895545,219.3095468011173
3.937270603937271,165.24821043424646,18.825341397894583,171.95372499338632,90.75486497651896,129.32561157653134,145.7961250529751,218.111471900092,219.9838930835946
