Time,Left Shoulder Angle,Right Shoulder Angle,Left Elbow Angle,Right Elbow Angle,Left Hip Angle,Right Hip Angle,Left Knee Angle,Right Knee Angle
0.0,20.230140097024925,30.85663968606024,145.58682969367348,155.77933491723286,138.1598215939828,139.97754282273598,194.4904316275,199.27501380132887
0.0333667000333667,17.695834774745496,29.92244920798348,146.19068927450513,155.47704988196168,138.01875048268587,140.80825191755812,195.3064090484318,198.91593352972225
0.0667334000667334,15.500750460810403,29.06614894151228,146.64602981809028,155.141611814523,137.89930060939923,141.51650272587824,196.04712762465329,198.6119121589916
0.1001001001001001,13.62986708023859,28.286631271060685,146.96784008003635,154.7792212598638,137.80088063946104,142.10927607899728,196.71525212679663,198.3600006785358
0.1334668001334668,12.068164558048991,27.582788581042767,147.17110881595082,154.39607876293093,137.7228992382094,142.59355280821617,197.3134473254944,198.15725007775407
0.1668335001668335,10.80062281926056,26.95351325587257,147.27082478144112,153.99838486867137,137.66476507098247,142.97631374483583,197.8443779913788,198.00071134604536
0.2002002002002002,9.81222178889223,26.39769767996416,147.2819767321147,153.59234012203208,137.62588680311833,143.26453972015722,198.31070889508223,197.8874354728088
0.2335669002335669,9.087941391962946,25.91423423773158,147.21955342357907,153.18414506795995,137.6056730999551,143.46521156548124,198.71510480723703,197.8144734474432
0.2669336002669336,8.612761553491652,25.5020153135889,147.0985436114416,152.78000025140196,137.60353262683097,143.58531011210883,199.0602304984756,197.77887625934784
0.3003003003003003,8.371662198497287,25.159933291950168,146.9339360513098,152.386106217305,137.61887404908398,143.63181619134093,199.34875073943027,197.7776948979217
0.333667000333667,8.349623251998791,24.886880557229446,146.74071949879115,152.00866351061606,137.65110603205233,143.61171063447847,199.5833303007334,197.8079803525637
0.3670337003670337,8.531624639015115,24.68174949384079,146.533882709493,151.65387267628202,137.6996372410741,143.5319742728224,199.76663395301736,197.866783612673
0.4004004004004004,8.902646284565193,24.54343248619825,146.3284144390229,151.32793425924984,137.76387634148742,143.3995879376736,199.9013264669145,197.9511556676486
0.4337671004337671,9.447668113667968,24.470821918715888,146.13930344298825,151.03704880446645,137.84323199863042,143.2215324603331,199.9900726130572,198.0581475068896
0.4671338004671338,10.15167005134238,24.46281017580776,145.98153847699652,150.7874168568788,137.9371128778412,143.00478867210165,200.03553716207773,198.1848101197949
0.5005005005005005,10.999632022607384,24.51828964188792,145.87010829665516,150.5852389614338,138.0449276444579,142.75633740428037,200.04038488460856,198.32819449576365
0.5338672005338673,11.976533952481905,24.636152701370424,145.82000165757165,150.43671566307842,138.1660849638187,142.48315948817012,200.00728055128204,198.4853516241949
0.5672339005672339,13.067355765984978,24.815291738669536,145.84620731535455,150.3480475067608,138.29999350126278,142.192235755073,199.9388889327321,198.65333249448904
0.6006006006006006,14.509162312233997,25.28165366005049,146.3805321766655,150.61971704709495,138.5176367103242,141.87410615117102,199.7120112363438,198.8349141125809
0.6339673006339673,15.913827499934388,25.751741933865297,146.74148914605956,150.98285084889153,138.7841121730366,141.63706208931814,199.49513350102296,198.9916408714296
0.6673340006673341,17.352489537496,26.3183366199464,147.1607292489544,151.55754256903978,139.11774445728383,141.42815415806044,199.27253393503548,199.1423213973777
0.7007007007007008,18.695493913482974,26.88767459423935,147.86595701217246,152.1148125904087,139.43081843118452,141.22888368456253,199.05057125264435,199.2963741923631
0.7340674007340674,20.28793460207617,27.48214884179631,148.6456703032704,152.6741420507038,139.70818368708078,141.02075714964025,198.82426562473103,199.46393672216132
0.7674341007674341,21.436093376397743,28.20183324978169,149.9431871982157,153.49629984853064,139.93860760912514,140.82268703478815,198.6213158715123,199.62673738852567
0.8008008008008008,22.65177147845775,29.02857296162496,151.28073988732606,154.48101281396626,140.14058324560003,140.62363582845157,198.42729825880332,199.78774565318625
0.8341675008341676,23.97217813260008,29.74271864465468,152.6845450199774,155.2725422851371,140.26551668883693,140.4518508176271,198.26127604632623,199.9343398331268
0.8675342008675342,25.28866291930153,30.211915721515474,154.16710800202273,155.6377903344885,140.3242346414451,140.27368903996697,198.1104801325737,200.09063702140645
0.9009009009009008,26.48622242744536,30.570573375022025,155.8738233847792,155.83700664778044,140.32341728381215,140.1206460994552,197.975191304008,200.2364771255616
0.9342676009342676,27.653648244021767,31.067855203563333,157.87555990178237,156.19372981985276,140.2669484252477,140.0235500905002,197.92734676287685,200.3665209384004
0.9676343009676344,28.641078928547994,31.427987878884764,159.7035564675534,156.39306510339395,140.15692282661786,139.9808854789685,197.89293121747232,200.48733435910165
1.001001001001001,29.41221350101937,31.701086829696973,161.64024605608682,156.51578722957925,139.99693453479898,139.97296025642964,197.85939279733185,200.53552313484963
1.0343677010343677,30.52324486872276,31.740669894274863,163.31829387961005,156.2841512073715,139.9160661261003,139.97758262520367,197.76557113710217,200.55583101211027
1.0677344010677343,31.68739923399789,31.83856584880508,164.87480722345634,156.16825377974507,139.90125475585825,139.996048940249,197.65717595460052,200.52329729739213
1.1011011011011012,32.88521077403731,31.72826033705626,166.18329038717795,155.7594232319272,139.87851063692904,140.0563787955739,197.53246577196072,200.4531778719012
1.1344678011344678,34.06601348389322,31.31350276855188,167.09878798160526,154.95406303286344,139.8489267160776,140.14760452803097,197.3807438520972,200.368127126017
1.1678345011678346,35.173386849837954,30.774177314832407,168.14643299304623,154.05962202183838,139.7716539872714,140.280377735978,197.23328529659003,200.26518349259675
1.2012012012012012,36.14416142328822,30.26148989388459,168.9583689287703,153.14649762437406,139.6688887331644,140.44612242446837,197.08208518332103,200.1948611239721
1.234567901234568,36.98590104836607,29.58740017365788,169.27195055889405,151.90764137658607,139.49132578826047,140.62668894352467,196.95558905845417,200.14523245003025
1.267934601267935,37.61254108057704,28.69127591866924,169.25040203737208,150.09109040029716,139.2588347912319,140.8102256672911,196.84197871284005,200.0837213770565
1.3013013013013013,38.48518917629293,27.62824340653009,169.2121398991199,148.11478046506443,138.95402942112463,140.97198946618585,196.73929387347545,200.056004294934
1.334668001334668,39.22485921921873,26.57357899344792,168.74232365272417,146.36216170502968,138.58656751476752,141.16636868050605,196.6494647261228,199.9662538460382
1.3680347013680347,39.76411701052964,25.261151750573216,168.70580373402788,144.4961891618631,138.1375176468631,141.34744636578617,196.59590360951395,199.8730408735861
1.4014014014014016,39.2317194967769,23.546690377777136,166.4368778355401,142.34801537563206,137.58476080291456,141.48428869623362,196.64273100591657,199.8321016355296
1.4347681014347682,39.383112338410456,21.622201635941583,171.55399235095922,139.99662754336444,137.025942864689,141.6176911071121,196.7265939753169,199.8268710934376
1.4681348014681348,39.72967647861339,19.956630485046503,175.36119210069265,138.27634564742567,136.48655654734364,141.7575844805719,196.7987971164462,199.85333628977347
1.5015015015015016,40.10324020590229,18.346189702117663,178.1723102042003,136.63179950356565,135.9595753293645,141.88400930569472,196.8840135236348,199.90770385776207
1.5348682015348682,40.51075091347433,16.763067058051952,173.86170543332315,134.42992813052356,135.44156091304978,142.02397493993814,196.96676724516448,199.95602685502263
1.5682349015682349,40.83775936187737,15.253503871547831,170.571367725277,132.38016582540743,134.9871101066915,142.18292393328957,196.99871322566608,200.02112848963327
1.6016016016016017,41.47068346500569,13.752269219139215,173.76741685356194,131.32134313898723,134.58568959516614,142.3358377806857,196.9819003006036,200.08292738145445
1.6349683016349683,42.054797375505096,12.337755555156733,176.13505738258817,130.2732472187043,134.1811795271447,142.49131564654724,196.97024279748848,200.14411425801163
1.6683350016683351,42.35290316103935,10.898634759023306,177.6419292112497,128.93471222572813,133.8341269197275,142.6715233502217,196.96001767677825,200.19792342453283
1.7017017017017018,42.39281281960579,9.575021904478822,178.43776286210002,127.26021814019666,133.53461799700014,142.87517024148863,196.9567855631765,200.23214043510728
1.7350684017350684,41.99810039414768,8.132808633006041,178.5077724332024,124.59159465332284,133.28304191403885,143.0945875395458,196.9535051357168,200.2278315325449
1.7684351017684352,41.34515278089068,6.798257800762872,178.05039374106843,122.48302177282892,133.04366608802903,143.2795630500366,196.90877502465432,200.22055518133163
1.8018018018018016,40.20113133527944,5.835016114833016,177.54270106465722,122.0400239893196,132.84821873861864,143.42749776825502,196.85983676274844,200.212840836314
1.8351685018351689,39.04618292536197,5.08030865517209,176.90589047843483,121.6273411974065,132.58847145023893,143.54842125009793,196.8632556961425,200.20467966828843
1.8685352018685355,37.99020913376699,4.702805818221201,175.43640822435813,121.38214196999306,132.31171603318242,143.60559004856225,196.91737911897303,200.22205468433404
1.901901901901902,36.86075999110158,4.63063760784731,173.23832830296257,120.9779123916556,132.04109715970728,143.63909802682548,197.0495586515053,200.2343064249908
1.9352686019352687,35.553633537759985,4.396204024797277,170.78586186184702,119.83858062911064,131.75377298481365,143.67148259363492,197.26750868957163,200.2199642132277
1.968635301968636,34.2291327488955,4.246353603551251,167.78181019869962,118.0309079413582,131.420194664834,143.7043053435794,197.5694844134026,200.1956988444965
2.002002002002002,32.41188230850689,4.068195132778588,163.7899496663034,116.33828983774474,131.04866669747844,143.75955976491747,197.97651471925283,200.1533887564441
2.035368702035369,30.534106119312444,4.068195132778588,159.5998925647515,114.66114680573148,130.67280309843707,143.87114394586197,198.4606793006156,200.0714565010313
2.0687354020687354,28.336922591948166,4.068195132778588,155.36045465036713,112.27526746958388,130.28800372005165,143.99259667439077,199.02993442159348,199.9563522737699
2.1021021021021022,26.06023542579855,4.068195132778588,150.8927305408015,108.9879883326835,129.91587758298962,144.1118931460293,199.5620492754642,199.7939643712603
2.135468802135469,23.68125739942976,4.068195132778588,146.2780428568486,108.21902399533944,129.6144115925315,144.2480515925129,200.0615922800321,199.53065098083923
2.1688355021688355,21.365639298322623,4.068195132778588,141.29774872470438,106.26241232628038,129.33784906289495,144.4263974522541,200.5615801649581,199.23319722879185
2.2022022022022023,19.173145708999776,4.068195132778588,136.09646387404314,100.854789087988,129.08979100959513,144.63766513187934,201.0422263498317,198.87820780651217
2.235568902235569,17.2025156080003,4.068195132778588,130.80661595177165,95.64391152750213,128.79063742018388,144.87451580695517,201.5370193175741,198.5277776836637
2.2689356022689355,14.85370515642544,4.068195132778588,125.09987760112202,90.98251830595687,128.49808913273012,145.0903696253006,202.05974398679868,198.20265391780308
2.3023023023023024,12.856458965251353,4.068195132778588,119.67172114948627,87.05044610867265,128.18261229812646,145.29104068223845,202.61146750069395,197.9053897919548
2.335669002335669,1.5275463052430531,4.068195132778588,114.28694406198832,83.71506486831754,127.8717697707135,145.46789575899575,203.13387103492911,197.64870761988885
2.369035702369036,1.5275463052430531,4.068195132778588,109.56853491046104,80.56564171036582,127.53743217972008,145.6123191852838,203.6591817628059,197.3888923221916
2.4024024024024024,1.5275463052430531,4.068195132778588,105.3327820003641,79.54392116022633,127.18199471990164,145.73004436176583,204.2394433036084,197.11591148693003
2.4357691024357693,1.5275463052430531,4.068195132778588,102.21907046162698,81.21982224025183,126.78654693578665,145.83059737603645,204.8476949961606,196.8718342840838
2.469135802469136,1.5275463052430531,4.068195132778588,99.5147594063248,80.25024984789039,126.43544419972211,145.88286591631763,205.339690073608,196.64348618202024
2.5025025025025025,1.5275463052430531,4.068195132778588,98.48149516045798,79.12313495122926,126.0938098536456,145.88326832853082,205.83388561330588,196.52076990944764
2.5358692025358693,1.5275463052430531,4.068195132778588,98.73020618807811,77.85952306237088,125.80949422805269,145.8703114521913,206.2653085438737,196.4739533435301
2.569235902569236,1.5275463052430531,4.068195132778588,103.46171844126144,76.84774173692747,125.50372925618196,145.86872185521776,206.7262278252585,196.4572182855852
2.6026026026026026,1.5275463052430531,4.068195132778588,101.75291770873756,76.18923402850072,125.1871454046883,145.8765144458523,207.19955318685945,196.4604887360392
2.6359693026359694,1.5275463052430531,4.068195132778588,100.23870292896136,74.98408202142508,124.83784002289808,145.90144488139262,207.74653849576487,196.46163421174828
2.669336002669336,1.5275463052430531,4.068195132778588,98.86881445331818,73.7246808867712,124.49388804934064,145.8664608800917,208.2327398964959,196.51578891443447
2.702702702702702,1.5275463052430531,4.068195132778588,105.67049087148,73.12335153486465,124.14406888814726,145.8274731041653,208.71569844583323,196.6017853745503
2.736069402736069,1.5275463052430531,4.068195132778588,114.45507882211923,72.88741788417934,123.81252781828124,145.8325837091027,209.20914943589705,196.6556599262936
2.7694361027694363,1.5275463052430531,4.068195132778588,117.72360919424776,71.9064239342426,123.48654595541294,145.8825657862358,209.71650716631711,196.6801326294369
2.802802802802803,1.5275463052430531,4.068195132778588,121.42053289505972,70.82312091666313,123.1482389958013,145.96947193899177,210.27522388647463,196.6773371017012
2.836169502836169,1.5275463052430531,4.068195132778588,125.40054293212272,69.93341463878797,122.7856531596251,146.0638551983469,210.8894468171885,196.64693895189217
2.8695362028695364,1.5275463052430531,4.068195132778588,129.5647383154615,69.50288129095442,122.4217753833182,146.1677206930798,211.5350131644966,196.5657181326837
2.902902902902903,1.5275463052430531,4.068195132778588,133.98726600442563,70.65574011367794,122.03381532342598,146.27693045235628,212.2210658487392,196.4810318155634
2.9362696029362696,1.5275463052430531,4.068195132778588,138.612315318646,72.17022152998533,121.59123501884442,146.39313261838245,213.0088886837456,196.3969702145279
2.9696363029696364,1.5275463052430531,4.068195132778588,142.72971851436995,72.43354393456242,121.06311026078907,146.52742118237515,213.9012918687136,196.30944242621788
3.003003003003004,1.5275463052430531,4.068195132778588,146.08670322152008,72.33793371366025,120.55192882087292,146.7017079838754,214.8412442972576,196.2057361710782
3.0363697030363697,1.5275463052430531,4.068195132778588,149.27427002718744,71.75293078443897,120.00522526564735,146.92088088026532,215.84409607552288,196.08516519363664
3.0697364030697365,1.5275463052430531,4.068195132778588,152.44863271621145,70.90872341232289,119.42847959493602,147.1700433781552,216.8974027675561,195.9581529044661
3.103103103103104,1.5275463052430531,4.068195132778588,154.97173362027576,70.06843025948287,118.81068531605398,147.4054229102614,217.98059387072848,195.86375948097165
3.1364698031364697,1.5275463052430531,4.068195132778588,156.9588281956321,69.13723717165823,118.22764014449582,147.67118704344296,219.0639498170065,195.767598498974
3.169836503169837,1.5275463052430531,4.068195132778588,159.1964179587534,67.62925695983323,117.7128951904489,147.92460569370155,220.0725873394452,195.6761024843615
3.2032032032032034,1.5275463052430531,4.068195132778588,161.13500261270602,65.62414052469286,117.23963463190512,148.20665567610502,221.0786630153056,195.55181673201108
3.2365699032365702,1.5275463052430531,4.068195132778588,162.7093581831159,64.04518594310585,116.84008969603768,148.46106375721408,221.96282297371485,195.4352341775249
3.2699366032699366,1.5275463052430531,4.068195132778588,165.431180748806,61.64613266287983,116.50620376131764,148.74928508670493,222.774465829259,195.36254608156688
3.3033033033033035,1.5275463052430531,4.068195132778588,167.66332236403545,55.67411969862451,116.12566470092509,148.9603660441434,223.62185427352364,195.3476727842132
3.3366700033366703,1.5275463052430531,4.068195132778588,168.78757105871836,48.40059060879254,115.50676057792568,149.1055818638089,224.87058677724312,195.38863628322983
3.3700367033700367,1.5275463052430531,4.068195132778588,169.23176168931175,49.02203722258952,114.94032146789468,149.14069093073226,225.9751831746384,195.46717672068343
3.4034034034034035,1.5275463052430531,4.068195132778588,168.5737701946201,49.186597064207376,114.61078979225834,149.0694879718013,226.57540126147887,195.5832265508008
3.4367701034367704,1.5275463052430531,4.068195132778588,167.7629060715431,50.63825180453891,114.4205165166745,148.8833915587987,226.7663266700401,195.72721325093323
3.4701368034701368,1.5275463052430531,4.068195132778588,168.19152860829536,56.98933923838038,114.089604731036,148.46340092252726,226.60320033057283,195.88384296032905
3.503503503503504,1.5275463052430531,4.068195132778588,167.30230813425277,63.43927487342918,113.88199940991976,147.98983988746096,226.2099508679756,195.97186502265689
3.5368702035368704,1.5275463052430531,4.068195132778588,162.0694698785323,68.1884874791541,113.7737766595877,147.37167662689194,225.72529251270305,196.0684917542865
3.5702369035702373,-6.302580316718229,4.068195132778588,157.45116410456083,71.79023869899851,113.82452846582795,146.72869832997793,224.9763743025888,196.16964524607275
3.603603603603604,-10.749728727198304,4.068195132778588,153.56380755088253,72.95662172869214,113.90153358474164,146.15002624655358,224.15504578237915,196.2046985372893
3.6369703036369705,-12.026783561103418,4.068195132778588,150.96055557338764,76.57509120744989,114.06644430199708,145.64083158207856,223.17305588620263,196.2128363942104
3.670337003670337,-9.940160666014185,4.068195132778588,149.686885101343,79.80154528914116,114.24478730872062,145.14767620045433,222.191709947708,196.32883012287448
3.703703703703704,-5.269071558850608,4.068195132778588,149.16476280097643,83.39188579309214,114.52942877740794,144.5954749554479,221.0381565976943,196.5176860346115
3.737070403737071,2.084358168777108,4.068195132778588,149.50498689857716,87.38404129004675,114.84336088557647,143.9965125754729,219.5448159329568,196.8015970829535
3.770437103770437,2.084358168777108,4.068195132778588,150.11526378138888,91.57096092149791,115.44686574346883,143.3995192567473,217.74100388197127,197.10329427142383
3.803803803803804,11.598244753018486,4.068195132778588,151.31294621351486,95.35166220695496,116.14573455834017,142.573481347607,215.80265839701136,197.54726922401747
3.8371705038371706,23.045379892093607,4.068195132778588,152.03256763616827,99.00012547265098,117.0327531355471,141.82954512344438,213.87895852005127,197.8557724381571
3.8705372038705375,36.033331726660194,4.068195132778588,151.9408018980566,102.5205321036112,117.98536349054504,141.33740882301956,211.91975435061664,198.08588253816663
3.903903903903904,50.42148051534544,4.068195132778588,151.76079435190445,105.77762392981607,118.99489909233068,140.84393195274896,210.01810454942512,198.1665374307776
3.937270603937271,65.9638890613505,4.068195132778588,152.27954787460985,109.63507513122872,119.9868145414396,140.2481690646878,208.1711690439743,198.2143964592985
