Time,Left Shoulder Angle,Right Shoulder Angle,Left Elbow Angle,Right Elbow Angle,Left Hip Angle,Right Hip Angle,Left Knee Angle,Right Knee Angle
0.0,4.0586368236232895,12.948637371301968,194.69232840680743,181.11342408324563,170.9771814286467,209.23267249512165,176.233833101119,174.45312702376586
0.0333667000333667,3.110949533374731,14.474176749099357,194.594983994552,180.97192481976813,171.92638279359366,210.09716933047625,177.26116316430037,174.90373770252734
0.0667334000667334,2.353309752718947,15.696048242547658,194.46486348888425,180.7901730387504,172.67112805024288,210.80754359808097,178.0968442090939,175.30211709349277
0.1001001001001001,1.7755480529827934,16.633526730515925,194.3031680050493,180.5699237170624,173.22351300016956,211.3715926939048,178.7559843805703,175.65081394022678
0.1334668001334668,1.3674950054931232,17.305887091873213,194.1110986582924,180.31293183157408,173.59563344494885,211.7971140139166,179.25369182380038,175.9523769862941
0.1668335001668335,1.1189811815767925,17.732404205488574,193.88985656385887,180.02095235915544,173.7995851861559,212.09190495408544,179.60507468385484,176.20935497525932
0.2002002002002002,1.019837152560655,17.932352950231067,193.64064283699383,179.69574027667647,173.8474640253659,212.2637629103803,179.82524110580442,176.42429665068715
0.2335669002335669,1.019837152560655,17.925008204969743,193.36465859294253,179.33905056100707,173.75136576415403,212.3204852787701,179.9292992347199,176.59975075614227
0.2669336002669336,1.019837152560655,17.729644848573653,193.06310494695012,178.95263818901728,173.5233862040955,212.26986945522395,179.93235721567203,176.73826603518927
0.3003003003003003,1.019837152560655,17.365537759911856,192.737183014262,178.53825813757703,173.1756211467654,212.11971283571063,179.84952319373153,176.8423912313929
0.333667000333667,1.019837152560655,16.851961817853404,192.3880939101232,178.09766538355632,172.72016639373894,211.87781281619925,179.69590531396918,176.91467508831778
0.3670337003670337,1.019837152560655,16.208191901267348,192.01703874977903,177.6326149038251,172.1691177465913,211.5519667926588,179.4866117214557,176.95766634952855
0.4004004004004004,1.019837152560655,15.45350288902275,191.62521864847469,177.14486167525334,171.53457100689766,211.1499721610581,179.23675056126186,176.97391375858993
0.4337671004337671,1.019837152560655,14.607169659988656,191.21383472145536,176.63616067471102,170.8286219762332,210.67962631736617,178.96142997845843,176.96596605906657
0.4671338004671338,1.019837152560655,13.688467093034124,190.7840880839664,176.10826687906808,170.06336645617304,210.1487266575521,178.6757581181161,176.93637199452306
0.5005005005005005,1.019837152560655,12.716670067028208,190.3371798512528,175.56293526519454,169.2509002482924,209.5650705775848,178.39484312530567,176.88768030852415
0.5338672005338673,1.019837152560655,11.711053460839958,189.8743111385599,175.00192080996035,168.4033191541664,208.93645547343323,178.13379314509788,176.8224397446345
0.5672339005672339,1.019837152560655,10.690892153338536,189.39668306113447,174.4269784902369,167.53271897537175,208.27067874106805,177.9077163225648,176.74319904642013
0.6006006006006006,1.019837152560655,9.725390750132709,188.9337628121376,173.82908736342608,167.04323600392064,207.5667838420076,178.05703423392487,176.71022700809635
0.6339673006339673,1.019837152560655,8.691941666918169,188.66466342364288,173.15821459735733,166.66293653700967,206.87934178682085,178.25596041094678,176.6360802022934
0.6673340006673341,1.019837152560655,7.76165213189164,188.09560860076604,172.53451377865588,165.97274218231462,206.18312537886965,178.57705704376397,176.52606118112834
0.7007007007007008,1.019837152560655,6.997661865820328,187.68084487150728,172.01934177067187,165.16183540053007,205.5053732968713,179.0335543352266,176.4007726554931
0.7340674007340674,1.019837152560655,6.425652087099671,187.1473596978864,171.4712264632346,164.3378669280726,204.83328549667604,179.56802367009635,176.2496711042838
0.7674341007674341,1.019837152560655,5.981743818137584,186.28725023101143,170.93075743468955,163.16659431632587,204.19394524663548,180.1199947508137,176.09563756992557
0.8008008008008008,1.019837152560655,5.65564988532414,185.45277856174823,170.23336725157748,161.9391312887879,203.57095851274823,180.6898208603265,176.01576313770207
0.8341675008341676,1.019837152560655,5.425878613928885,184.5471827528816,169.59761927465067,160.38031075192822,202.98596726301523,181.2646229726953,175.94655270376143
0.8675342008675342,1.019837152560655,5.351141391200368,184.1467683449378,168.99113052365487,159.8457417033322,202.40884315232805,181.8977518777769,175.90136675800025
0.9009009009009008,1.019837152560655,5.351141391200368,184.10239825003208,168.47344593447167,159.68164082902703,201.82082394757128,182.57896995618947,175.8734567286062
0.9342676009342676,1.019837152560655,5.351141391200368,184.00880369103007,167.9748321497765,159.7614320254743,201.28172519473443,183.2966942059637,175.8222305059799
0.9676343009676344,1.019837152560655,5.351141391200368,183.97814777055592,167.39166739180374,160.10316020151805,200.8311036414261,184.00463086870303,175.70838603674088
1.001001001001001,1.019837152560655,5.351141391200368,183.7418201325193,166.70502352843866,160.45686144448416,200.40302295977423,184.7093595431893,175.5714737330606
1.0343677010343677,1.019837152560655,5.351141391200368,183.55767414612416,166.27980914145567,160.88901913329164,200.0106740531241,185.3990989509168,175.42324386341423
1.0677344010677343,1.059893489771567,5.351141391200368,182.9302372926577,165.90537896622763,161.10961886448118,199.61220707176048,186.03667160085988,175.25969668927726
1.1011011011011012,1.059893489771567,5.351141391200368,182.4615428405187,165.6058006847272,161.53584915611754,199.23699419165337,186.6143752544726,175.07139922532562
1.1344678011344678,1.059893489771567,5.351141391200368,181.9668425413545,165.32258454503005,162.07657149717846,198.9059995198667,187.1505015651325,174.8486684056793
1.1678345011678346,1.2289807645363808,5.351141391200368,181.58523053657143,165.1483561434524,162.69370696693463,198.59379032911045,187.6635203735368,174.60831368965842
1.2012012012012012,1.2289807645363808,5.351141391200368,181.1212410052617,164.82155893607717,163.36759553712847,198.2696255865043,188.14484517747127,174.24748171357115
1.234567901234568,1.2289807645363808,5.351141391200368,180.49687340629487,164.52614265207615,164.0856063991494,197.9635695146145,188.5914728420792,173.74606539975312
1.267934601267935,1.2289807645363808,5.351141391200368,179.57651342468264,164.10482539071742,164.74496238615387,197.69834649198685,188.83221228687083,173.25024391813443
1.3013013013013013,1.2289807645363808,5.351141391200368,178.78595149253565,163.67521057946553,165.42676624003784,197.4313061758699,188.92393216032696,172.76785119086625
1.334668001334668,1.2289807645363808,5.351141391200368,177.89443489754188,163.10038537763933,165.94776109381706,197.2943430634052,188.8959108789895,172.4084730841833
1.3680347013680347,1.2289807645363808,5.351141391200368,177.0069619946343,162.67690185674044,166.391297150924,197.20074512607587,188.7462490025114,172.13337128341246
1.4014014014014016,1.5169295481819534,5.351141391200368,175.7854481364541,162.20165765944495,166.86881448961552,196.95051599928195,188.4764512933733,171.92088495795812
1.4347681014347682,1.5169295481819534,5.351141391200368,174.5423998652611,161.65531248568558,167.38106213153426,196.6823804895861,188.03600152112023,171.77797212875808
1.4681348014681348,1.5169295481819534,5.351141391200368,173.30598092003655,160.99947065184944,168.00990171774717,196.37553744678337,187.58107630936345,171.64354566045287
1.5015015015015016,1.5169295481819534,5.351141391200368,172.15656306703607,160.69928394536527,168.66860687785214,196.08237952714427,187.07731535650052,171.52244790050537
1.5348682015348682,1.5169295481819534,5.351141391200368,170.88645102958213,160.10390556395578,169.24346254345224,195.7076842962355,186.7233289864057,171.44238238805002
1.5682349015682349,1.5169295481819534,5.351141391200368,169.75868974186426,159.47221760310518,169.79825915622672,195.1730648324178,186.3427823672617,171.3882909831579
1.6016016016016017,1.5169295481819534,5.351141391200368,168.3778493007693,160.21257355494228,170.3265007901903,194.73422441200387,186.0501418747109,171.35618884315355
1.6349683016349683,1.5169295481819534,5.351141391200368,166.99938222723063,159.92065133149677,170.8365200716052,194.35667991610885,185.78676033900388,171.3564186468179
1.6683350016683351,1.5169295481819534,5.351141391200368,165.41908252877076,160.86266393131328,171.28171827904606,193.99272015721,185.61222745142845,171.42796675722738
1.7017017017017018,1.5169295481819534,5.351141391200368,163.89107459180573,159.3614207684165,171.87087239395603,193.6207391424858,185.4711466647444,171.55426001309348
1.7350684017350684,1.913570412035137,5.351141391200368,162.1550279293822,157.36509687604334,172.27482270481494,193.31842588963136,185.41849908046248,171.70982850054853
1.7684351017684352,1.913570412035137,5.351141391200368,160.78500179277796,155.29662001224628,172.62692910213644,193.04072085737053,185.3690175961312,171.90289527824353
1.8018018018018016,1.913570412035137,5.351141391200368,159.19826532959846,153.4288170670449,172.95261342068557,192.7560148693739,185.34391596419653,172.15766907460034
1.8351685018351689,1.913570412035137,5.468642258425025,157.516317509948,151.52671183859695,173.27707738186982,192.46292811537305,185.3027150562514,172.4832633432628
1.8685352018685355,1.913570412035137,5.771062998753158,155.56254403454494,149.53703189159037,173.56894981106456,192.22084747063275,185.25729466452648,172.8207600641527
1.901901901901902,1.913570412035137,6.032873785272791,153.4970070380346,147.60677798308913,173.82149675837718,192.0285744624061,185.2055847448628,173.17312866821072
1.9352686019352687,1.913570412035137,6.385883235527504,151.38494508969993,145.67079001087484,174.06578340436346,191.8208245662029,185.17020389100648,173.54152323366046
1.968635301968636,1.913570412035137,6.964165967500062,149.2863475818108,143.65615016854812,174.2905962722201,191.6497197193401,185.148641008444,173.9086850010855
2.002002002002002,1.913570412035137,7.7637171051138045,146.98843691906958,141.77294037751673,174.485713288069,191.48150703000923,185.1424326892516,174.2753319092436
2.035368702035369,1.913570412035137,8.770958614497909,144.90300835832122,140.0445214186682,174.59011821165578,191.29684432932035,185.1564134296379,174.6549287132056
2.0687354020687354,1.913570412035137,10.017706426031229,142.66179077757263,138.44572993683835,174.65368683223087,191.12327754872948,185.18483155552605,175.03242920935023
2.1021021021021022,1.913570412035137,11.434463059747936,140.15315635907726,136.75624765637494,174.70354102525906,190.98340543838023,185.22391317471053,175.39558747227733
2.135468802135469,1.913570412035137,12.885309049046958,137.66649096654993,135.2816909622583,174.7560662788851,190.8425842054473,185.2779087167778,175.763961451454
2.1688355021688355,2.408733927422789,14.163315202288487,135.51064748174375,134.35760243577485,174.7854918921544,190.7152458157477,185.3420739938267,176.11804678744963
2.2022022022022023,2.408733927422789,15.626344220221656,133.2431224140856,133.3535882432391,174.79086750878247,190.5751536960129,185.4222452631445,176.46197473362665
2.235568902235569,2.408733927422789,17.226760079927644,130.88387087547338,132.3921267561499,174.78460208541293,190.41346560857173,185.5011359657773,176.7745346406422
2.2689356022689355,2.408733927422789,19.000887183195108,128.17562636046597,131.32900689033505,174.7586600263137,190.22271211209787,185.58806176496148,177.04248992583723
2.3023023023023024,2.408733927422789,20.8758064477214,125.44983229697752,130.29370874296507,174.7286054592442,190.096939299826,185.68926117399727,177.2809541418311
2.335669002335669,2.408733927422789,22.757659329432705,122.69648729149652,129.2256070668935,174.71124354141588,190.0627746279514,185.80515153495327,177.46378488836086
2.369035702369036,2.408733927422789,24.69619356780396,120.04896015976264,128.48463791743933,174.64262958257632,190.01337465975823,185.97161290396133,177.67313522551854
2.4024024024024024,2.408733927422789,26.57005351706232,117.52317599799608,127.8417022960725,174.5755480238455,189.9456969435085,186.1233996415306,177.93515756785226
2.4357691024357693,2.408733927422789,28.788810848772787,115.1773485398679,126.88031104155986,174.5717243374377,189.8641268049661,186.23100408488745,178.2032955202856
2.469135802469136,2.408733927422789,30.957696573227416,112.9135972296278,126.1172227474489,174.56369774229,189.80037815650044,186.3159196460787,178.45585173202824
2.5025025025025025,2.408733927422789,32.97395211102133,110.70105637561652,125.74824628053966,174.59739759680687,189.7270126721397,186.36608549533852,178.69295929316155
2.5358692025358693,2.408733927422789,34.54774221954312,108.66569499683204,125.60599659866423,174.68394700387174,189.62559040846867,186.4056414347379,178.86911273881384
2.569235902569236,2.408733927422789,35.76035804454599,107.21524717621986,125.62997506619249,174.77113555683474,189.5101281736721,186.4626467840617,178.9828676051979
2.6026026026026026,2.408733927422789,38.65451897189651,106.06904907458748,126.3700061726013,174.88081432575063,189.45398042233325,186.5205423120753,179.0061735875684
2.6359693026359694,2.408733927422789,40.349345036351714,105.13447714353036,127.35518070517504,175.03115203723695,189.37167166620145,186.6422349844628,179.0021268748004
2.669336002669336,2.408733927422789,41.74453039423826,104.44639434954505,128.40809762923533,175.15153153292732,189.2532388152291,186.78943931445733,179.00014648722623
2.702702702702702,2.9922506656717625,43.24756554071063,104.06735873161196,129.95463813428916,175.2908593958504,189.11533694871372,186.93952450134475,178.99093031035883
2.736069402736069,2.9922506656717625,44.7366561531673,103.67912935331384,131.70475246831953,175.4184748393149,189.0887718758443,187.06453681987904,178.95960779289553
2.7694361027694363,2.9922506656717625,45.88819198620266,103.1404305323909,132.00364929248985,175.46707683216096,188.9734451302729,187.2097443230788,178.92842502017925
2.802802802802803,2.9922506656717625,46.85261411480448,102.84681817197686,133.0061180725106,175.42018380344103,188.81818927868923,187.34451614480253,178.88524090880372
2.836169502836169,2.9922506656717625,47.648787134325865,102.1598231282464,131.77799016843684,175.26078132904573,188.6838313644368,187.5492821865511,178.74900611249737
2.8695362028695364,2.9922506656717625,48.3403351064955,101.9223973669173,132.32143046596912,174.80581787947816,188.5845648199661,187.7203846434375,178.54774326487131
2.902902902902903,2.9922506656717625,48.91429393285315,101.9810712885554,132.81232246509586,174.50140899638706,188.5289885694292,187.8553762781833,178.22096110718817
2.9362696029362696,2.9922506656717625,49.52542519015677,102.48393963574398,133.665474178426,174.23603224093205,188.5307304013437,187.8703821160477,177.84274522722467
2.9696363029696364,2.9922506656717625,50.12779635060806,103.3875882217008,134.45091805356256,173.9391169570045,188.43635688686203,187.8292235806784,177.5286933239014
3.003003003003004,2.9922506656717625,50.73340824374991,105.00552037089464,135.3703451737654,173.630649337377,188.41449469180483,187.6364226300441,177.16725199632288
3.0363697030363697,2.9922506656717625,51.05647125603151,107.35658281295544,136.1646101245029,173.3615838602065,188.407314703221,187.3412320940771,176.77447871132344
3.0697364030697365,2.9922506656717625,51.36123395094569,110.49354453890318,137.0507588768464,173.00907906466165,188.3873349568192,187.00553025017493,176.35035851846376
3.103103103103104,2.9922506656717625,51.6640897810338,114.1471498630062,138.1258489859738,172.47169906917898,188.4225986578772,186.8886265512665,175.92243749203996
3.1364698031364697,2.9922506656717625,51.7195277554345,118.4169918520306,139.7134249386909,171.8438733541346,188.5056986323623,186.6845473347979,175.4985552724432
3.169836503169837,2.9922506656717625,51.58370944327347,123.18143995438578,141.13922205633023,171.1503368198976,188.60065901977663,186.2574066412375,175.06506965142145
3.2032032032032034,2.9922506656717625,51.20073004475061,128.07921376908772,142.64526913827856,170.46509799473768,188.7881147797708,185.7703577020653,174.59468082312355
3.2365699032365702,2.9922506656717625,50.540487457938966,133.2147112254749,144.1783419198121,169.7935539406642,189.1469267819164,185.1640212026255,174.24171133175855
3.2699366032699366,2.9922506656717625,49.77902030418291,138.87209798069205,146.00633357481138,169.10503538299474,189.55063487145932,184.46703537306925,173.90511333370736
3.3033033033033035,2.9922506656717625,49.19056355359432,144.33856888352975,147.66412996364298,168.4802599533366,190.1165857064871,183.69838245077412,173.49512086899435
3.3366700033366703,3.6539511981089112,48.823214413030776,150.12051176823425,149.12842385797063,167.86049959095294,190.6094839696908,182.9296278302576,173.07419161674957
3.3700367033700367,3.6539511981089112,48.16872255415499,161.27541902548518,150.4701883127488,167.19820704606138,191.04463430957748,182.13627027933745,172.6075202449316
3.4034034034034035,3.6539511981089112,47.66727790564541,162.8407623668959,151.84644822715708,166.62167449811213,191.510994323644,181.2648266309914,172.078285714318
3.4367701034367704,3.6539511981089112,47.43730067534301,167.36142268620648,153.27583425287185,166.21350449312467,192.1050408470672,180.3556199333427,171.60730384240753
3.4701368034701368,3.6539511981089112,47.532516016986165,172.06824947895203,154.88912500262248,165.9145919546329,192.6843229026428,179.34357704116945,171.104493401988
3.503503503503504,3.6539511981089112,48.03385329738612,176.95331611963653,156.5185460825367,165.67048673503274,193.335414255362,178.3192258089214,170.54437567883994
3.5368702035368704,3.6539511981089112,48.81448028198544,181.30763481381047,157.91058269396405,165.56019812911296,193.93089497401448,177.1877460633394,169.8760443041499
3.5702369035702373,3.6539511981089112,49.83845193671224,185.5140663014381,159.17252081013447,165.59935437912324,194.4197599705164,175.91396276201448,169.13158290384575
3.603603603603604,3.6539511981089112,50.59120010455143,189.4912628441353,160.91590548532642,165.7108729726699,194.7785410373125,174.60733823718303,168.35558824150925
3.6369703036369705,3.6539511981089112,51.474146096164205,192.737737306161,162.7752809586744,165.8198346866008,195.0171855572493,173.3966036233084,167.6384813416703
3.670337003670337,3.6539511981089112,52.21305681923052,195.729604288707,164.82768419744812,165.99318817409568,195.1494125786029,172.15876253053827,166.87735186545208
3.703703703703704,3.6539511981089112,53.75257065975259,198.35145454938248,166.82486517349798,166.1299410686984,195.11269106561755,171.0990164600235,166.24610931338478
3.737070403737071,3.6539511981089112,55.74509229570908,200.4106110914055,169.0383808256233,166.3795848396823,194.94961799348937,170.02794287726766,165.63014977664403
3.770437103770437,3.6539511981089112,55.97050639192958,201.8370282529876,170.68942890226396,166.68490498778078,194.5809421401498,168.90660498989166,165.0477436958821
3.803803803803804,3.6539511981089112,56.64670321261857,203.09071344614892,172.56693783999322,167.11020317680664,194.11528641474607,167.77930104410484,164.38877086940877
3.8371705038371706,3.6539511981089112,57.29094819321947,206.36594485941183,174.56597302828533,167.60482167635453,193.61104964375903,166.6313654174984,163.68717213126564
3.8705372038705375,3.6539511981089112,57.3227717938345,208.27362178774624,176.4730083164367,168.15095119943945,192.99126955923435,165.3937551151485,162.94237316387742
3.903903903903904,3.6539511981089112,57.24485895924928,205.9072907615717,178.0455646087902,168.67520877926373,192.2366862770508,164.2765705641139,162.2106069140512
3.937270603937271,3.6539511981089112,56.87783310178931,206.9019623442676,179.46989971880794,169.28316479814185,191.4251883243661,163.12337282585412,161.43840559581903
