Time,Left Shoulder Angle,Right Shoulder Angle,Left Elbow Angle,Right Elbow Angle,Left Hip Angle,Right Hip Angle,Left Knee Angle,Right Knee Angle
0.0,5.089902283102664,0.8226181133963243,195.6068280708082,182.9401222161621,171.6814196046964,210.861174874174,180.41158195573567,176.74917439051677
0.0333667000333667,4.683126669899876,0.8226181133963243,190.0364571130189,181.4420987176912,171.23498057426696,211.1828752528129,180.2131253284857,176.58394474122173
0.0667334000667334,4.342048222798425,0.8226181133963243,185.5140878870735,180.5493505223036,170.84741009325714,211.47496685186823,180.05268599397803,176.4198967750016
0.1001001001001001,4.076944864666732,0.8226181133963243,181.96496108690744,180.1943249930213,170.51745636520215,211.7368037147496,179.92737951418056,176.25750998266236
0.1334668001334668,3.898094518373216,0.8226181133963243,179.3143174064562,180.30946949286664,170.24386759363722,211.96773988486643,179.8343214510611,176.09726385500983
0.1668335001668335,3.8157751067862966,0.8226181133963243,177.48739753965532,180.8272313848618,170.02539198209757,212.16712940562863,179.77062736658746,175.93963788284998
0.2002002002002002,3.840264552774393,0.8226181133963243,176.40944218044024,181.68005803202885,169.86077773411847,212.33432632044577,179.7334128227275,175.78511155698868
0.2335669002335669,3.981840779205924,0.8226181133963243,176.0056920227465,182.80039679739005,169.74877305323514,212.46868467272748,179.71979338144902,175.63416436823186
0.2669336002669336,4.250781708949311,0.8226181133963243,176.20138776050953,184.1206950439676,169.68812614298278,212.56955850588344,179.72688460471986,175.4872758073854
0.3003003003003003,4.657365264872972,0.8226181133963243,176.92177008766484,185.5734001347835,169.67758520689665,212.63630186332333,179.75180205450786,175.34492536525525
0.333667000333667,5.211869369845326,0.8226181133963243,178.09207969814793,187.09095943286007,169.71589844851198,212.6682687884568,179.79166129278087,175.20759253264723
0.3670337003670337,5.924571946734792,0.8226181133963243,179.63755728589427,188.60582030121947,169.80181407136396,212.66481332469337,179.8435778815067,175.07575680036737
0.4004004004004004,6.805750918409792,0.8226181133963243,181.48344354483933,190.0504301028838,169.93408027898786,212.6252895154429,179.90466738265314,174.94989765922145
0.4337671004337671,7.865684207738745,1.512911562446398,183.55497916891863,191.3572362008753,170.11144527491894,212.54905140411483,179.9720453581881,174.83049460001547
0.4671338004671338,9.114649737590067,2.066044613891924,185.7774048520677,192.4586859582161,170.33265726269235,212.43545303411892,180.04282737007935,174.71802711355528
0.5005005005005005,10.56292543083218,2.498190749558113,188.07596128822192,193.28722673792845,170.59646444584337,212.2838484488649,180.11412898029474,174.6129746906468
0.5338672005338673,12.220789210333509,2.825523451270175,190.37588917131689,193.7753059030344,170.90161502790724,212.0935916917624,180.1830657508021,174.51581682209596
0.5672339005672339,14.098518998962383,3.06421620085332,192.60242919528963,193.8553708165581,171.24685721242045,211.8640368062228,180.2467532435708,174.42703299871
0.6006006006006006,17.918951569022987,3.2304424801327567,195.2266686097317,192.2971876429475,171.75224701292325,211.55200319283648,180.2765564166483,174.3657742310259
0.6339673006339673,21.92879893791177,3.3403757709336968,197.59901626294652,186.4320377822668,172.37303881416898,211.15942070414417,180.3100937533011,174.3147403476465
0.6673340006673341,26.3433936449699,3.410189555081349,198.97619172843892,181.4668942865712,172.96884443118634,210.7285741136838,180.34668039508097,174.26623932669162
0.7007007007007008,30.11721482508911,3.456057314400925,199.14880622457952,179.52634404505235,173.5499438165789,210.2653020694113,180.35634263610768,174.2221756986567
0.7340674007340674,33.56059528506403,3.494152530717633,198.3199017941313,178.34925380815582,174.1069202356304,209.7674909295236,180.34411347226148,174.18420040389697
0.7674341007674341,35.308112782536405,3.5406486858566857,195.8794260567275,175.29775673772912,174.63027751195315,209.26711494063616,180.32095329603408,174.1545506729361
0.8008008008008008,38.0535480599899,3.611719261643291,193.43406596269543,171.4742707517046,175.12664924817068,208.704561034495,180.3121030183385,174.14247358513896
0.8341675008341676,39.77592740779703,3.7235377399026586,189.01259793959312,166.79118234735404,175.52109554731007,208.1309473159409,180.28117033818333,174.15411013935054
0.8675342008675342,35.51902011063461,3.8922776024599983,184.06128272635016,160.7041889686197,175.89023176272536,207.4131739011352,180.171813593026,174.22293813782403
0.9009009009009008,40.16321689241501,4.134112331140522,178.53262343902117,153.6709777007336,176.20845902539995,206.7958202786596,179.87062533437782,174.25723413768472
0.9342676009342676,45.4509780458588,4.465215407769439,171.1534548184703,146.34109632776725,176.68503026122536,206.2261503137836,179.34303710271115,174.06316438096746
0.9676343009676344,51.66897063042892,4.901760314171903,163.69741963965365,134.74566751023204,177.41140342487097,205.79369071785263,178.6238915352113,173.51640879398505
1.001001001001001,57.72452495384511,-0.9997864513948982,157.84741180426607,123.79703646629994,177.97082038102536,205.23174126028675,177.96958713091368,172.8508504776803
1.0343677010343677,63.41966438110934,-4.094679852858197,152.9125230463027,114.74882522745229,178.2183119933262,204.5507738567512,177.50595534259335,172.3296784515999
1.0677344010677343,67.76271762804275,-5.223759380039309,148.44051141830846,106.37713446805004,178.24997638189458,203.6840627872905,177.17965918090712,172.3458041131764
1.1011011011011012,70.5099552313791,-5.17440931234438,145.42866399688904,99.94639950730408,178.15485388759546,202.8326809247662,176.94696272151938,172.7627043802203
1.1344678011344678,72.00151040418768,-3.6815254201467686,141.33972617671603,94.22966126500296,178.00260534214488,202.0772728812895,176.82843912233685,173.39506797986638
1.1678345011678346,71.90057382733265,8.717155614551547,139.7578960557511,90.11163390975346,177.80422515195966,201.61855605856329,176.7626732907199,174.12984505433135
1.2012012012012012,71.19228926280904,12.879932702679657,138.39544317680162,87.24855282608239,177.65064999476377,201.57773103576915,176.75132716159936,174.76819034145234
1.234567901234568,70.17319209202992,17.973625500385968,135.61060124108047,85.57638547394444,177.5496410849794,201.78940934651743,176.79192236152088,175.25085052137007
1.267934601267935,67.66458264967913,23.66201581216352,134.8804991211152,80.69849919798467,177.4928503798971,202.3984414174921,176.97534303703588,175.79716957858875
1.3013013013013013,64.6152425302866,39.85101213640295,135.17418815050868,77.76026316072922,177.63729861499192,203.0446924777116,177.27858793808502,176.28192815918052
1.334668001334668,62.2151250487502,54.615236988014736,136.00761281617758,76.17033207246428,177.70313535274573,203.8441966841152,177.6531605909228,176.82105341252412
1.3680347013680347,60.57318468455523,68.18258886029946,135.63566365526682,83.1980505035379,177.7765785363386,204.94308460786883,177.97710813529488,177.11235502748173
1.4014014014014016,59.23954683384281,80.3070887720015,136.36634414571543,92.98915204419356,178.07104347751164,205.99670557984564,178.22383462803435,177.7133507311878
1.4347681014347682,63.130799276362985,90.99924965228462,145.20336668127564,103.09384925632996,178.41047113672323,207.0236723543697,178.53517885079356,178.59211865061286
1.4681348014681348,66.38820847087904,100.10505330237558,144.14840677590274,113.05558167989356,178.87751517550518,207.9728016236113,178.7403483044166,179.77171383780313
1.5015015015015016,68.45081405968216,107.56103087679008,143.88833760207496,120.7892886032034,179.45853149525234,208.92010619719343,179.01253333575082,181.1052319476252
1.5348682015348682,68.8715840669555,112.391495386392,157.24920256206778,131.05259666604792,180.16569192478795,209.7987862708292,179.05370309813912,182.77972531679688
1.5682349015682349,66.37442179687108,115.88939846188916,160.4918288933352,126.15106175374125,181.00017233250367,210.7225114106022,178.96243939633678,184.39873659997872
1.6016016016016017,67.64819012289693,118.41255807766407,175.16045115285817,125.00167509628892,182.0870763446109,211.60425741726203,178.66680846625624,186.30791201007463
1.6349683016349683,69.72288369313388,120.14106333859984,184.10363903289223,124.62317201311438,183.188691425518,212.41228032665805,178.3396404711543,188.26245032638928
1.6683350016683351,72.1060568266582,120.70197880164204,181.6001162568812,133.58187311943152,184.3601737134369,213.0357044839889,177.95231236568833,190.32726367836847
1.7017017017017018,74.23481019279448,119.0419873778914,191.4629295506549,135.06811353101943,185.48504294805852,213.4120226348923,177.4590953649981,192.54362998473152
1.7350684017350684,75.05316660441424,118.13481769881632,187.0070936560083,134.90071688499782,186.6582558725617,213.8300400776813,176.85231755695952,194.75634034638023
1.7684351017684352,74.65986566521714,117.5153615040264,182.7547031302457,133.98380297409653,187.8871656137571,214.0628087653656,176.12764743198264,196.96106116427552
1.8018018018018016,75.24285007084455,116.76880100719328,179.51032340638193,134.13723004881223,189.119252006582,214.2650245824152,175.09848525549543,199.1544627316892
1.8351685018351689,75.73820708635355,115.06923548303465,176.1376373375178,133.5126988796151,190.3100394066366,214.36700209588628,174.01890513616468,201.3015760899329
1.8685352018685355,76.14040890716915,112.26087471583033,172.82352403343785,132.0433629097708,191.4424900570681,214.3650795855306,172.90539332520302,203.3800035681592
1.901901901901902,76.44392772871693,108.0572939779622,169.7548626039275,129.66237558254622,192.4995662010253,214.2555953311017,171.77443607382455,205.36734749552204
1.9352686019352687,76.64323574642253,102.14067999847288,167.11853215877244,126.3028903412083,193.46423008165652,214.0348876123533,170.64251963324338,207.24121020117536
1.968635301968636,76.73280515571155,97.81482651834196,165.10141180775832,121.89806062902396,194.31944394211075,213.6992947090389,169.52613025467352,208.97919401427328
2.002002002002002,76.70710815200957,89.84731766030299,163.89038066067062,116.38103988926002,195.0481700255364,213.2451549009121,168.44175418932912,210.5589012639697
2.035368702035369,76.56061693074224,78.88815033632383,163.67231782729488,109.68498156518346,195.63337057508224,212.66880646772643,167.40587768842417,211.95793427941865
2.0687354020687354,76.28780368733513,67.79833582626097,164.63410241741684,101.74303910006115,196.05800783389685,211.9665876892356,166.43498700317284,213.1538953897741
2.1021021021021022,75.88314061721388,56.10099134602459,166.96261354082193,92.48836593716,196.3050440451289,211.1348368451931,165.54556838478916,214.12438692419016
2.135468802135469,75.34109991580407,44.88535928861589,170.84473030729603,81.85411551974695,196.357441451927,210.1698922153525,164.7541080844872,214.8470112118207
2.1688355021688355,74.65615377853132,41.73355978079808,176.46733182662442,69.7734412910889,196.19816229743984,209.0680920794675,164.07709235348108,215.2993705818197
2.2022022022022023,73.82277440082125,42.21417277171605,184.01729720859268,56.17949669445269,195.8101688248161,207.8257747172916,163.53100744298487,215.4590673633413
2.235568902235569,72.83543397809945,43.44447823206755,193.6815055629868,41.00543517310525,195.17642327720435,206.4392784085784,163.13233960421263,215.30370388553948
2.2689356022689355,71.6886047057915,45.30955959254044,205.64683599959184,24.18441017031349,194.27988789775327,204.90494143308143,162.89757508837846,214.8108824775681
2.3023023023023024,70.37675877932307,47.69450028382306,220.10016762819384,5.649575129344342,193.10352492961152,203.2191020705544,162.8432001466964,213.95820546858124
2.335669002335669,68.89436839411974,50.484383736604144,237.228379558578,-14.665916506535323,191.6302966159277,201.37809860075083,162.98570103038057,212.7232751877329
