Time,Left Shoulder Angle,Right Shoulder Angle,Left Elbow Angle,Right Elbow Angle,Left Hip Angle,Right Hip Angle,Left Knee Angle,Right Knee Angle
0.0,2.759641359044233,0.9340183237003072,176.5456235017531,168.07492923669597,157.5359804643694,205.5425612306744,179.960881555432,177.2055672805349
0.0333667000333667,2.492229962591554,1.1040144184144778,176.74350105201069,167.14050071629995,157.24587150327804,204.93019882685132,180.28476359272832,177.40876068127787
0.0667334000667334,2.24143485368974,1.2174208308198504,176.91628480990153,166.4308567254602,157.01713631149696,204.415180921238,180.5644039189156,177.57007008537775
0.1001001001001001,2.009285256974759,1.2810746040332963,177.06781088801625,165.9315210424542,156.8465706606253,203.99267465439024,180.8027248630536,177.69140397688284
0.1334668001334668,1.7978103970825845,1.3018127811716866,177.2019153989454,165.62801744555955,156.73097032226238,203.65784716686417,181.0026487542024,177.7746708398413
0.1668335001668335,1.6090394986491865,1.2864724053518923,177.32243445527968,165.5058697130538,156.66713106800736,203.4058655992158,181.16709792142188,177.8217791583014
0.2002002002002002,1.445001786310535,1.2418905196907846,177.4332041696096,165.55060162321448,156.65184866945947,203.23189709200108,181.29899469377204,177.83463741631135
0.2335669002335669,1.307726484702603,1.1749041673052345,177.53806065452582,165.74773695431915,156.68191889821796,203.1311087857761,181.4012614003128,177.8151540979194
0.2669336002669336,1.19924281846136,1.0923503913121135,177.6408400226189,166.0827994846454,156.75413752588204,203.09866782109685,181.4768203701041,177.76523768717374
0.3003003003003003,1.121580012222777,1.001066234828292,177.7453783864795,166.5413129924707,156.8653003240509,203.12974133851927,181.52859393220595,177.6867966681226
0.333667000333667,1.0767672906228254,0.9078887409706417,177.85551185869818,167.10880125607267,157.01220306432387,203.21949647859955,181.55950441567825,177.58173952481425
0.3670337003670337,1.0668338782974756,0.8196549528560334,177.97507655186558,167.77078805372884,157.19164151830006,203.3631003818936,181.57247414958084,177.4519747412969
0.4004004004004004,1.0668338782974756,0.7432019136013381,178.10790857857225,168.51279716371675,157.40041145757874,203.5557201889573,181.57042546297384,177.29941080161876
0.4337671004337671,1.0668338782974756,0.6853666663234275,178.25784405140885,169.32035236431398,157.63530865375913,203.79252304034688,181.55628068491708,177.12595618982806
0.4671338004671338,1.0668338782974756,0.6529862541391724,178.42871908296596,170.17897743379802,157.89312887844045,204.06867607661823,181.53296214447056,176.93351938997304
0.5005005005005005,1.0668338782974756,0.6528977201654447,178.62436978583418,171.0741961504465,158.17066790322193,204.37934643832745,181.5033921706942,176.72400888610196
0.5338672005338673,1.0668338782974756,0.6528977201654447,178.8486322726041,171.99153229253696,158.4647214997028,204.71970126603048,181.470493092648,176.49933316226296
0.5672339005672339,1.0668338782974756,0.6528977201654447,179.10534265586767,172.9165096383483,158.77208543948353,205.08490770028493,181.43718723939315,176.26140070250577
0.6006006006006006,1.0668338782974756,0.6528977201654447,179.36763001998074,173.71903028224122,159.13351421429846,205.53287688691145,181.3959730806734,175.9743817209213
0.6339673006339673,1.0668338782974756,0.6528977201654447,179.64548519309565,174.34943282222432,159.57422483921908,205.99391477105183,181.35452377704087,175.7311849405304
0.6673340006673341,1.0668338782974756,0.6528977201654447,179.93913652643624,174.86856194351154,159.99115247925172,206.43726058096863,181.34470297099253,175.49143758958516
0.7007007007007008,1.0668338782974756,0.6919381075191132,180.5717457801622,175.3685171039238,160.365245300901,206.8784700341202,181.3454261574076,175.21227743379333
0.7340674007340674,1.0668338782974756,0.6919381075191132,181.4025405705389,175.92837979764326,160.67674870739242,207.2888426641652,181.3655391469917,174.934333842007
0.7674341007674341,1.0668338782974756,0.7769444593170285,182.48895886019463,176.46373813237935,160.8990762714837,207.64896312443133,181.4206876843837,174.66398489658854
0.8008008008008008,1.0668338782974756,0.7769444593170285,183.59081080418267,176.9789658160524,161.07033117692131,207.96506785687035,181.52151881506387,174.42700921899305
0.8341675008341676,1.0668338782974756,0.7769444593170285,184.38996933163435,177.30411379693209,161.15696496304471,208.2576278414204,181.68539962692563,174.18420185079472
0.8675342008675342,1.0668338782974756,0.7769444593170285,185.0776705262824,177.6318242780219,161.2376179202966,208.5246797545308,181.88766884145468,173.92376931066343
0.9009009009009008,1.0668338782974756,0.96851191114266,185.34303277870603,177.75344420760828,161.317306714211,208.7541276960348,182.12354821700072,173.64935000385765
0.9342676009342676,1.0668338782974756,0.96851191114266,185.6302137023025,177.87887009360887,161.41212345851818,208.92819599324244,182.3851526663936,173.3994894483492
0.9676343009676344,1.0668338782974756,0.96851191114266,186.7137451146428,177.8284058774412,161.49620907091534,209.0376390687847,182.66017853769492,173.16813632783797
1.001001001001001,1.0668338782974756,0.96851191114266,187.9408662128412,177.81462142486637,161.59133262772772,209.1116132043396,182.88516642044,172.92971921591322
1.0343677010343677,1.0668338782974756,0.96851191114266,189.2530814691898,177.78138711284157,161.67403791520135,209.15020291206733,183.06003001463063,172.71288277809194
1.0677344010677343,1.0668338782974756,0.96851191114266,190.4389459444411,177.81151507881458,161.74783316393282,209.15251668919092,183.2564758484036,172.51501557146398
1.1011011011011012,1.0938089998826988,0.96851191114266,190.9040993925533,177.64344690190143,161.82028190741602,209.1194416447519,183.4688835200825,172.3368734886916
1.1344678011344678,1.1597218800144655,1.2770390802357328,190.9077008592584,177.68548204603067,161.8797410419183,209.0878883922565,183.70738822798995,172.1454855358215
1.1678345011678346,1.1597218800144655,1.2770390802357328,190.8336713944561,177.53090968543313,161.9193485290125,208.99331719371224,183.94268839602205,171.99553078806048
1.2012012012012012,1.1597218800144655,1.2770390802357328,190.81952770461305,177.517723447852,161.87322847243254,208.83663118659945,184.19894458854944,171.85710412304425
1.234567901234568,1.2666017433287475,1.2770390802357328,191.66103312495105,177.560314615375,161.69539669769298,208.63198616200447,184.4872633453388,171.731176369544
1.267934601267935,1.2666017433287475,1.2770390802357328,192.5798871027335,178.01346173133533,161.49002120875653,208.435803237844,184.77274806328765,171.5909892704364
1.3013013013013013,1.2666017433287475,1.2770390802357328,191.95941505455144,178.5856761637033,161.30566940587187,208.2009801925427,185.0334283009766,171.47219241391366
1.334668001334668,1.2666017433287475,1.2770390802357328,195.049382499411,179.45924750394462,161.17339334465296,207.9555981144329,185.1978256017924,171.402714031654
1.3680347013680347,1.4164778144615149,1.2770390802357328,193.9696511905331,180.497289364731,161.06545459404617,207.71701942480908,185.3152244295139,171.37930855875086
1.4014014014014016,1.4164778144615149,1.2770390802357328,193.3175696482459,181.8904013337209,161.00557632571977,207.4943419264938,185.39607660073872,171.35776252383653
1.4347681014347682,1.4164778144615149,1.2770390802357328,192.10426235390628,183.372606301328,160.99755772159023,207.26830826167253,185.46206167383752,171.3437176534985
1.4681348014681348,1.4164778144615149,1.2770390802357328,195.7049209919797,184.995777032755,161.1413996096613,207.1219053459753,185.5114762485003,171.25736537189331
1.5015015015015016,1.4164778144615149,1.698437822008726,194.79789504967025,186.6202794086202,161.34746750148904,207.02748686076671,185.5320147343608,171.1543892101654
1.5348682015348682,1.6113793180487388,1.698437822008726,194.33884223293205,188.52800834302167,161.62869600495378,207.00539474520696,185.53725871627336,171.00758049151207
1.5682349015682349,1.6113793180487388,1.698437822008726,198.8668263047712,190.6543027687924,162.0779128302323,207.03782526144872,185.484069238206,170.83334740768657
1.6016016016016017,1.6113793180487388,1.698437822008726,202.15838532343145,192.74596490258443,162.5855996700224,207.05606971356187,185.41621288416985,170.6734175741567
1.6349683016349683,1.6113793180487388,1.698437822008726,204.015546663448,195.37383415610284,163.08415063799916,207.0973888284276,185.3272407239824,170.4930872494433
1.6683350016683351,1.6113793180487388,1.698437822008726,204.6154756255157,199.60182490234288,163.50772163373364,207.1333941739272,185.2600847532624,170.32245925591732
1.7017017017017018,1.6113793180487388,1.698437822008726,200.76056521275373,203.0240936667188,163.82262856664386,207.1786569690979,185.1932117989436,170.1726687332232
1.7350684017350684,1.853335478726381,1.698437822008726,196.81647313691045,205.5307300342345,164.17290998156514,207.23625581982697,185.1303933652717,170.0249421614967
1.7684351017684352,1.853335478726381,1.698437822008726,192.74959523185203,207.77259849049355,164.45860321359245,207.39229503858888,185.0620110580249,169.8912255800443
1.8018018018018016,1.853335478726381,1.698437822008726,188.74601858335603,209.4621862940276,164.6485164883437,207.5267186012605,185.05097174503425,169.72285552088556
1.8351685018351689,1.853335478726381,1.698437822008726,185.0991853550753,210.46401952484769,164.75411220239357,207.67252693437536,185.0732714010897,169.55085811633893
1.8685352018685355,1.853335478726381,1.698437822008726,181.21737120600403,210.48220454458587,164.84293349124087,207.7578626329792,185.1254385819673,169.37915265631946
1.901901901901902,1.853335478726381,1.698437822008726,177.15236557202664,208.89576692745743,164.96015673080407,207.7726378242807,185.2160455107628,169.1983113183435
1.9352686019352687,1.853335478726381,2.1137467349716785,172.83231198111812,206.4390983155224,165.1101470328323,207.7383627598401,185.34244472097376,169.0076530000551
1.968635301968636,1.853335478726381,2.1137467349716785,168.61400516692635,203.40487210488848,165.2679128010538,207.67850829592075,185.4822541421857,168.8056176608759
2.002002002002002,1.853335478726381,2.1137467349716785,164.82167845418962,200.04067234892148,165.45920049920315,207.6026458315392,185.6152293850434,168.59137061182366
2.035368702035369,1.853335478726381,2.1137467349716785,161.31460402268914,197.2901525097966,165.67982375190144,207.5495747126409,185.72706604812564,168.36185245554432
2.0687354020687354,2.232229108468456,2.1137467349716785,158.3804034564676,193.965863099985,165.90105345059828,207.4645232846076,185.8312513414122,168.1411759827037
2.1021021021021022,2.232229108468456,2.1137467349716785,155.77935371023543,188.66005195302543,166.11773473231912,207.33298027982767,185.93607775393767,167.94532594077077
2.135468802135469,2.232229108468456,2.1137467349716785,152.63271478083564,183.4210354693996,166.32379558381078,207.14736186449176,186.04737126738925,167.77309298890654
2.1688355021688355,2.232229108468456,2.1137467349716785,149.5040275406275,178.81103594492546,166.5058866627075,206.91257954763947,186.1717158534377,167.63013906018838
2.2022022022022023,2.232229108468456,2.1137467349716785,146.22799881639978,174.29462585390405,166.66505060277183,206.643677431957,186.31230629532024,167.4999762225354
2.235568902235569,2.232229108468456,2.1137467349716785,142.96822550374114,169.71571857958304,166.83509801810754,206.26602383956043,186.4581938157528,167.38522037108774
2.2689356022689355,2.232229108468456,2.1137467349716785,140.43374685939932,165.32747354902594,166.99106709059265,205.82700663250745,186.6091807125935,167.28976689439102
2.3023023023023024,2.232229108468456,2.1137467349716785,138.9999488928312,161.25853466565718,167.11442989528146,205.3581722512089,186.7643085852056,167.22857983577748
2.335669002335669,2.232229108468456,2.1137467349716785,138.28105860900777,157.57318099085813,167.21382845504408,204.9225095003915,186.9147430780176,167.17677580342095
2.369035702369036,2.232229108468456,2.1137467349716785,138.1554534434352,153.49017582387094,167.30084098349502,204.5074762373974,187.0498984310268,167.14494447399838
2.4024024024024024,2.51230310383914,2.652766361325976,137.60720789586057,149.8193229816515,167.42457976720644,204.10728068564416,187.13605529812915,167.13845413521818
2.4357691024357693,2.51230310383914,2.652766361325976,137.39962888184564,146.50870095751583,167.59203768535744,203.7345843742997,187.1691586374444,167.16790684525722
2.469135802469136,2.51230310383914,2.652766361325976,139.27765023072328,143.66095904550062,167.7440464950088,203.41697180730264,187.17488395685385,167.20356515718666
2.5025025025025025,2.51230310383914,2.652766361325976,137.2817733759611,141.38074825616548,167.89906373764336,203.1762707706532,187.1495945569788,167.25838955834885
2.5358692025358693,2.51230310383914,2.652766361325976,139.27447114946025,139.55809668478457,168.08812083266227,202.9278096775804,187.11146352295847,167.32262574944218
2.569235902569236,2.51230310383914,2.652766361325976,141.7702715650968,138.2991784353925,168.30897508009792,202.6760341164716,187.04758213614213,167.3947532832458
2.6026026026026026,2.51230310383914,2.652766361325976,145.974437190094,137.62246616896402,168.50595660962983,202.4225926518049,186.985964339851,167.48052504721008
2.6359693026359694,2.51230310383914,2.652766361325976,145.56935646409673,137.35730161922322,168.57070301304572,202.0720449946011,186.98461277635667,167.63303284672378
2.669336002669336,2.81882083951263,2.652766361325976,149.49115522256952,137.79211843145285,168.60415241824415,201.7163132299766,186.9903949737916,167.78481798265753
2.702702702702702,2.81882083951263,2.652766361325976,153.7155415754222,138.8307671828803,168.7016029539893,201.4199868814036,186.9732825078038,167.89789245007304
2.736069402736069,2.81882083951263,2.652766361325976,151.83262724395266,140.52924757387646,168.73565817621903,201.19357886581744,186.9631383374268,167.97132463183556
2.7694361027694363,2.81882083951263,2.652766361325976,152.22780458523096,142.5720563240272,168.747303998213,201.0590952621033,186.925029401922,168.00717335829043
2.802802802802803,2.81882083951263,2.652766361325976,151.08275422651312,144.58040124043555,168.60116858157798,200.95637489503383,186.91166098086205,168.05410481961502
2.836169502836169,2.81882083951263,2.652766361325976,145.6505845595629,144.7726085881137,168.21510074592155,200.8868071470453,186.98547617246533,168.09216399398375
2.8695362028695364,2.81882083951263,2.652766361325976,142.94894973791148,144.90603671636524,167.8002730445069,200.8886913189359,187.0791732398328,168.10129961426614
2.902902902902903,2.81882083951263,2.652766361325976,140.28058170229608,145.13826708514225,167.33850224019142,200.9958284340591,187.1764574533127,168.05785300976595
2.9362696029362696,2.81882083951263,3.2056977033392435,137.803321090226,144.70089328190446,166.93924051667295,201.10833470411447,187.27281725925604,168.0277939787511
2.9696363029696364,3.0823997007464223,3.2056977033392435,135.63780673608747,143.9466201127289,166.53391787067608,201.24783133639733,187.3233232431574,167.9783051533677
3.003003003003004,3.0823997007464223,3.2056977033392435,133.4102544869679,142.84927664164036,166.28291488276724,201.3767705161804,187.31574031411176,167.9307817832705
3.0363697030363697,3.0823997007464223,3.2056977033392435,131.14410026826874,141.50298799667488,166.177792815637,201.52760170319155,187.267767875874,167.83299248896418
3.0697364030697365,3.0823997007464223,3.2056977033392435,129.15261070389707,140.83771652448706,166.05679944918367,201.7416520394176,187.2863121283281,167.74775752559808
3.103103103103104,3.0823997007464223,3.2056977033392435,127.6367381390698,140.8630159537406,165.93722054902491,201.9636450444731,187.3108515271376,167.68084193085127
3.1364698031364697,3.0823997007464223,3.2056977033392435,126.05767433123536,140.8059378318195,165.83727590986817,202.2269692159825,187.3886799687298,167.64889996641995
3.169836503169837,3.0823997007464223,3.2056977033392435,124.68191302255376,140.80345292444068,165.8330887605328,202.60788136536647,187.39248809468447,167.51266337506374
3.2032032032032034,3.0823997007464223,3.2056977033392435,123.45394333130145,139.31252245245943,165.8325657665552,202.94869408435216,187.4663279608323,167.46221049051198
3.2365699032365702,3.0823997007464223,3.2056977033392435,122.08544021038304,138.1628369963363,165.88860437176663,203.25483359466853,187.60860622361344,167.40412961730067
3.2699366032699366,3.0823997007464223,3.2056977033392435,121.35233772362474,137.6067610784515,165.91048358454785,203.54609572539167,187.8668734429052,167.43778295597963
3.3033033033033035,3.0823997007464223,3.2056977033392435,120.86927762422836,138.2405655879037,166.00978236966108,204.0090284181436,188.22803901885808,167.37838670055845
3.3366700033366703,3.5528942321315866,3.2056977033392435,120.81847459965466,138.48945094110732,166.08393464614204,204.4710698365663,188.6942767757104,167.46301166664614
3.3700367033700367,3.5528942321315866,3.2056977033392435,119.3891168303484,138.2909043608123,166.12674730552934,204.81872118825083,189.2135849738879,167.64311707365735
3.4034034034034035,3.5528942321315866,3.2056977033392435,118.8287390067193,138.24387963452148,166.09263581563974,205.15450545447845,189.78269155170292,168.04389953218632
3.4367701034367704,3.5528942321315866,3.2056977033392435,119.65903299726384,135.47617473694677,165.90704297463495,205.5286224544686,190.44502578449053,168.45657107509288
3.4701368034701368,3.5528942321315866,3.2056977033392435,120.9114196298471,133.27374128605,165.66065654492866,205.8498449262433,191.1705010880557,169.0855926474254
3.503503503503504,3.5528942321315866,3.2056977033392435,122.89243097562446,129.12650151665665,165.348909108063,206.1441288574216,191.9672225378447,169.78840308305516
3.5368702035368704,3.5528942321315866,3.852692918392932,125.49146553075556,126.56388454375856,164.96845311304247,206.3261985580752,192.8279039286016,170.80072596941727
3.5702369035702373,3.5528942321315866,3.852692918392932,128.84527921046387,126.906555421299,164.56204331228483,206.37311943154904,193.7683728431248,172.01423247394476
3.603603603603604,3.5528942321315866,3.852692918392932,132.59256614842977,127.93756698849394,164.09314711225838,206.3534697250045,194.79960967227527,173.47887041361983
3.6369703036369705,3.5528942321315866,3.852692918392932,136.6833756550683,129.43345278200084,163.36598651590182,206.09997309449616,195.98271318114703,175.26357267280474
3.670337003670337,3.5528942321315866,3.852692918392932,140.8799280580728,129.91875143002423,162.41314933428615,205.78572117914007,197.4169695649993,177.17491664566404
3.703703703703704,3.5528942321315866,3.852692918392932,146.08403325323488,126.8350359954702,161.42481732064886,205.3829071247104,198.9672946376916,179.1912329044275
3.737070403737071,3.5528942321315866,3.852692918392932,151.3367779832622,124.15417687088087,160.48647673535498,204.933408629511,200.52056632744512,181.3665909262864
3.770437103770437,3.5528942321315866,3.852692918392932,157.13710672056774,122.3038557260128,159.44298480315797,204.4886698009053,202.1860942356591,183.531041953478
3.803803803803804,3.9907123743202737,3.852692918392932,162.86483825687398,121.03538610546858,158.66139821919725,204.2290748890331,203.6172982322071,185.71433977495903
3.8371705038371706,3.9907123743202737,3.852692918392932,168.50562165800233,120.6611835933286,158.18784023686766,204.1932085127975,204.79691613602805,187.77293755632328
3.8705372038705375,3.9907123743202737,3.852692918392932,174.25179821212336,120.48510531769182,157.89122306398872,204.29824752922548,205.74176113647243,189.7721492693523
3.903903903903904,3.9907123743202737,3.852692918392932,180.0206523126133,119.8086809070407,157.65553131024922,204.9084162341463,206.6107940577853,191.5542130944297
