Time,Left Shoulder Angle,Right Shoulder Angle,Left Elbow Angle,Right Elbow Angle,Left Hip Angle,Right Hip Angle,Left Knee Angle,Right Knee Angle
0.0,29.248264739419145,31.466474388207303,165.51813572040257,164.81506674255925,132.37889508984867,133.0803566001502,203.3674209451256,204.94644110046443
0.0333667000333667,29.05572699871835,31.64978813269177,165.54765304179256,164.82792611071642,132.54943939225163,132.93090097300177,203.47084081895463,205.02279182807743
0.0667334000667334,28.90286680457709,31.81065046373919,165.6119638810042,164.82587028090427,132.7139455688957,132.79014455741617,203.5392039064672,205.1027189787463
0.1001001001001001,28.78725167054891,31.949176758726782,165.70945751082934,164.80974964037907,132.8714995063397,132.65866756092757,203.5756212295397,205.18563023482108
0.1334668001334668,28.70644911018731,32.065482395031765,165.83852320405984,164.78041457639705,133.02118709114242,132.53705019107005,203.58320381004864,205.27093327865185
0.1668335001668335,28.658026637045825,32.15968275003136,165.99755023348757,164.73871547621454,133.1620942098627,132.4258726553778,203.56506266987023,205.35803579258857
0.2002002002002002,28.639551764677964,32.23189320110278,166.1849278719044,164.68550272708774,133.29330674905935,132.32571516138486,203.5243088308811,205.44634545898137
0.2335669002335669,28.648592006637266,32.282229125623246,166.39904539210218,164.62162671627294,133.41391059529116,132.23715791662545,203.46405331495748,205.5352699601803
0.2669336002669336,28.68271487647724,32.31080590096999,166.6382920668728,164.5479378310264,133.52299163511697,132.16078112863366,203.38740714397588,205.62421697853537
0.3003003003003003,28.739487887751423,32.31773890452021,166.90105716900808,164.4652864586043,133.61963575509554,132.0971650049436,203.29748133981263,205.7125941963967
0.333667000333667,28.81647855401333,32.30314351365114,167.1857299712999,164.37452298626303,133.7029288417857,132.04688975308946,203.19738692434424,205.7998092961143
0.3670337003670337,28.91125438881648,32.26713510574,167.49069974654014,164.27649780125878,133.77195678174635,132.0105355806053,203.09023491944697,205.88526996003824
0.4004004004004004,29.0213829057144,32.209829058164004,167.81435576752065,164.1720612908478,133.8258054615362,131.9886826950253,202.9791363469973,205.9683838705185
0.4337671004337671,29.144431618260608,32.13134074830037,168.15508730703328,164.0620638422864,133.86356076771406,131.98191130388358,202.8672022288717,206.0485587099053
0.4671338004671338,29.27796804000864,32.03178555352631,168.51128363786992,163.94735584283077,133.88430858683876,131.99080161471423,202.7575435869465,206.12520216054853
0.5005005005005005,29.419559684512,31.911278851219063,168.88133403282242,163.82878767973722,133.88713480546917,132.01593383505144,202.65327144309808,206.1977219047984
0.5338672005338673,29.566774065324225,31.76993601875584,169.26362776468264,163.707209740262,133.871125310164,132.0578881724293,202.55749681920287,206.2655256250048
0.5672339005672339,29.71717869599908,31.60787243351412,169.65655410624385,163.58347241166268,133.83536598748316,132.11724483438297,202.47333073713912,206.32802100351952
0.6006006006006006,29.84365375937378,31.414129575159663,170.09726471320334,163.44650335412484,133.79782644974324,132.19311415613038,202.4282590613452,206.3873835449528
0.6339673006339673,30.00321074479953,31.265851528441875,170.52897394895007,163.34988599974895,133.76020936498844,132.2605875783166,202.3675285806278,206.4516160222323
0.6673340006673341,30.15061481057103,31.08721968526496,170.9025107755992,163.26040857243174,133.6832141544057,132.35299080732003,202.3312427342452,206.51974907530672
0.7007007007007008,30.279091355024924,30.857170294926465,171.23154372305277,163.1694740982117,133.5535123111461,132.48207799755323,202.3356923404176,206.5903172312268
0.7340674007340674,30.393502720630828,30.568553229330053,171.60534894542974,163.0531095809109,133.36817959937187,132.65299958281508,202.3930327106781,206.63355326173613
0.7674341007674341,30.58686205995048,30.34318224365524,171.90382778114406,162.9351440214711,133.0457984037074,132.8142542130605,202.538218060693,206.6967029268329
0.8008008008008008,30.782129890958107,30.07776084978056,172.24035850128112,162.82117568474845,132.66460666516338,133.00229860942198,202.72751974509285,206.7409847187804
0.8341675008341676,30.95159929546059,29.74321661983747,172.63696832518275,162.70207741616295,132.2501376403435,133.22812871914869,202.95321217747303,206.74882686117508
0.8675342008675342,31.03905970382428,29.341968633976663,173.07949570541268,162.57086258125884,131.8793027074901,133.4992159669872,203.1850538527769,206.71864113685223
0.9009009009009008,31.153572665623447,29.05220967784036,173.46512289693942,162.6122069420618,131.49240729936398,133.76678929234632,203.44439557700065,206.67538474741423
0.9342676009342676,31.22135955482618,28.70200386039232,173.9402683357449,162.64390019300615,131.13751341476075,134.07827360398375,203.71837218709047,206.59618096416816
0.9676343009676344,31.19325035526134,28.261204643468307,174.4574049828124,162.6285668695859,130.86092463022496,134.45630819808142,203.9837514217377,206.4664169848136
1.001001001001001,31.074679210438685,27.71746749293217,175.04784329372913,162.53749559694396,130.64507002007747,134.89100683752775,204.2314550624841,206.29117555556303
1.0343677010343677,31.04448835795051,27.306222223398603,175.46841390357122,162.20746355962444,130.4822297377269,135.35627777931765,204.47385563029275,206.08160152627667
1.0677344010677343,30.948833456703728,26.8038476439038,175.99300683357856,161.9588807754221,130.3588569641218,135.85630833649955,204.7190287559074,205.8318913416633
1.1011011011011012,30.734682013484584,26.163892836208102,176.64873908544584,161.7343380441144,130.2734499558826,136.39103891979371,204.95904574417293,205.54738128119672
1.1344678011344678,30.361634708937054,25.372321125552173,177.3501294557434,161.52852120194763,130.249327467919,136.96836238939707,205.16600423561445,205.2241093128377
1.1678345011678346,29.94107289067104,24.602819651949964,177.7784995801499,161.5378830699748,130.37084976187782,137.5982430163555,205.2785345755744,204.85338289177471
1.2012012012012012,29.39318797762565,23.714983652311734,178.38032693144433,161.52457115299865,130.57565103267072,138.27391642845814,205.3622793955511,204.4341245603221
1.234567901234568,28.68866067551605,22.701724235563777,179.18573130319004,161.4251144484542,130.84241317010233,138.97705563593806,205.43329757866013,203.9710367700704
1.267934601267935,27.84492362817082,21.552116568558496,180.1106584582666,161.21823799749058,131.09090698641683,139.6999315735377,205.51239338690985,203.48980566787003
1.3013013013013013,26.811634465226764,20.307815495062428,180.70069422342848,160.87053720141017,131.27902340599425,140.40667580493576,205.62672804864096,203.03947412632724
1.334668001334668,25.558204354360008,18.95614864307098,181.5632943795116,160.41901096735597,131.4305582317327,141.10233036072216,205.749049742392,202.57603187229304
1.3680347013680347,24.30338748935243,17.573275068283095,182.3609652307695,159.8674710801522,131.56652280198654,141.781335563995,205.8652824783044,202.08837329607783
1.4014014014014016,23.05549701258848,16.19567758123061,183.0785701417101,159.3248165914386,131.69002474877183,142.45678479102276,205.98638655177604,201.58017273964165
1.4347681014347682,21.49634204010892,14.681884406083425,183.2234987917992,158.59758109928498,131.798290868798,143.11109337848896,206.05385521913527,201.0510501729013
1.4681348014681348,19.853751051812857,13.223369490489324,183.65967748082772,158.21501233757968,131.91866435404953,143.74131869363023,206.0933712080983,200.5127636267799
1.5015015015015016,18.25572650334941,11.8659342068866,184.3866457444378,159.82905072067743,132.04354561414257,144.33217967560194,206.14085398548,199.98226556942123
1.5348682015348682,16.73733444442594,10.578519090067251,185.31414148156483,161.38680687313632,132.13000047678952,144.90104101173847,206.2501297852056,199.47418052169064
1.5682349015682349,15.024332029820378,9.357687841149662,189.23867455143764,162.55790909898488,132.14463308135726,145.42609225558633,206.43240611226184,199.00602441965307
1.6016016016016017,13.47902210322914,8.247904255590841,192.3473170565112,162.95020619873858,132.1336762445258,145.89641557226378,206.66101945750947,198.57903496062465
1.6349683016349683,12.20180468305423,7.277034935300828,194.74164874709783,162.50770920761778,132.10984432776362,146.29653703332642,206.92590873211785,198.2014864226309
1.6683350016683351,11.203806117862804,6.37438714739605,196.56341479244543,161.28511526744308,132.07966430835558,146.69250648486195,207.1976347365583,197.84576174082292
1.7017017017017018,9.767310426722563,5.026701703653699,197.36036248845352,159.44884572951983,132.03586667940493,147.03912214645723,207.49647281860612,197.53620062449653
1.7350684017350684,8.70779081412011,3.862689961303013,197.5617951811033,156.50844572622725,132.00868980977873,147.33498612210596,207.79796559434743,197.2697827780723
1.7684351017684352,8.13594358606789,3.014461559150808,197.311556645062,153.15588920482324,132.0015757280297,147.5739540314097,208.0906657636026,197.05103423603188
1.8018018018018016,8.009279360636397,2.4186240143910496,196.6288260068112,149.4786090055834,131.9561154948511,147.80518954564283,208.4312474266461,196.8651588925645
1.8351685018351689,-0.8132267511245868,1.861399543559524,195.36345903909088,147.7560180366355,131.89167000403165,148.01715981564763,208.79900365764527,196.7067576175297
1.8685352018685355,-0.8132267511245868,1.861399543559524,193.68045591811452,145.1260675540299,131.81602294608234,148.20190503162067,209.1773356632403,196.5742271864044
1.901901901901902,-0.8132267511245868,1.861399543559524,191.68690107709733,141.70281667308132,131.72768834597986,148.3429767201183,209.55593720003932,196.48402798893423
1.9352686019352687,-0.8132267511245868,1.861399543559524,189.5934986439476,137.65085298455588,131.7244189139382,148.49614623269125,209.88105744032333,196.3760039450036
1.968635301968636,-0.8132267511245868,1.861399543559524,187.58521900434351,131.3084545493209,131.7488151244595,148.63097299555196,210.18368463439907,196.2851246044463
2.002002002002002,-0.8132267511245868,1.861399543559524,185.3528728247121,124.81046577695253,131.7838089362076,148.74428472414817,210.4799820848086,196.21238290689908
2.035368702035369,-0.8132267511245868,1.861399543559524,182.9545064899237,118.46172957798734,131.84116663471838,148.83709301872088,210.74860043294416,196.15292115615256
2.0687354020687354,-0.8132267511245868,1.861399543559524,180.5281194585185,112.08700959912872,131.99847826914467,148.9705617416533,210.9560602826024,196.0745635620746
2.1021021021021022,-0.8132267511245868,1.861399543559524,178.5055943501671,106.11250258796414,132.21850477972566,149.12028026678047,211.09932305946447,195.97922353996657
2.135468802135469,-0.8132267511245868,1.6362504466225372,176.18415543486608,100.3507632613356,132.4766677551847,149.26825218171132,211.192825897162,195.87778156487704
2.1688355021688355,-0.8132267511245868,1.8308078768899447,173.52347451190556,94.90930600134196,132.77096942724026,149.40636615828114,211.25463336947067,195.7776640423848
2.2022022022022023,-0.8132267511245868,2.3092823343340325,170.80910957654046,90.072012130418,133.11123769060396,149.56441817441348,211.2664970484364,195.6628402654682
2.235568902235569,-0.8132267511245868,2.3092823343340325,166.9055026284643,85.41607956681294,133.48658593048458,149.73405938402644,211.22040595342503,195.5448066648643
2.2689356022689355,-0.8132267511245868,2.3092823343340325,163.0975651497593,81.24642598544773,133.920050027235,149.91624558646157,211.1149886999672,195.41679052232595
2.3023023023023024,-0.8132267511245868,2.3092823343340325,159.51559358653836,77.66341476426884,134.40954841159538,150.11452074254515,210.9586683334008,195.2774830253483
2.335669002335669,-0.8132267511245868,2.3092823343340325,156.5698268428006,74.44279044069356,134.84009422786374,150.30852843985002,210.8406938119809,195.131720873502
2.369035702369036,-0.8132267511245868,2.3092823343340325,153.99070150372089,71.86332367865214,135.2354714699298,150.48929888827274,210.722076459142,194.9934509434572
2.4024024024024024,-0.8132267511245868,2.3092823343340325,151.54388718052985,69.93473557035264,135.5818096215767,150.65796926730457,210.60695778760416,194.858599418903
2.4357691024357693,-0.8132267511245868,2.3092823343340325,149.31241118673387,68.68929826629932,135.8804170512428,150.81534586963917,210.485254756216,194.72434326635428
2.469135802469136,-0.8132267511245868,2.3092823343340325,147.81538687145974,68.22981375205264,136.1907794655315,150.98391197300847,210.3227131859168,194.53145012503583
2.5025025025025025,-0.8132267511245868,2.3092823343340325,146.44475785361678,68.64193547996278,136.51423328789937,151.1583275717538,210.10750121765253,194.30882103569263
2.5358692025358693,-0.8132267511245868,2.75326602091877,145.5904365897243,69.98012359141477,136.83267595978182,151.32761593607455,209.86875270025544,194.0723711624454
2.569235902569236,-0.8132267511245868,2.75326602091877,145.3861084595543,72.1684024696955,137.12621583599778,151.48949887443524,209.62776078216447,193.8321415554147
2.6026026026026026,-0.8132267511245868,2.75326602091877,146.61540846147207,75.50286605385269,137.39999682482554,151.6459157275278,209.46447624610087,193.60466746346964
2.6359693026359694,-0.8132267511245868,2.75326602091877,148.63951484024452,79.60184505861578,137.67344894233295,151.8228550753191,209.3233504734099,193.34612035784485
2.669336002669336,-0.8132267511245868,2.75326602091877,151.4507901321072,82.01885732500564,137.9203760588457,151.99489089440246,209.2263798225408,193.09010184761863
2.702702702702702,-0.8132267511245868,2.75326602091877,155.10153216352316,83.96674101764981,138.12061069591704,152.14757069161033,209.19165757083263,192.86062361293347
2.736069402736069,-0.8132267511245868,2.75326602091877,155.84743365363008,85.49079468703172,138.32113297945548,152.27203948481352,209.2045968188942,192.6606680652795
2.7694361027694363,-0.8132267511245868,2.75326602091877,156.64265820017175,86.95341783333872,138.55697475648157,152.43533941304833,209.2295769473521,192.3638732615301
2.802802802802803,-0.8132267511245868,2.75326602091877,157.3483293911159,88.41623694287085,138.7748972073893,152.57078465685495,209.3025226642397,192.10252866123835
2.836169502836169,-0.8132267511245868,2.75326602091877,157.86105931370753,89.84203113310944,138.94888643287752,152.65113198492887,209.4375934001881,191.9198520468913
2.8695362028695364,-0.8132267511245868,2.75326602091877,158.71337100300696,91.1283181610736,139.08544645634723,152.686647286597,209.62356037258348,191.81869030528188
2.902902902902903,-0.8132267511245868,2.75326602091877,159.60612252217197,92.95353221884424,139.2905809358608,152.8352284233435,209.812539707656,191.5496843912898
2.9362696029362696,-0.8132267511245868,2.75326602091877,160.3522085884709,95.00123964895892,139.45796552403894,152.93527406747114,210.05343390888387,191.3612550517358
2.9696363029696364,-0.8132267511245868,2.75326602091877,161.03015461485168,97.18222521657144,139.53035199766697,152.94534771008526,210.3669546115725,191.32746797406227
3.003003003003004,-0.8132267511245868,2.75326602091877,161.9313509796896,96.56895450713114,139.48590220351622,152.85075837641088,210.7472117884812,191.45975343265383
3.0363697030363697,-0.8132267511245868,2.75326602091877,163.14619594052894,95.41026337586496,139.38479787208703,152.78022899275925,211.1681556352752,191.48370262260568
3.0697364030697365,-0.8132267511245868,2.75326602091877,164.46247589265505,93.60072415893777,139.16067041201788,152.59089097490724,211.6535348743016,191.70790676355224
3.103103103103104,-0.8132267511245868,2.75326602091877,165.90415416228595,91.08776588065436,138.79856938731996,152.267810513585,212.19897889530355,192.18553664381884
3.1364698031364697,-0.8132267511245868,2.75326602091877,167.12025247165434,90.17584561872197,138.31387923140602,151.81915074539043,212.79734891772688,192.88512708036347
3.169836503169837,-0.8132267511245868,3.572930966430568,168.32420477090474,90.96006349859108,137.65106088651598,151.36643554906095,213.624375774704,193.50466330118823
3.2032032032032034,-0.8132267511245868,3.572930966430568,169.48161467113354,91.47630024070492,136.8723810083231,150.77831387468154,214.52303265912337,194.3196139540999
3.2365699032365702,-0.8132267511245868,3.572930966430568,170.4832138878356,91.56831478488536,136.0144135994734,150.07740162852156,215.40145636295816,195.3493942244516
3.2699366032699366,-0.8132267511245868,3.572930966430568,170.53467369561915,90.74240320678469,135.1128791966116,149.27110249448288,216.2378018056906,196.585257040708
3.3033033033033035,-0.8132267511245868,3.572930966430568,171.04418451222634,89.09448215684137,134.1899337802333,148.36685073667616,217.0474435379476,197.8896265841124
3.3366700033366703,-0.8132267511245868,3.572930966430568,171.03920097616378,87.03837648771477,133.24543288008047,147.38341620557642,217.7732012855785,199.36133742760424
3.3700367033700367,-0.8132267511245868,3.572930966430568,170.36818426777413,84.74693109418884,132.28733846573408,146.32794714805098,218.3943055360348,200.99415036373983
3.4034034034034035,-0.8132267511245868,3.572930966430568,170.38292818870815,81.61738910433925,131.3440332400872,145.2382934755716,218.9122830274011,202.7643525811512
3.4367701034367704,-0.8132267511245868,3.572930966430568,168.05613632797125,76.5191837560177,129.94589945616508,143.73764249930665,219.8520965456344,204.8962159081505
3.4701368034701368,-0.8132267511245868,3.572930966430568,166.26559656477892,71.5675218734837,128.62397606694157,142.27354902886762,220.5962090958754,207.0873317523572
3.503503503503504,-0.8132267511245868,3.572930966430568,164.57669029741544,67.86855386094349,127.4636273809606,140.94575180947547,221.0748759984008,209.25487542700745
3.5368702035368704,-0.8132267511245868,3.572930966430568,163.27988635964667,65.2495478662301,126.49702963661768,139.77248938039148,221.27608294887125,211.34974339122093
3.5702369035702373,-0.8132267511245868,3.572930966430568,162.82159982535876,65.29486842185976,125.710318526514,138.81755068490324,221.3000840287606,213.6054597215417
3.603603603603604,-0.8132267511245868,3.572930966430568,162.28319615849998,66.18252862932586,125.11328035348424,137.97750220877583,221.0490732460978,215.7640015722956
3.6369703036369705,-0.8132267511245868,3.572930966430568,161.79322659109488,67.58382856666847,124.74913232803128,137.26216282326715,220.5224251802167,217.74286676606133
3.670337003670337,-0.8132267511245868,3.572930966430568,161.45604322896514,69.31592791363546,124.58905886457455,136.69344786279882,219.74169399019829,219.4819913554549
3.703703703703704,-0.8132267511245868,3.572930966430568,161.54248747786977,70.39477342136695,124.2993385360684,136.01028539562367,218.7877079040913,221.47874516835265
3.737070403737071,-0.8132267511245868,3.572930966430568,161.68260901845568,72.01269985133912,124.332202296215,135.58470377538404,217.50452373005788,223.0628670102772
3.770437103770437,-0.8132267511245868,3.572930966430568,161.8726457127052,74.30750414433871,124.53736562753495,135.41953633685725,216.0353732977597,224.2149794390986
3.803803803803804,-0.8132267511245868,3.572930966430568,162.1510915351524,77.02575245584543,124.94281368372224,135.49822026131437,214.4274053159917,224.9078207963703
3.8371705038371706,-0.8132267511245868,3.572930966430568,164.08692297398312,79.40231512442205,125.84478196304646,135.71188230443732,212.5891569202001,225.3556796217739
3.8705372038705375,-0.8132267511245868,3.572930966430568,165.13809618463048,82.26677175335846,127.00338627598887,136.18046030775574,210.5753737562934,225.2984108818937
3.903903903903904,-0.8132267511245868,3.572930966430568,165.28533667537658,85.6763459231371,128.36432187259814,136.89814386417677,208.48917006436105,224.69537608185232
