Time,Left Shoulder Angle,Right Shoulder Angle,Left Elbow Angle,Right Elbow Angle,Left Hip Angle,Right Hip Angle,Left Knee Angle,Right Knee Angle
0.0,10.444901994249262,22.23720392126701,144.34949169056458,149.20077777073624,130.10654278098804,124.71503782543542,207.0236965863088,213.52866478698647
0.0333667000333667,11.447386399183866,22.207057204427336,143.93594516896405,150.59641988335997,130.1552861188135,125.40513080882246,206.75150356685668,213.21017590223508
0.0667334000667334,12.50365150540086,22.2464579045142,143.79067517121524,151.84860011325867,130.21231710571718,125.97340529003964,206.45682372112392,212.8947604093185
0.1001001001001001,13.60625560691065,22.346470662952925,143.89618205787357,152.95886330418855,130.27429604028086,126.4274981050511,206.14519158752327,212.5840841993288
0.1334668001334668,14.74775699772364,22.49816012116881,144.23496618949426,153.92875429990588,130.33788322108626,126.77504608982092,205.82214170446764,212.2798131633577
0.1668335001668335,15.920713971850237,22.692590920587165,144.78952792663273,154.75981794416683,130.39973894671522,127.0236860803132,205.49320861036972,211.98361319249724
0.2002002002002002,17.11768482330084,22.920827702633304,145.54236762984428,155.45359908072774,130.45652351574944,127.18105491249212,205.1639268436425,211.6971501778393
0.2335669002335669,18.331227846085863,23.17393510873253,146.47598565968426,156.01164255334473,130.5048972267707,127.25478942232172,204.8398309426988,211.422090010476
0.2669336002669336,19.55390133421571,23.44297778031016,147.57288237670798,156.4354932057741,130.5415203783608,127.25252644576616,204.52645544595123,211.1600985814989
0.3003003003003003,20.778263581700784,23.719020358791497,148.8155581414708,156.72669588177203,130.56305326910146,127.18190281878952,204.2293348918128,210.9128417820002
0.333667000333667,21.99687288255149,23.99312748560185,150.18651331452804,156.8867954250948,130.56615619757446,127.05055537735592,203.95400381869632,210.68198550307173
0.3670337003670337,23.202287530778225,24.25636380216653,151.66824825643502,156.91733667949862,130.5474894623616,126.8661209574295,203.70599676501456,210.46919563580536
0.4004004004004004,24.38706582039141,24.49979394991084,153.2432633277471,156.8198644887397,130.50371336204458,126.63623639497436,203.4908482691804,210.27613807129308
0.4337671004337671,25.54376604540144,24.7144825702601,154.8940588890196,156.59592369657437,130.4314881952052,126.36853852595458,203.3140928696066,210.1044787006268
0.4671338004671338,26.66494649981871,24.89149430463961,156.60313530080782,156.24705914675874,130.32747426042522,126.07066418633433,203.18126510470609,209.95588341489835
0.5005005005005005,27.743165477653648,25.02189379447468,158.35299292366716,155.7748156830491,130.18833185628642,125.75025021207766,203.0978995128916,209.83201810519972
0.5338672005338673,28.77098127291665,25.09674568119063,160.1261321181529,155.1807381492017,130.01072128137054,125.41493343914873,203.06953063257595,209.7345486626229
0.5672339005672339,29.740952179618294,25.10711460621298,161.9050532448216,154.46637138897404,129.7913028342605,125.07235070351268,203.1016930021737,209.6651409782613
0.6006006006006006,30.64125452823985,25.06362677676349,163.79910641846297,153.73093747975517,129.30177524534952,124.777911867979,203.4562491542904,209.7048085667369
0.6339673006339673,31.437618307317912,24.89138916981172,165.29131039713903,152.83139605848513,128.86285048639465,124.54472332834912,203.7851819044893,209.719544223644
0.6673340006673341,32.30623119046665,24.52292621415054,167.25694272993252,151.89235076597882,128.4157716470731,124.28861006967551,204.16967686259,209.78419346752187
0.7007007007007008,33.153684825989366,23.866892981093788,168.99234017544143,150.78715923534276,127.96817875515136,124.0106822987984,204.54583061415107,209.9121994059209
0.7340674007340674,33.93299338910435,23.04550785430923,170.79707200324805,149.46009221579158,127.50294971146404,123.76876767635234,205.0260352899165,210.09658577045587
0.7674341007674341,34.431700944562955,22.05066172313796,172.02493167919062,147.90359117777905,127.0331072196598,123.59942685856632,205.55257820807867,210.30509066601152
0.8008008008008008,34.812548492412795,21.022260063897885,173.3212112279825,145.9930740015825,126.5217078130148,123.47370751755584,206.11637233626456,210.5479755873074
0.8341675008341676,34.893634834139206,19.90953075827669,174.41190964112073,144.0902454459026,125.93946069860976,123.38112625995132,206.748543538788,210.81225555138252
0.8675342008675342,34.67121841201203,18.79357275885538,174.91450477962908,142.0399703290646,125.26432490627722,123.32942670751515,207.51843189179945,211.10164201681343
0.9009009009009008,34.230695511422816,17.58767810482774,174.2140498969327,139.9648364954176,124.53668018520796,123.3511538550469,208.3890329016297,211.3956243911544
0.9342676009342676,33.59058607623735,16.403642241488004,172.12410926973018,137.66695338083943,123.778201122123,123.46951184424724,209.3129981432603,211.6682067436844
0.9676343009676344,33.00721207810651,14.954578135083793,171.1448028653733,134.79755136899072,122.96081951449354,123.66379528855852,210.2772707693109,211.9299837552961
1.001001001001001,32.2232236697001,13.697998278901126,174.4443029061176,132.58411350646003,122.11144123345768,123.9322152836018,211.18635200714704,212.1749767512173
1.0343677010343677,31.25965730562909,12.436237265151766,172.61891837725065,129.8557449618424,121.18074597723304,124.29580947787149,212.1034004144428,212.3900758051936
1.0677344010677343,30.19037006357166,11.401038791807846,174.9850621299365,129.19313800071103,120.16082739240493,124.65507472514192,212.9858393024712,212.6267252144167
1.1011011011011012,28.92666335595242,10.388730726040992,176.52508219529105,128.2849306577301,119.15788015367112,125.04750521262396,213.8050493815997,212.8686898947829
1.1344678011344678,27.420432139867582,9.64777416089382,178.05120665407836,127.13851305094038,118.1811578013737,125.4984052576991,214.5954049112318,213.0728986544021
1.1678345011678346,25.884268067738898,8.779332998718552,178.8086335543624,126.12797507734872,117.32506585936898,125.97360398845822,215.2224321036384,213.23689317801657
1.2012012012012012,24.304412235857008,7.913303637260653,179.34802625633623,124.96513299580526,116.4737569596457,126.32773324031388,215.7450139730132,213.471304219677
1.234567901234568,22.47012620137333,6.938682839022724,178.73712151171657,119.27068129501632,115.64978511830084,126.65525819027668,216.3523638298157,213.6705935570364
1.267934601267935,20.535478139320244,6.478075490094671,177.54345945334384,118.76642356783763,114.81565256885752,127.00627946695388,216.9428960987489,213.7535935769353
1.3013013013013013,18.746193097149902,6.145559399239376,172.67428576190767,114.67903120566018,113.77738275116636,127.34811065507525,217.4870839823305,213.7662596667627
1.334668001334668,16.907320037500853,5.817483250156438,168.6156866945784,113.20208192912092,112.81105363161733,127.6231947924769,218.06004498555887,213.78817560650813
1.3680347013680347,15.062270860339153,5.546891581716564,168.7768860268573,112.70606550768204,111.95674969506187,127.84576411401515,218.59489964044388,213.78486761416607
1.4014014014014016,13.236692719758894,5.6095260040026025,169.35590186889968,112.30604416700008,111.19141132176304,128.04735812058965,219.1278919513988,213.70425446218388
1.4347681014347682,11.403013096608042,5.852631868344349,168.6859208102928,112.2546123964571,110.56623822828357,128.22354251753424,219.5728394102272,213.59132597902035
1.4681348014681348,9.580900262502452,6.441832296211459,167.8146182510449,110.22041248514036,110.04038818661382,128.35861116660902,220.00541525427025,213.46025323534585
1.5015015015015016,8.301098757831552,7.168494010111709,166.55722071071662,108.78038305268602,109.50975224545128,128.42356868435925,220.48806359195927,213.387380524417
1.5348682015348682,7.04588324710118,7.432169113652388,164.82379098966447,107.33170872393852,109.02078140467708,128.47154916452772,221.1248021760272,213.30064058201705
1.5682349015682349,5.311862218839541,7.671027440804925,162.00584100023303,105.77791371373458,108.56310166775454,128.46013612188034,221.8808617565072,213.2548287052978
1.6016016016016017,3.869094562711664,7.972389244208913,159.07125852571292,104.2563389369522,108.11317403732524,128.378321478172,222.7032787940837,213.2065251983731
1.6349683016349683,3.869094562711664,8.458900674099173,155.75305584336917,102.27899181342116,107.6955054055436,128.24087417025953,223.47676060689923,213.15306870446065
1.6683350016683351,3.869094562711664,9.037851798831603,152.6383082423914,99.73783106731102,107.32109027099904,128.0770046213401,224.2563784438588,213.08877814886773
1.7017017017017018,3.869094562711664,9.78565007128811,149.67662394998553,96.8774896238566,107.01030884654966,127.90693487983448,225.0187601709978,213.0386395113656
1.7350684017350684,3.869094562711664,10.598865976553324,147.18374972311963,93.58150509010196,106.79341512116616,127.74260537712613,225.7063938414554,213.00679727106652
1.7684351017684352,3.869094562711664,11.442180041617824,144.91749032072278,89.84050084239358,106.70607067537624,127.55679566854946,226.33102343414416,213.0185583314844
1.8018018018018016,3.869094562711664,12.30250196734688,142.94718636202873,85.8620951271488,106.59074116095304,127.3484844405374,226.9955000162439,213.12203372984504
1.8351685018351689,-6.817043285767218,13.25155126753952,140.31090941758885,81.54565809516832,106.52076653464628,127.15721551133312,227.61054441555555,213.2672644877704
1.8685352018685355,-13.804416825783278,14.413650199092578,137.91413458519835,77.04149560033082,106.4560028911627,127.01210271116344,228.28085072234248,213.4380538130121
1.901901901901902,-17.391380884426628,15.712164943715743,135.5414325387886,72.37801862970714,106.44395652841564,126.91285478644602,228.879101570444,213.57835872494505
1.9352686019352687,-17.903184392929212,17.231075675112255,133.7395788419739,67.63976908629205,106.4643646988762,126.850237000623,229.4559363478193,213.70310278624504
1.968635301968636,-15.47067828117708,18.779200855429035,131.84513373334264,63.0437854052506,106.56610611289844,126.8545007771392,229.9989560404092,213.76970329955304
2.002002002002002,-10.325395050067195,20.42156260005187,130.19324704047554,58.368628204707576,106.7180624233301,126.90965587747414,230.53245407243864,213.84533926711475
2.035368702035369,-2.713408173144294,22.09373674613837,129.4049539029562,53.880758604872725,106.9073631203211,126.99160706285416,230.99900705069425,213.97091458698657
2.0687354020687354,7.049811402619265,23.7706403022824,130.08769972369848,49.50694344550244,107.08475898477693,127.0761845469814,231.39401638512595,214.1535206480136
2.1021021021021022,18.47117195488771,25.324929183377005,133.4775388998975,45.47617981699085,107.2202904984795,127.1691877094277,231.73559214746632,214.41096673434052
2.135468802135469,31.5138824011486,27.652786670624906,137.84914282858833,41.771026363936784,107.28467780734188,127.38565538048772,232.02751038558705,214.6637680408516
2.1688355021688355,46.04458953379805,29.86474859066617,138.64014628231592,37.91337272298804,107.2556631068302,127.60423014904872,232.3467919146878,214.93817556389808
2.2022022022022023,61.6388848893847,21.250431815693428,144.49778427869302,37.07237804498668,107.28220625152343,127.75939788768709,232.64882346864528,215.2215092843836
2.235568902235569,77.8755593435525,24.82463130854739,145.45056536466822,33.12192175827247,107.37655679381838,127.85949629770992,232.94294436073565,215.5774528672164
2.2689356022689355,94.81688365311189,28.39069685307372,145.66242561013107,29.43085949178432,107.36769662361242,127.87341572394271,233.3276298010737,216.0019580541267
2.3023023023023024,122.2540148594016,30.870384000763742,144.75204032848586,26.54293582830412,107.24920563674998,127.86852839543933,233.7295857147758,216.4681792604196
2.335669002335669,147.96447719061558,33.91012052554759,142.24423585409997,22.51202278498873,107.05095721115806,127.8075782442081,234.11345081905264,216.9604411462752
2.369035702369036,171.00545488551913,37.12186646123056,140.3739782331067,18.32723535539295,106.80108704182366,127.59863822075764,234.4426454014611,217.5848193289544
2.4024024024024024,190.1032671841968,41.23702384580673,134.44294547459347,19.87698728673076,106.60818005198408,127.25383465881696,234.62962272310529,218.2019401730369
2.4357691024357693,206.9108999460273,44.54807691240693,130.0703868222881,17.808858215697782,106.49375453978308,126.81755223935184,234.69621372785983,218.86949785109385
2.469135802469136,221.6033281327118,47.42460022267209,127.0539613713334,20.101672452097404,106.69806313168525,126.30840308493792,234.5873461494999,219.62355280834504
2.5025025025025025,232.90694179553947,49.69473375574137,125.83585957368209,20.38314866446026,106.9736101979588,125.67728266218973,234.4128513385727,220.4394111394552
2.5358692025358693,241.17093716984732,51.45922571740566,121.66169234623614,20.08900182129909,107.30333877318778,125.01704838572188,234.14411801394792,221.30976840956671
2.569235902569236,245.64965302339348,52.46630182318622,116.04513993857915,20.33001494185638,107.53000303763224,124.33577792315488,233.84158004116,222.19863945569537
2.6026026026026026,248.9815964732261,52.83458111924193,110.80420214216883,20.21689139438334,107.96521481201005,123.65946453599064,233.2458597981194,223.03913381513212
2.6359693026359694,250.00066656809275,52.30418233374655,106.06010200581764,22.387880451900525,108.5786658342734,122.96258400683632,232.33753257066925,223.82637819018112
2.669336002669336,247.458283668334,50.89448787435843,101.74525854563755,24.59045879647308,109.49220912755472,122.24810446759342,231.00211442097483,224.57918070105708
2.702702702702702,241.8991227410928,49.33832896053773,98.12676574405732,27.111877970684905,110.30340224109146,121.50397915426105,229.77329584084265,225.32076275910384
2.736069402736069,233.3770043165648,47.45243702651191,96.03073836655108,29.902322674760825,110.9140503621371,120.74054211051038,228.82125494387108,226.07434060008364
2.7694361027694363,221.3722120165763,45.11469532082132,94.75969850933662,32.150980574637,111.40596364906165,119.9808078631038,228.123124113444,226.86760288704883
2.802802802802803,206.7443313259984,42.48028982046743,95.74720249425596,34.46148223540963,111.89145731029085,119.38048840403872,227.55179129248745,227.77348640494432
2.836169502836169,189.84088576526344,40.2481582118313,96.89731502948123,38.31462835386399,112.51410170370522,118.8234312890877,227.1997700674996,228.54015889166425
2.8695362028695364,170.1719561067897,38.30570162737084,99.71047923956507,43.205806506329616,113.15586471809875,118.23721933333404,226.8882021537485,229.10238208839172
2.902902902902903,148.25059314462345,36.36103922076678,102.4730211048888,48.55756277046348,113.7229372706026,117.67724005356524,226.64401598092132,229.63465472044507
2.9362696029362696,124.67739424603444,34.18301617528668,105.91994007808562,54.00299706476631,114.1344752350471,117.1317629049206,226.58953637370243,230.0668487746788
2.9696363029696364,99.04161153032771,32.001484808724825,109.53255811580428,59.73678245572395,114.62956064140468,116.65020589834158,226.53888766192932,230.38410060847733
3.003003003003004,84.9172393811714,30.03352459686109,114.23083293303304,66.09060325461914,115.20422903189215,116.22270837127031,226.44239085842327,230.73087856609865
3.0363697030363697,71.06512523135224,27.94396048186535,119.46070934755232,72.55281403149634,115.83250650112572,115.94696267858214,226.3197623489901,231.1078584072084
3.0697364030697365,58.65832895556995,26.03735161843318,124.76911390663692,79.763544659432,116.52911328969694,115.8204018443479,226.17559679745924,231.46107463060483
3.103103103103104,47.3472009050696,24.0470901982429,130.25824202998106,86.93909688101306,117.289994679826,115.86828834610888,226.00449094357035,231.72989538605736
3.1364698031364697,37.50012626846744,22.13887606330943,136.4061593318627,94.34963835761438,118.09005584390468,115.94414242492934,225.83433583058687,232.01071988504452
3.169836503169837,29.479968952002245,19.91616607549507,145.36058243818584,105.34375709429835,118.9219929625415,116.02945456153128,225.6436534185233,232.29798299599955
3.2032032032032034,22.83783291811954,17.958522239798988,154.80834733886277,115.41663005850364,119.73425481785628,116.14602558075828,225.44771244807777,232.5941003240829
3.2365699032365702,17.885102114826704,11.774498074707996,163.0572817657203,112.84305693271178,120.52029202827292,116.36328495580456,225.2323432689956,232.79374178074792
3.2699366032699366,14.817031525925596,9.394692940003392,170.79116274879573,122.46233667881296,121.32715598590327,116.60353476485903,225.05572601462225,232.9558852519476
3.3033033033033035,13.943687648882834,6.154157890799773,175.9340908064264,126.86680700809396,122.1039169530665,116.73403499329903,224.9634600294956,233.18084877861835
3.3366700033366703,14.995430137386878,5.163536513187632,173.84193388499767,127.36228078983356,122.93681539563492,116.77862157970849,224.90300861899647,233.4610699865908
3.3700367033700367,18.48251497746171,5.163536513187632,170.3997922938678,132.53287549516162,123.71297508686234,116.93478593674544,224.8480533926365,233.71599911944605
3.4034034034034035,24.070918399876746,5.163536513187632,166.78808256277114,139.16068498092602,124.39514045753006,117.20579591181924,224.80894075644795,233.8290848592474
3.4367701034367704,26.65460189884508,5.163536513187632,162.96918846394232,143.59390568396066,125.0941209776008,117.58205052460887,224.6887491980907,233.85047459712328
3.4701368034701368,21.21460962669145,5.163536513187632,163.8172539123252,145.1402181736639,125.86499510809502,117.9418053706424,224.46081057358325,233.8444025973925
3.503503503503504,16.85430175974617,18.342792229102653,164.49735942260224,144.99827417147554,126.7406603052339,118.29253576674218,224.0767037122693,233.84237427415115
3.5368702035368704,13.960030408490466,20.539840252651103,160.37362923672347,144.08349122511544,127.75664339199682,118.69005821628004,223.5084313272353,233.733420414569
3.5702369035702373,14.191630977493936,23.14219180234257,157.58857225625218,141.81656744642348,128.85799220578883,119.14227910331373,222.833496586414,233.64240334261663
3.603603603603604,16.077588223679015,26.499772084329607,151.1218759730967,136.9347601035997,130.01888416640273,119.6492077433055,222.001335807477,233.5173673150502
3.6369703036369705,18.67659724135601,30.24401713024209,146.2623207928246,128.88150400025745,131.17293617037106,120.2269242314934,221.109335238353,233.2997030993769
3.670337003670337,29.969831589571616,34.4122958615011,139.8305681704249,121.20183015305308,132.35918075537984,120.9217074280634,220.0145907257989,232.98504743939728
3.703703703703704,40.81055544791872,37.18308510433744,132.59008956601704,113.84752926103688,133.59503637054905,121.68977640993673,218.73888128199505,232.58338036713133
3.737070403737071,51.70430580486512,38.89963695062077,124.80992054278904,106.3495684847374,135.05539309669066,122.48825700516912,217.20082592835,232.1240983502868
3.770437103770437,60.36718252909879,29.86817627100193,117.83479815794358,99.22881590461525,136.45909755565208,123.3199825666448,215.6945836223541,231.6544005693436
3.803803803803804,67.19459168310942,24.19107575256162,110.7312710350687,92.26761097954233,137.72419185819487,124.18264373129328,214.35101254177465,231.17456111928584
3.8371705038371706,73.3622211758708,21.230189113291686,104.30377590976114,85.329993675891,138.65601749938972,125.04429670260404,213.5735645703519,230.74416266439812
3.8705372038705375,78.52625556936783,20.68130286700449,98.18690772618608,79.3145376486543,139.54639542108362,125.95474370012116,212.9965639730325,230.27394411305792
3.903903903903904,83.28130813865815,22.1778479347844,92.81956283295492,74.50780198208875,140.42201315412885,126.88028752801048,212.47912426205065,229.78270073376325
3.937270603937271,81.32311332507167,25.55998289619249,88.60430080361816,71.87181068328916,141.35219672483572,127.81518745074904,211.9224929382357,229.18805646383169
