Time,Left Shoulder Angle,Right Shoulder Angle,Left Elbow Angle,Right Elbow Angle,Left Hip Angle,Right Hip Angle,Left Knee Angle,Right Knee Angle
0.0,25.667539222214643,44.89010795554255,162.50321535109674,171.68149766238332,137.17698549839062,137.65735636238503,203.00536889151323,202.9588792316677
0.0333667000333667,25.61440398672404,44.33675069552843,162.04267891100778,170.97831476109425,137.18586007629224,138.0821315998427,203.20188261239363,203.0022270387282
0.0667334000667334,25.54924576640516,43.87340842189362,161.60042715569767,170.42488771370586,137.26177149109543,138.4586909801773,203.2447400757616,203.0396526707661
0.1001001001001001,25.475550987459755,43.49454691739706,161.18075593462382,170.0108618883048,137.39781475967794,138.78886103113595,203.14816572163795,203.07212742637188
0.1334668001334668,25.39680607608957,43.19463196479768,160.7879610972436,169.72588265297753,137.58708489891754,139.07446828046588,202.9263839900437,203.10062260413585
0.1668335001668335,25.31649745849636,42.9681293468544,160.42633849301438,169.5595953758107,137.82267692569192,139.31733925591428,202.5936193209997,203.12610950264835
0.2002002002002002,25.238111560881872,42.80950484632618,160.10018397139356,169.50164542489077,138.09768585687883,139.51930048522826,202.1640961545268,203.14955942049983
0.2335669002335669,25.165134809447853,42.71322424597192,159.8137933818385,169.54167816830434,138.40520670935598,139.68217849615507,201.65203893064592,203.1719436562807
0.2669336002669336,25.10105363039605,42.67375332855058,159.5714625738066,169.669338974138,138.73833450000114,139.80779981644187,201.07167208937804,203.19423350858128
0.3003003003003003,25.049354449928224,42.68555787682108,159.3774873967552,169.8742732104782,139.09016424569205,139.89799097383585,200.437220070744,203.217400275992
0.333667000333667,25.01352369424611,42.74310367354236,159.23616370014176,170.1461262454116,139.4537909633064,139.95457849608417,199.76290731476467,203.2424152571032
0.3670337003670337,24.997047789551463,42.84085650147334,159.15178733342358,170.4745434470247,139.822309669722,139.979388910934,199.062958261461,203.2702497505053
0.4004004004004004,25.00341316204604,42.97328214337296,159.1286541460581,170.84917018340408,140.1888153818165,139.97424874613253,198.3515973508539,203.3018750547886
0.4337671004337671,25.03610623793158,43.13484638200016,159.17105998750264,171.25965182263627,140.54640311646767,139.94098452942697,197.6430490229642,203.3382624685436
0.4671338004671338,25.098613443409835,43.320015000113855,159.2833007072146,171.69563373280783,140.88816789055326,139.8814227885645,196.95153771781287,203.3803832903606
0.5005005005005005,25.19442120468256,43.523253780473,159.4696721546514,172.14676128200531,141.207204720951,139.79739005129224,196.2912878754208,203.42920881883003
0.5338672005338673,25.327015947951487,43.73902850583652,159.73447017927035,172.60267983831528,141.49660862453862,139.6907128453574,195.67652393580883,203.48571035254227
0.5672339005672339,25.499884099418573,43.9618049589637,160.08199063053027,173.05303476982567,141.74947461819502,139.56321769850834,195.1214703389995,203.5508591900894
0.6006006006006006,25.94754121827852,44.16505754835033,160.7660858602411,173.4112212235704,141.8641453192504,139.34630102424794,194.78210200635183,203.6712404558694
0.6339673006339673,26.384618891088586,44.35055166204586,161.66668793166326,173.68275610312492,141.931638774688,139.15209522158068,194.60969748826585,203.7869307849465
0.6673340006673341,26.84449827896271,44.51720184263499,162.5707294572866,173.90916533656537,141.91456542490997,138.96744275414818,194.58170043673653,203.9073388324477
0.7007007007007008,27.358974528538567,44.70055481263875,163.5170254023736,174.10754000452016,141.8189369307898,138.78125624164704,194.67481866789697,204.04123030433072
0.7340674007340674,27.909675205745017,44.84863437730719,164.50941664131338,174.22659024056216,141.64195054904434,138.56512279884498,194.897677074889,204.18030250397229
0.7674341007674341,28.45086787607841,44.96760209348778,165.48158193573627,174.28704283168994,141.39991964807348,138.34756360543668,195.24138793397591,204.32645382236308
0.8008008008008008,28.99862642102456,45.03411550498395,166.47856855668718,174.28149658427185,141.09719938154927,138.14500079502824,195.69636606394656,204.47657363409027
0.8341675008341676,29.579424422847406,45.07487775247849,167.5614795020178,174.24191495271657,140.80355682858917,137.93382987832177,196.1771885790115,204.63861648814137
0.8675342008675342,30.1677015650085,45.073427008614544,168.69223979400985,174.1555366530144,140.48320016442122,137.72846124243472,196.6895249903872,204.80844316576503
0.9009009009009008,30.78512644920544,45.05410903680576,169.87494057006765,174.03665340365922,140.0952498729392,137.51948441087873,197.36143830555105,204.97627282896573
0.9342676009342676,31.39554158179182,44.97955271274364,171.0642260882699,173.83799898957184,139.63064219257768,137.32708889439633,198.160452454726,205.14559156567657
0.9676343009676344,32.0006466432798,44.95703670403351,172.1942678227935,173.67450591718554,138.85200600687003,137.13472335515877,199.55431921281377,205.3164636260743
1.001001001001001,32.630059972938064,44.86940670930646,173.3313729591654,173.41677168632324,137.98831331270156,136.95874028357954,201.05569971499023,205.49345401243005
1.0343677010343677,33.28319594588039,44.66598393984225,174.47409568446787,172.94442949446142,137.12813061682706,136.77187551848516,202.53680478124613,205.6681268303801
1.0677344010677343,33.9388677168287,44.34685905848477,175.55553318847646,172.3232903544846,136.22862198385576,136.6107477170536,204.05057669978527,205.84415098015032
1.1011011011011012,34.545159007470346,44.03876628770686,176.62284387349837,171.66416026423104,135.64285116871125,136.46909844920307,204.92917860614708,206.04047514364663
1.1344678011344678,35.07291917476043,43.67446497227057,177.62038176219116,171.03134024122605,135.2046912894069,136.35468096481375,205.4572375432661,206.26302202253723
1.1678345011678346,35.50623038525473,43.34200473791048,178.51847670273668,170.52739849930424,135.48985803423903,136.28920412183476,204.4307644140353,206.48666648385569
1.2012012012012012,35.885300779480374,42.971573792887554,179.3564097188338,170.06480097707973,135.81367230643397,136.2458181247451,203.35653879897515,206.7078239720362
1.234567901234568,36.25092210054268,42.580036316892425,180.06769508095977,169.5869104865972,135.75721923744536,136.20180790451394,202.6185772869466,206.90739731806144
1.267934601267935,36.53571414100966,42.10338134278089,180.6082687721133,169.10707571624687,135.49031464655448,136.20604673590276,202.3473573778336,207.0863138848756
1.3013013013013013,36.72270674308123,41.617838077180416,180.94936329701864,168.6330046168446,135.2193298513381,136.22687169470638,202.4253300391229,207.30697353151007
1.334668001334668,36.7930391301501,41.00859381281494,181.17091370589253,168.11036250340894,134.88126821026026,136.2911830927543,202.72896948543644,207.53182126832309
1.3680347013680347,36.74205111390868,40.33136449907358,181.2142290456804,167.54446989181938,134.49546693183973,136.40399050936574,203.1820862375173,207.74565862687868
1.4014014014014016,36.55150197383158,39.56451026633656,181.15433634181923,166.99827782600397,134.03776927757016,136.55571227813886,203.81290121821107,207.949512065182
1.4347681014347682,36.2817630908541,38.7858594469183,180.90254182420148,166.5857775920982,133.4234254048862,136.77684599945562,204.4987210932514,208.0449491073555
1.4681348014681348,35.97758009069773,37.9565905091221,180.74295042508464,166.28860299707156,132.56493833703732,137.02714683744088,205.6323771446788,208.114856684999
1.5015015015015016,35.740430871671826,37.18133893327584,180.61516111549005,166.11413325073556,131.5044205903817,137.19871270434248,206.8561177474593,208.314721830944
1.5348682015348682,35.440831973718026,36.3186590080095,180.55871688068856,166.0118059941256,130.51640024162506,137.40561244672202,207.9983281109275,208.5164474476015
1.5682349015682349,35.14064397937804,35.447717013490006,180.39999285447328,165.99028569879607,129.58114356707114,137.6863343908687,209.013918743247,208.66462704715585
1.6016016016016017,34.795793998488854,34.46262752346105,180.36581079916115,165.90521628231753,128.63725576358124,138.0276754132844,210.0821957830506,208.76954205586952
1.6349683016349683,34.42476194543659,33.532067994777414,180.36013664207871,165.72743314689745,127.74704601050688,138.43330495496784,211.2100344386908,208.8140446482489
1.6683350016683351,34.025708414925035,32.465198887449056,180.60845117382308,165.48891589219474,126.89498166665138,138.89341965411546,212.403677951171,208.80394408188448
1.7017017017017018,33.606714565298574,31.28114406820489,180.714760934678,165.01197985223968,126.12124002335275,139.4036767169482,213.69900638209737,208.73476198080644
1.7350684017350684,33.075854501788974,29.973675719298186,180.99350577967883,164.5369581446798,125.3945233964664,139.96044817261222,215.0776292763684,208.6088623688939
1.7684351017684352,32.43989300367266,28.634555439029228,181.22169273773184,164.04609577116415,124.68751579598045,140.51837483115872,216.4887047865421,208.46175946313852
1.8018018018018016,31.711979609466656,27.22746053031511,181.6992469835709,163.69151399186427,123.9942626275592,141.09466425965894,217.9367512188384,208.26546996150367
1.8351685018351689,31.164556977226017,25.696755554284746,182.6519344001684,163.37590914796846,123.37025179315016,141.6873201595069,219.34196426760707,208.02939869225165
1.8685352018685355,30.4600115090344,24.062283520441003,183.8189033975109,163.09278125887295,122.80341103126923,142.27515396928342,220.72412811510048,207.7549617818514
1.901901901901902,29.254263541027647,22.324074681007605,184.74901857737385,162.94524983326005,122.30573854128411,142.88425017853356,222.12215845377835,207.4484738770861
1.9352686019352687,27.925201073218176,20.529450599697203,185.98417655767705,162.81489087111623,121.89942488080295,143.48650433960043,223.52047162939576,207.1136880062808
1.968635301968636,26.42110820583455,18.679936753632333,187.0653151198148,162.56922917096375,121.61518831577328,144.06953658520658,224.8724325491819,206.75527525630548
2.002002002002002,24.89422759946289,16.869649038561384,188.27044908272617,162.4643452006956,121.34539474754456,144.65170017981973,226.2632339029733,206.3674070895951
2.035368702035369,23.244880446990933,15.122610952824171,189.48193783801213,162.2267424677946,121.073137929285,145.21022996869007,227.70558011547823,205.9600069052035
2.0687354020687354,21.64349611619376,13.505114258515386,190.8431288963913,162.08993322786372,120.82420442748922,145.76270703893525,229.10389296731967,205.54629489910292
2.1021021021021022,20.032667119324305,11.869903804065732,194.91337051458092,162.08447764700668,120.60421993585018,146.2764609747569,230.41979149229795,205.13732027541508
2.135468802135469,18.564909180863445,10.356355651652148,198.22148216140724,162.7031194404659,120.73320011617184,146.7714532352596,231.0415104116904,204.73454895109683
2.1688355021688355,17.163370619220764,8.78714055933058,200.77018619673328,161.92348373631174,121.10909739125806,147.2401160759796,231.21879725047307,204.3326611716442
2.2022022022022023,15.947719478016833,7.508496508160746,202.57968153118583,161.7035422193374,121.68066912868927,147.70654380912245,231.009270342638,203.9486277383229
2.235568902235569,14.83141647561316,6.6820964767348325,203.73022867466204,165.4339613782821,122.47950754916398,148.15213425729257,230.3123340049041,203.57384158308287
2.2689356022689355,13.96810458132504,6.119819921167973,204.2239855755844,168.77362959165143,123.37278806263154,148.56578490186584,229.3422337559585,203.2092850840404
2.3023023023023024,13.227500997613832,5.770425369081467,204.10771445832447,172.62322606068224,124.38874336016492,148.9454711301647,228.04335720307145,202.83673991996733
2.335669002335669,12.813672663418965,5.670127822994779,203.44052175306336,175.56022098448707,124.72633712447497,149.27472888435798,228.13550853159867,202.45573164691217
2.369035702369036,12.568939796056505,5.670127822994779,202.2236064553008,177.64491078761114,124.80945419630956,149.57994740625696,228.63515308033288,202.09187908704644
2.4024024024024024,12.620449615889251,5.670127822994779,200.55453829416624,178.7061612693427,125.00481503346316,149.8495341873737,229.36903766580284,201.80292667804008
2.4357691024357693,12.923163717630962,5.670127822994779,198.4004542934389,178.3984890641362,125.22714688646784,150.07994475777653,230.115823458006,201.59505753073927
2.469135802469136,13.55798923357364,5.670127822994779,195.92013639962752,177.1015006397808,125.27455342794036,150.27867966487912,230.9122386744888,201.407281537872
2.5025025025025025,5.8205694554508565,5.670127822994779,193.16388795865768,175.36237531838597,125.21162417089238,150.4240028003757,231.74717957315872,201.2501740226268
2.5358692025358693,1.2604838717576907,5.670127822994779,190.24953351694984,173.06028026928283,124.97081404235117,150.5177100650313,232.695699456706,201.1193259307273
2.569235902569236,1.2604838717576907,5.670127822994779,187.24209875400743,170.28235508482874,124.55809672360095,150.56686045545328,233.7584734982216,201.018470194785
2.6026026026026026,1.2604838717576907,5.670127822994779,184.1332443550086,166.5617637384852,124.2816611090908,150.5336922460335,234.6213592101696,201.06645933175727
2.6359693026359694,1.2604838717576907,5.670127822994779,180.91993563055968,162.0829589174993,124.0897105483232,150.4065246494408,235.2307201386897,201.2353464811277
2.669336002669336,1.2604838717576907,5.670127822994779,177.58619698163727,157.06966181172305,124.09655970421352,150.33210191160393,235.72128393051617,201.3378299335278
2.702702702702702,1.2604838717576907,5.670127822994779,174.02333833911388,151.8063647168054,124.10834717097494,150.27019847749713,236.18741962214543,201.42408335044885
2.736069402736069,1.2604838717576907,5.670127822994779,170.68928925068397,146.33622103996305,124.12010216795098,150.18271819507325,236.75034227553715,201.5347222751901
2.7694361027694363,1.2604838717576907,5.670127822994779,167.46791283983933,140.5940016932994,124.15516424040229,150.0646570206675,237.3054325716439,201.66441962678687
2.802802802802803,1.2604838717576907,5.670127822994779,164.42711680477657,134.71313026020917,124.17936735154302,149.91407063753888,237.8670104902501,201.82260885637805
2.836169502836169,1.2604838717576907,5.670127822994779,161.43620199785136,128.66502574097302,124.24655931317466,149.73901764443497,238.3309549583948,202.000199807989
2.8695362028695364,1.2604838717576907,5.670127822994779,158.96158077306393,122.77632105347364,124.29353331636904,149.533850198237,238.70715246392567,202.213377821636
2.902902902902903,-0.3143560675284798,5.670127822994779,156.76522371461337,116.8483434235574,124.33798945974203,149.30526742732874,238.9903346164988,202.47036929794805
2.9362696029362696,0.8361149486759052,5.670127822994779,155.1391577235147,111.08660396845256,124.40983583868088,149.0773121767038,239.1998589364419,202.73457954677943
2.9696363029696364,4.668536928156915,5.670127822994779,153.80230486921135,105.44978788485298,124.50910936060804,148.85590533600916,239.34032281344005,203.01213636153875
3.003003003003004,4.668536928156915,5.670127822994779,152.5233317276122,100.08586273096827,124.59493201744976,148.62381114540153,239.50235181527,203.28960771502824
3.0363697030363697,4.668536928156915,5.670127822994779,151.41749204044518,95.15548109989182,124.75276833332644,148.42418271205327,239.65116837733893,203.5076675145501
3.0697364030697365,4.668536928156915,5.670127822994779,151.10516054914774,90.627798883176,124.95644622027298,148.241439992137,239.7207996724076,203.71251012677
3.103103103103104,4.668536928156915,5.670127822994779,151.20981912090247,86.64097219356346,125.17876443534948,148.08310231799163,239.68353850792727,203.8871275372416
3.1364698031364697,4.668536928156915,5.670127822994779,152.28235132806267,83.64178451877616,125.37356094007065,147.9307845592446,239.5589862284376,204.07112766581253
3.169836503169837,4.668536928156915,5.670127822994779,154.23264634627603,80.20579716108676,125.49051107672612,147.77293507029134,239.41551868814184,204.2435201440214
3.2032032032032034,4.668536928156915,5.670127822994779,157.02591709027274,77.89092265093915,125.55234816424188,147.60810800211246,239.25947442380823,204.44702655019532
3.2365699032365702,4.668536928156915,5.670127822994779,160.3722533096542,76.09443266158517,125.61195282531332,147.4430485565509,239.0762815791537,204.6653177111793
3.2699366032699366,4.668536928156915,5.670127822994779,160.97052656710127,75.52641746186747,125.61716849018718,147.3071534452427,238.899239544396,204.8776714262086
3.3033033033033035,4.668536928156915,5.815631223974859,161.75558696634664,71.47583040493264,125.62560686875143,147.1109450891651,238.7035810822326,205.16208211327915
3.3366700033366703,4.668536928156915,6.217594473525823,162.36833424176248,71.75513934048887,125.56440935512302,146.89455618726416,238.5244856088709,205.5173887722933
3.3700367033700367,4.668536928156915,6.640078521754607,161.11230352354184,75.96898741301801,125.33131800468384,146.67494245464894,238.50973772163863,205.84067306114784
3.4034034034034035,4.668536928156915,7.251302637534114,160.05174065884276,78.2339155578139,124.93592030918184,146.4407268845979,238.64093640985223,206.2077238268633
3.4367701034367704,4.668536928156915,8.227377329204806,159.63229770597735,82.27523093999194,124.18095544840352,146.22412759753485,239.2549358145155,206.5629791698026
3.4701368034701368,4.668536928156915,9.52236233563744,159.37237533423215,85.74526770768979,123.4826842158383,145.9824553026933,239.7200621540068,207.01504368983228
3.503503503503504,4.668536928156915,10.979508393500144,159.56360993974218,90.13410177454216,122.836305868736,145.8568515982724,240.03375468385696,207.43237732394732
3.5368702035368704,4.668536928156915,12.634554004325206,159.87160180262362,94.3705199700241,121.90124356602702,145.837010467175,240.37504476092155,208.1233435358727
3.5702369035702373,4.668536928156915,14.643494466155582,160.60518179881117,98.82137235097056,121.42673177918036,145.87161195374637,240.35123669198987,208.7184194117502
3.603603603603604,4.668536928156915,16.786055221146697,161.57216910924458,103.59593435223792,121.22197409636772,145.86206157893372,240.1052872713473,209.30010091714988
3.6369703036369705,4.668536928156915,19.19095757148405,162.86102425815432,108.73697735481892,121.06561174119314,145.7974622494045,239.7282197157988,209.985374201344
3.670337003670337,4.668536928156915,21.73297549677831,164.2355368681367,113.5496320294398,121.0311207982571,145.65598831455773,239.15932958856743,210.74827296287305
3.703703703703704,4.668536928156915,24.434791804465743,165.72751466151487,118.17675986468208,121.14924678842053,145.510935352187,238.22834322522968,211.5852181850242
3.737070403737071,4.668536928156915,27.07126515767629,167.15658421190375,122.45987833478247,121.45197341179843,145.3123650089405,237.018769294814,212.4733939295252
3.770437103770437,4.668536928156915,29.723076229615508,168.5217116181341,126.61180195536288,121.77176261110364,145.0272632405483,235.75706805800752,213.5151481602408
3.803803803803804,4.668536928156915,32.339025746773416,169.84498705323907,130.80533258207035,122.10013984537426,144.61889751299077,234.42719824675743,214.65398758525933
3.8371705038371706,4.668536928156915,34.917986391802216,171.3031439416075,134.6830739535397,122.46565129500148,144.15805265733184,233.06426467860547,215.9429145018833
3.8705372038705375,4.668536928156915,37.34713230306788,172.86962890878152,138.10786694511177,122.82547477862371,143.6206582779625,231.65343133386048,217.2056461477391
3.903903903903904,4.668536928156915,39.65894719609088,176.03250713682405,141.3617674644026,123.27000843335804,142.6904996860547,230.06512745128464,218.69364030280616
3.937270603937271,4.668536928156915,41.84326693700568,178.9796956180666,144.19325698424905,123.76762379181343,141.68838869191353,228.5462682667663,220.1385513516112
