Time,Left Shoulder Angle,Right Shoulder Angle,Left Elbow Angle,Right Elbow Angle,Left Hip Angle,Right Hip Angle,Left Knee Angle,Right Knee Angle
0.0,4.181092948801278,5.285414315403966,184.1576612340711,170.6845182115673,162.0983205504354,202.104810309069,182.54342477083148,179.811939011082
0.0333667000333667,4.190641073803587,5.233293070367056,183.4485369162149,170.31616432904386,162.27252461267688,202.20927327840784,182.20515980148247,179.91570628491488
0.0667334000667334,4.174982294448328,5.1906661605735245,182.8151686218676,170.0283726326116,162.43039412765273,202.31406496142185,181.9065182294059,179.9925788515721
0.1001001001001001,4.137515478176465,5.156461410516581,182.2534593135965,169.81689783863953,162.57235004611414,202.41882498016025,181.6457087043147,180.04399163160744
0.1334668001334668,4.081639492428957,5.129606644689435,181.75931195396947,169.67749466349665,162.69881331881234,202.52319295667232,181.42093987592204,180.07137954557462
0.1668335001668335,4.0107532046467655,5.109029687585297,181.328629505554,169.6059178235519,162.8102048964985,202.6268085130073,181.2304203939411,180.07617751402742
0.2002002002002002,3.9282554822708495,5.093658363697377,180.9573149309178,169.59792203517424,162.90694572992385,202.72931127121456,181.07235890808505,180.0598204575196
0.2335669002335669,3.837545192742173,5.082420497518884,180.6412711926284,169.6492620147327,162.9894567698396,202.83034085334324,180.9449640680669,180.0237432966049
0.2669336002669336,3.742021203501695,5.074243913543028,180.37640125325345,169.75569247859625,163.05815896699693,202.92953688144271,180.84644452359987,179.96938095183708
0.3003003003003003,3.645082381990376,5.06805643626302,180.1586080753605,169.9129681431338,163.11347327214708,203.02653897756213,180.7750089243971,179.8981683437699
0.333667000333667,3.5501275956491765,5.062785890172068,179.98379462151732,170.1168437247144,163.1558206360412,203.1209867637509,180.7288659201717,179.81154039295714
0.3670337003670337,3.460555711919058,5.057360099763384,179.84786385429138,170.36307393970702,163.18562200943057,203.21251986205823,180.7062241606368,179.7109320199525
0.4004004004004004,3.379765598240982,5.0507068895301765,179.74671873625033,170.64741350448062,163.20329834306628,203.3007778945334,180.7052922955056,179.5977781453098
0.4337671004337671,3.311156122055908,5.041754083965656,179.67626222996182,170.96561713540416,163.20927058769965,203.38540048322565,180.7242789744912,179.47351368958277
0.4671338004671338,3.258126150804798,5.029429507563031,179.63239729799344,171.31343954884665,163.20395969408185,203.46602725018425,180.7613928473066,179.33957357332517
0.5005005005005005,3.224074551928612,5.012660984815514,179.61102690291278,171.68663546117705,163.18778661296403,203.5422978174585,180.8148425636651,179.19739271709074
0.5338672005338673,3.2124001928683104,4.990376340216312,179.6080540072875,172.08095958876433,163.1611722950975,203.6138518070977,180.88283677327985,179.04840604143322
0.5672339005672339,3.2124001928683104,4.961503398258682,179.6193815736867,172.49216664797896,163.12453769123462,203.68032884115257,180.96358412586528,178.8940484669079
0.6006006006006006,3.2124001928683104,4.922009929994559,179.57017500745704,172.85362505780478,163.09683104574188,203.7633255591636,181.0349153915935,178.70597153360086
0.6339673006339673,3.2124001928683104,4.867552141747061,179.53943328874652,173.23173496131898,163.0619751206998,203.8377475997385,181.11406502202496,178.50851375113285
0.6673340006673341,3.2124001928683104,4.832025157961117,179.47299898428147,173.62766296604488,163.0281052081825,203.850694966277,181.19781089282003,178.37637749093852
0.7007007007007008,3.2124001928683104,4.783947025020446,179.40786548812994,174.03970742055347,162.96330638124667,203.8346719733966,181.3143582795741,178.26565671017215
0.7340674007340674,3.2124001928683104,4.707310426976792,179.37023656116472,174.4300212567641,162.8753411364772,203.81019190452776,181.4458678107316,178.16323547474545
0.7674341007674341,3.2124001928683104,4.580821570769515,179.3470003136303,174.8216597941368,162.78209574490262,203.7883302761221,181.56014491575428,178.0644585741098
0.8008008008008008,3.2124001928683104,4.420606336281469,179.23371937583386,175.17866087814116,162.6839995999537,203.76680061560867,181.656507831653,177.98839761796413
0.8341675008341676,3.2124001928683104,4.238115982486705,179.13637368718494,175.54984030049164,162.5650026961365,203.7556134853959,181.7583806192136,177.9102853941382
0.8675342008675342,3.2124001928683104,4.001194238832923,179.09562079363153,175.89962208449768,162.42915298935765,203.748899950898,181.85784158687,177.81879800668708
0.9009009009009008,3.2124001928683104,3.746644159250637,179.10112867286276,176.27286262815807,162.27701789854942,203.75617149187937,181.9664448823208,177.71745783488765
0.9342676009342676,3.2124001928683104,3.440121494571176,179.1053328550132,176.648781498763,162.0858781276192,203.75291102699143,182.0874898732692,177.64382441271238
0.9676343009676344,3.2124001928683104,3.149441464349836,179.1247258308893,177.03946888571113,161.87509620113389,203.75533531716,182.21610130198545,177.57037633172288
1.001001001001001,3.2124001928683104,2.841423322077929,179.19125338122953,177.49252047190743,161.64461195165595,203.77410867075704,182.35883963257425,177.48136095935968
1.0343677010343677,3.2124001928683104,2.553268676842658,179.1925138563582,177.9564803327595,161.41294581466948,203.81415165121092,182.5038268452,177.36266062446745
1.0677344010677343,3.2124001928683104,2.349718629025676,179.1235385422703,178.23483804787404,161.18314479249298,203.87662376019887,182.64451261892447,177.24287463472433
1.1011011011011012,3.2124001928683104,2.201359891321881,179.09090560790767,178.5150079710109,160.95261274475558,203.9704222680228,182.7952186250824,177.10358251439612
1.1344678011344678,3.2124001928683104,2.03724336781234,179.1885468091777,178.78330130703333,160.73582858035806,204.12092832902388,182.9428819515504,176.934811663222
1.1678345011678346,3.2124001928683104,1.911423826839501,179.3157992157419,179.09165885408862,160.5192287232262,204.3062283838918,183.09594406549627,176.73406446125358
1.2012012012012012,3.2124001928683104,1.7698192240169746,179.45055372998368,179.57538171037731,160.33319296850212,204.54701856580903,183.2383693319265,176.46651227951412
1.234567901234568,3.2124001928683104,1.683677405111297,179.6476236036992,180.0944424997792,160.17807607168982,204.81336963389023,183.3685305571027,176.16452758489984
1.267934601267935,3.2124001928683104,1.66144002346594,179.87727162591534,180.5609175669646,160.05563199074825,205.12104615441305,183.49605069147728,175.83128582828982
1.3013013013013013,3.2124001928683104,1.66144002346594,180.09933240621444,181.004845826308,159.92765117059866,205.3958050674432,183.6333455188576,175.52315375087366
1.334668001334668,3.2124001928683104,1.66144002346594,180.2877944531264,181.4111811174685,159.79073840399352,205.626539634822,183.7788750017426,175.2541694963743
1.3680347013680347,3.2124001928683104,1.66144002346594,180.50241904580383,181.8534177902944,159.65916034050542,205.8217398481098,183.9273089905025,174.99794801755505
1.4014014014014016,3.2124001928683104,1.66144002346594,180.8598896749737,182.1892553531845,159.54710032592897,206.0152622930511,184.07678030988032,174.7343320383194
1.4347681014347682,3.2124001928683104,1.66144002346594,181.3717314664173,182.4835928615181,159.4567143558317,206.1832910389429,184.2279470803727,174.48422378548065
1.4681348014681348,3.2124001928683104,1.66144002346594,181.92718759129943,182.69333463893213,159.37513359094032,206.3068800810252,184.3803117349837,174.2727792419371
1.5015015015015016,3.2124001928683104,1.66144002346594,182.60104205572108,182.9488805223103,159.29356564830798,206.38077701278445,184.5363897516173,174.093006174102
1.5348682015348682,3.2124001928683104,1.66144002346594,183.14202815730584,183.229973937154,159.18901024415226,206.3870061454331,184.70030861280253,173.96445805674304
1.5682349015682349,3.2124001928683104,1.66144002346594,183.5760596419329,183.52763934657267,159.08018630016218,206.3412519493662,184.85834684172104,173.85238490682832
1.6016016016016017,3.2124001928683104,1.66144002346594,184.12647285761264,183.7643335196001,158.97636348477644,206.26387448198304,185.0112858304012,173.73548265847154
1.6349683016349683,3.2124001928683104,1.66144002346594,184.6633539996122,184.02977548535296,158.89536401428603,206.16570072102627,185.1536022109642,173.61030482232184
1.6683350016683351,3.2124001928683104,1.66144002346594,185.1329917336448,184.1048001677389,158.85831172668048,206.066786741599,185.26346273660585,173.46851324861078
1.7017017017017018,3.2124001928683104,1.706318653347407,185.5269575140189,184.2210975546552,158.83591215524925,205.9159083140161,185.35637579236447,173.38286465097457
1.7350684017350684,3.2124001928683104,1.706318653347407,185.7229906520801,184.2612839013103,158.81516543542543,205.68358753466265,185.42928089392603,173.38903966398814
1.7684351017684352,3.2124001928683104,1.7950396987751325,185.87917372487044,184.36023887955264,158.7825191531439,205.36730547420024,185.49919818439903,173.4823865654528
1.8018018018018016,3.2124001928683104,1.7950396987751325,186.082709503884,184.36596872463892,158.74823191932413,204.99320517386377,185.5651163284049,173.63638301450436
1.8351685018351689,3.2124001928683104,1.7950396987751325,186.3082877744125,184.4604724002133,158.69208583130555,204.61467356415687,185.6269958211333,173.7887414391383
1.8685352018685355,3.2124001928683104,1.7950396987751325,186.57911337400623,184.5868897537616,158.6151664182722,204.2392969681052,185.68443746280465,173.93530250467836
1.901901901901902,3.2124001928683104,1.9640209519700635,186.7937451527764,184.83377648486905,158.53299503818516,203.84531887967992,185.72618382540463,174.09176730009875
1.9352686019352687,3.2124001928683104,1.9640209519700635,186.91771406636948,185.07099235133933,158.43935403746164,203.44045742448125,185.74304474393645,174.25817992935967
1.968635301968636,3.2124001928683104,1.9640209519700635,187.0294946703712,185.40370883149336,158.3535821230866,203.02790995586508,185.7336911244835,174.40730432160163
2.002002002002002,3.2124001928683104,1.9640209519700635,187.09105076575725,185.75305188002267,158.30571949171204,202.6175220778756,185.678853492749,174.5523820223298
2.035368702035369,3.2124001928683104,1.9640209519700635,187.10496343839188,186.22882321964408,158.2968030836703,202.2106306967085,185.59345318766367,174.7023324420496
2.0687354020687354,3.2124001928683104,1.9640209519700635,186.96565414177027,186.71844738002923,158.27627026158837,201.8024760384892,185.49812809935725,174.8424010605878
2.1021021021021022,3.2124001928683104,2.197643117044072,186.83395789918103,187.25351614328693,158.3032944611255,201.42396897763572,185.3884929538081,174.92713352879903
2.135468802135469,3.2124001928683104,2.197643117044072,186.64265650554,187.76564679363864,158.39411873309805,201.07661773982272,185.25680611083345,174.96499990812688
2.1688355021688355,3.2124001928683104,2.197643117044072,186.42598387341835,188.25338372453103,158.55609838090382,200.7655761106916,185.0923275716692,174.9629662796143
2.2022022022022023,3.2124001928683104,2.197643117044072,186.10410080837784,188.61168032561525,158.7780748741655,200.5026713480576,184.88861502703327,174.93243860928757
2.235568902235569,3.2124001928683104,2.197643117044072,186.00350464658013,189.1882976387973,159.05369968013846,200.2907225519376,184.65728468966103,174.84732430210673
2.2689356022689355,3.2124001928683104,2.197643117044072,185.9439857213212,189.7182561532252,159.4036307948481,200.13632157263703,184.3887896776497,174.70681438955586
2.3023023023023024,3.2124001928683104,2.197643117044072,185.93991364816424,190.38309662331423,159.81443402740615,199.9988820182373,184.09394232107377,174.53106600918318
2.335669002335669,3.2124001928683104,2.197643117044072,185.9820860495205,191.10875263453383,160.29241434613792,199.9088789275816,183.7760924918004,174.30340383344455
2.369035702369036,3.2124001928683104,2.515414802011145,186.20395785743835,191.738303745678,160.79386561990896,199.81902065228724,183.4579502579081,174.08440553816757
2.4024024024024024,3.2124001928683104,2.515414802011145,186.5033869810836,192.2030633789536,161.29665193867356,199.7234864104317,183.15008657763025,173.87584461225876
2.4357691024357693,3.2124001928683104,2.515414802011145,186.94389375866567,192.7175419633416,161.7828250606748,199.58273296799103,182.8481538861589,173.7005332491623
2.469135802469136,3.2124001928683104,2.515414802011145,187.35523956848297,193.03136760387383,162.28312864528976,199.4521154639237,182.53359717349315,173.52532986963053
2.5025025025025025,3.2124001928683104,2.515414802011145,188.0264851653764,193.4003593080821,162.79774135570509,199.3451980822264,182.20994076427613,173.33941950635497
2.5358692025358693,3.2124001928683104,2.515414802011145,188.8402882296093,193.8126692756925,163.3087231477687,199.2629055933465,181.90006201374496,173.14393608304812
2.569235902569236,3.2124001928683104,2.515414802011145,189.60172261114457,194.4151958280913,163.80837730772078,199.1767172842163,181.59326520564724,172.9636480779006
2.6026026026026026,3.2124001928683104,2.515414802011145,192.4866346059561,194.91877493280944,164.28522146691415,199.07743086760675,181.29199037786293,172.8047485107078
2.6359693026359694,3.2124001928683104,2.515414802011145,194.7763491078205,195.77063721029344,164.73342183299917,198.9847975840719,181.0092018570474,172.63759768061448
2.669336002669336,3.2124001928683104,2.515414802011145,196.39330421078668,196.7123996843213,165.15456732830188,198.90516264121536,180.74640827393267,172.47268060930912
2.702702702702702,3.2124001928683104,2.515414802011145,197.6765521418137,197.68785293571983,165.5735933677634,198.862507575758,180.4888209611489,172.28051700837915
2.736069402736069,3.2124001928683104,2.895221936714444,198.77918667073885,198.6120525221729,165.9880336591945,198.8487311761676,180.22661429499456,172.08192490878687
2.7694361027694363,3.2124001928683104,2.895221936714444,199.3734688420363,199.55560892530767,166.39427911238093,198.83355940589664,179.9570373790297,171.9032865915734
2.802802802802803,3.2124001928683104,2.895221936714444,199.38461608089,202.84705881904108,166.77696739876822,198.84218102624249,179.68033533888385,171.7550459884509
2.836169502836169,3.2124001928683104,2.895221936714444,198.9206074702595,205.51192267814127,167.10739108502034,198.8099782099251,179.42498090094767,171.6675484193153
2.8695362028695364,3.2124001928683104,2.895221936714444,198.12927419564747,207.5118967032496,167.38977732222176,198.74302768374028,179.1834623173993,171.63399591388247
2.902902902902903,3.2124001928683104,2.895221936714444,196.89524387272684,208.8600608185983,167.64820620659302,198.6783890796434,178.95569363624304,171.60704444065956
2.9362696029362696,3.2124001928683104,2.895221936714444,195.67045422755265,209.62585995716185,167.86911202648747,198.62201462873452,178.74617781729873,171.59496937882707
2.9696363029696364,3.2124001928683104,2.895221936714444,194.134061100819,209.8744043678664,168.05084809425665,198.55873733916297,178.55626891839856,171.60204387095305
3.003003003003004,3.2124001928683104,2.895221936714444,192.5290444747144,209.43708964251127,168.19263698812307,198.4983937664592,178.3858067455544,171.613696966383
3.0363697030363697,3.2124001928683104,2.895221936714444,190.5466931930956,208.55531492292187,168.3272412425897,198.43177572540003,178.20753841345285,171.65293077923383
3.0697364030697365,3.2124001928683104,2.895221936714444,188.3436466710992,207.37476422551777,168.43818645863792,198.34929284242003,178.03857296125096,171.71083805549333
3.103103103103104,3.2124001928683104,2.895221936714444,185.80054125992964,205.7486395158327,168.55636848905917,198.2474091879048,177.87371101419467,171.78794746147568
3.1364698031364697,3.2124001928683104,3.3568323759880165,183.07285121047624,203.67461049229823,168.67746946498568,198.13339869932213,177.71406477642893,171.8829913228882
3.169836503169837,3.2124001928683104,3.3568323759880165,180.03690317020735,201.0679860633957,168.7741646836345,197.99917178571675,177.57949768958747,171.9871811585648
3.2032032032032034,3.2124001928683104,3.3568323759880165,176.74029723024083,197.5450985627345,168.84793762899022,197.883461476528,177.4690249657119,172.09489818620088
3.2365699032365702,3.226501941064869,3.3568323759880165,173.21746029281687,193.67711895667588,168.95429948260227,197.76501349664025,177.36372313947976,172.21021932745347
3.2699366032699366,3.226501941064869,3.3568323759880165,169.52804078785888,189.6917289914473,169.0768779957735,197.62962830079883,177.25851457529487,172.32823783323306
3.3033033033033035,3.3675917566512394,3.3568323759880165,165.6270836645608,185.5640527815683,169.20082440035577,197.48180731064463,177.1526509641157,172.44759434378
3.3366700033366703,3.3675917566512394,3.3568323759880165,160.49179116906092,181.55874390611697,169.3207429610655,197.33158170614496,177.052473686477,172.5641667074093
3.3700367033700367,3.3675917566512394,3.3568323759880165,155.59972471816118,177.5336982318471,169.44421396386872,197.1739348079426,176.95835636939958,172.68128301722942
3.4034034034034035,3.3675917566512394,3.3568323759880165,151.16349499279173,173.20025326818967,169.58646048629038,197.0064349866915,176.861749407717,172.7919628925757
3.4367701034367704,3.3675917566512394,3.3568323759880165,147.14187759969698,168.74397081975968,169.71861055461864,196.822373036646,176.77939726875636,172.9090175694833
3.4701368034701368,3.565076031214831,3.3568323759880165,143.6202941548742,164.3692828540674,169.843644276264,196.63783482854345,176.70865571942005,173.01296243953706
3.503503503503504,3.565076031214831,3.3568323759880165,140.57603293331212,160.0188046015841,169.95434440286894,196.4355366822787,176.64446452972834,173.1194719764034
3.5368702035368704,3.565076031214831,3.3568323759880165,137.8430149317038,155.83408867653105,170.0530718703267,196.2200950681333,176.58535435597813,173.21664010990085
3.5702369035702373,3.565076031214831,3.3568323759880165,135.54118998913177,151.92311967963352,170.14767091479706,196.0062596812589,176.52303139631044,173.30177401324954
3.603603603603604,3.565076031214831,3.843332090501694,133.9134143742573,148.256037119892,170.23644998636715,195.7865779801565,176.46687105693533,173.36888165800366
3.6369703036369705,3.565076031214831,3.843332090501694,133.0244693164671,145.069798252689,170.31179240964852,195.59018090315007,176.42098287555342,173.41863182452363
3.670337003670337,3.565076031214831,3.843332090501694,132.80820712716653,142.227219647507,170.38536582993055,195.42680520777648,176.3842958052215,173.44815154734894
3.703703703703704,3.794144603217527,3.843332090501694,133.23826094034604,139.62231942270552,170.46441476755888,195.29555249725496,176.33507310828492,173.46606721857114
3.737070403737071,3.794144603217527,3.843332090501694,134.47624393631406,137.44205101904262,170.56463539787714,195.21261924076416,176.27861511967114,173.46680917288427
3.770437103770437,3.794144603217527,3.843332090501694,133.63495688690227,136.10357513141963,170.66339079780298,195.17354434513533,176.22158990465684,173.45016797374217
3.803803803803804,3.794144603217527,3.843332090501694,132.97942680486798,135.30016434767668,170.74562381310557,195.1892318561307,176.1565772311602,173.43056347579576
3.8371705038371706,3.794144603217527,3.843332090501694,132.49685511693255,135.3501577839248,170.80690934001657,195.22138571958536,176.08388416914755,173.3987726708882
3.8705372038705375,3.794144603217527,3.843332090501694,132.03797017954872,135.84292400253315,170.85964419273333,195.25819525030377,176.0035441957497,173.36891384730413
3.903903903903904,3.794144603217527,3.843332090501694,131.57822866579082,137.28281120668137,170.89529349830156,195.29944186888835,175.92831362318205,173.34225897764412
3.937270603937271,4.041001090505142,3.843332090501694,131.19181999875894,140.12587614071256,170.90758198252644,195.3511187244532,175.8579566951059,173.3173838235291
