Time,Left Shoulder Angle,Right Shoulder Angle,Left Elbow Angle,Right Elbow Angle,Left Hip Angle,Right Hip Angle,Left Knee Angle,Right Knee Angle
0.0,6.511061313232774,3.213198573247164,197.72930279028856,174.74041859709988,161.88366735124382,202.1907918721269,184.55666291510144,182.20031356122183
0.0333778371161548,5.360420216528755,3.213198573247164,195.04749282616925,173.73818820612524,162.02607858449383,202.3178757759748,184.87967816752948,182.23374624751568
0.0667556742323097,4.349742529795682,3.213198573247164,192.6676832274442,172.931680433122,162.16909080802463,202.4169054766954,185.1205992039252,182.26531526405728
0.1001335113484646,3.47130203199971,3.213198573247164,190.5753528778857,172.30853661899522,162.31195179922813,202.4891736412879,185.284838626016,182.2949636121298
0.1335113484646194,2.717372502106995,3.213198573247164,188.75598066126616,171.85639810464988,162.45390933549615,202.5359729367514,185.37780903552976,182.32263429301645
0.1668891855807743,2.0802277190836937,3.2244064245520967,187.1950454613577,171.562906230991,162.5942111942206,202.5585960300849,185.404923034194,182.3482703080004
0.2002670226969292,1.552141461895964,3.232291596524693,185.87802616193275,171.41570233892355,162.73210515279337,202.55833558828763,185.37159322373617,182.3718146583647
0.2336448598130841,1.1253875095099604,3.237259572435517,184.79040164676343,171.4024277693526,162.86683898860628,202.5364842783586,185.28323220588408,182.3932103453928
0.2670226969292389,0.7922396408918395,3.2397158355551325,183.91765079962212,171.51072386318313,162.99766047905126,202.4943347672969,185.1452525823653,182.4124003703676
0.3004005340453938,0.5449716350077587,3.240065869154101,183.2452525042812,171.72823196132015,163.12381740152017,202.43317972210176,184.96306695490733,182.4293277345724
0.3337783711615487,0.3758572708238743,3.2387151565029875,182.75868564451272,172.04259340466868,163.24455753340487,202.35431180977216,184.74208792523788,182.4439354392904
0.3671562082777036,0.2771703273063419,3.236069180872354,182.44342910408912,172.4414495341337,163.35912865209724,202.2590236973072,184.4877280950845,182.4561664858048
0.4005340453938584,0.2411845834213188,3.232533425532764,182.28496176678263,172.91244169062026,163.4667785349892,202.148608051706,184.2054000661749,182.4659638753988
0.4339118825100133,0.2601738181349606,3.2285133737547818,182.2687625163656,173.44321121503336,163.56675495947255,202.02435753996767,183.90051644023657,182.47327060935532
0.4672897196261682,0.3264118104134246,3.224414508808969,182.3803102366102,174.021399448278,163.65830570293923,201.88756482909127,183.5784898189972,182.47802968895795
0.5006675567423231,0.3264118104134246,3.22064231396589,182.6050838112888,174.6346477312592,163.74067854278107,201.739522586076,183.24473280418428,182.4801841154896
0.5340453938584779,0.4321723392228671,3.217602272496108,182.9285621241736,175.27059740488198,163.81312125639,201.5815234779208,182.9046579975256,182.47967689023343
0.5674232309746329,0.4321723392228671,3.215699867670185,183.33622405903844,175.91688981005277,163.8748816211591,201.41486017162657,182.5636780007501,182.47645101447424
0.6008010680907877,0.4321723392228671,3.2153405827586856,184.7107884931705,176.26743372475576,163.82469982977682,201.23320957769903,182.31685352912544,182.4817410675219
0.6341789052069425,0.4321723392228671,3.2153405827586856,185.15620625599365,176.48187149228036,163.79758011370086,201.046886462742,182.0754029046292,182.53078906473328
0.6675567423230975,0.5697291835294438,3.2153405827586856,185.0820519471252,176.76683082506477,163.78859124512095,200.8830543354154,181.83064658281103,182.55311489789204
0.7009345794392523,0.5697291835294438,3.2153405827586856,184.9480630921207,176.96652792348038,163.76801844191365,200.71672231182936,181.5989436045853,182.58392294259528
0.7343124165554072,0.5697291835294438,3.2153405827586856,185.1613495900185,177.19746694723491,163.7590634498917,200.52936778175004,181.39288500503915,182.6397244990952
0.7676902536715621,0.5697291835294438,3.2153405827586856,185.7486878975714,177.33455214215925,163.76157365629211,200.34762703226704,181.21282138799825,182.64433184951915
0.8010680907877169,0.7313561222993311,3.2153405827586856,186.56478471687,177.59177658041875,163.77965322282046,200.16205708542665,181.0520835016857,182.61585959413893
0.8344459279038718,0.7313561222993311,3.2153405827586856,187.23433196188395,178.29792425959442,163.80223574899912,199.9808711685468,180.90541756280012,182.540634408177
0.8678237650200267,0.7313561222993311,3.2153405827586856,187.516803535832,180.3309973492892,163.80425857474242,199.83391744672093,180.77041089705435,182.4201733720492
0.9012016021361816,0.7313561222993311,3.2153405827586856,187.4507823278373,181.33017892520888,163.83249104194692,199.69652114456835,180.65498178832,182.2743306144138
0.9345794392523364,0.7313561222993311,3.2153405827586856,187.7268418862664,181.66332939960864,163.86051932369335,199.5480433778707,180.5670585179668,182.099781715883
0.9679572763684912,0.7313561222993311,3.2153405827586856,188.3615760113041,180.9977698927956,163.91229563266413,199.40746358996577,180.4987461734891,181.89321488586623
1.0013351134846462,0.7313561222993311,3.2153405827586856,189.2364863303312,180.35139781927683,163.96245945103792,199.29004584815664,180.4633275349393,181.66565566698148
1.034712950600801,1.1586144702173702,3.2153405827586856,189.5115882261952,179.6107315635946,164.02514877094188,199.20024902290191,180.44962731261484,181.4117849367784
1.068090787716956,1.2330627069452709,3.2153405827586856,190.65858193938053,178.95753889329757,164.04405492453935,199.08991893961465,180.46400628577368,181.14669325414985
1.1014686248331107,1.0656989535275798,3.2153405827586856,192.0057166877069,178.3643467608969,164.01401636760178,198.973548974539,180.55340147441345,180.87870492544812
1.1348464619492658,1.0164603636533704,3.2153405827586856,193.26218728574588,177.95621795974867,163.95766542276448,198.84619065307663,180.67665440755968,180.5982232072396
1.1682242990654206,1.1350606633059883,3.2153405827586856,194.09667568541,177.8628635595676,163.90423970069142,198.73251555264923,180.7758608729117,180.30188451552624
1.2016021361815754,0.9896900559265248,3.2153405827586856,193.8189527584296,177.2442571950141,163.80680186576308,198.6570016607416,180.850364032084,179.96736471024286
1.2349799732977302,0.9441416620449788,3.2153405827586856,194.20068274734427,175.98939740853416,163.71019817147828,198.554233661216,180.91082455566143,179.6319283583913
1.268357810413885,0.9020498628188832,3.2153405827586856,194.2238769288611,174.66710360310017,163.63197425058738,198.43420732791773,180.91849161220668,179.31458955547242
1.30173564753004,1.1324058660896887,3.2153405827586856,195.06862590050585,173.8958858192576,163.54212595744778,198.27574821888896,180.92045696671897,179.04667940685903
1.335113484646195,1.1324058660896887,3.2153405827586856,197.230402792574,173.55178772077957,163.43987527186025,198.07635448273183,180.91383296347445,178.8152645980427
1.3684913217623498,1.1324058660896887,3.2153405827586856,199.32209228974617,173.19879911687627,163.34362813994318,197.86299479927496,180.88754672470105,178.62656894083486
1.4018691588785046,0.8149566686934392,3.2153405827586856,201.06390018371303,173.16692952176854,163.24051392437715,197.62524978436963,180.85768878064,178.48451755319095
1.4352469959946594,0.791458988628791,3.2153405827586856,202.3099579119216,173.5409529232833,163.12344202855672,197.34275322912248,180.82030091130832,178.39504717178764
1.4686248331108145,1.0658801586111164,3.2153405827586856,203.10199997448225,173.8451432136418,162.97704568651733,197.0288462255754,180.7784528603124,178.351857307083
1.502002670226969,1.4934549359767972,3.2153405827586856,203.5416460058825,174.3839273388903,162.79771825112866,196.66122323298023,180.7477913054182,178.36355063380023
1.535380507343124,1.4934549359767972,3.2153405827586856,201.82122303412137,175.0224563480478,162.58847675434728,196.2637687977141,180.73263056807943,178.4158263278276
1.568758344459279,1.4934549359767972,3.2153405827586856,200.10696733329576,175.51980495669414,162.3569846463865,195.8384477542984,180.72526371097712,178.5048081328343
1.6021361815754338,1.4934549359767972,3.2153405827586856,198.81945893207683,176.42234409196013,162.10725187228135,195.42970246858425,180.7325302307392,178.62468475842488
1.6355140186915886,1.4934549359767972,3.2153405827586856,197.25228085225012,177.2958728333463,161.8410247216204,195.05625429168435,180.7499827564812,178.7075884133035
1.6688918558077437,1.4934549359767972,3.2153405827586856,195.83727206009,178.59592713868383,161.5457794065033,194.67695732738312,180.77515306845245,178.8451791747987
1.7022696929238983,1.4934549359767972,3.2153405827586856,195.13161375607416,179.63783924204088,161.29070468825333,194.31705994291804,180.80685787377683,179.01703014980015
1.7356475300400531,1.4934549359767972,3.2153405827586856,194.98263976411047,180.3623561868542,161.0671299195159,193.94148195419777,180.84243440204563,179.22695446535155
1.7690253671562082,1.4934549359767972,3.2153405827586856,195.05413358049057,181.80257469557887,160.88658072363242,193.58607557524425,180.87855306763785,179.40606284627845
1.802403204272363,1.4934549359767972,3.2153405827586856,195.94996901288184,182.5967730164433,160.67884344961865,193.2465618614312,180.9440008266902,179.51476055005892
1.835781041388518,1.4934549359767972,3.2153405827586856,197.15512231088684,190.11906600750376,160.49464324065818,192.8614940169563,181.01886112485028,179.60938299963624
1.8691588785046729,1.4934549359767972,3.2153405827586856,199.46588153992943,192.81554669020807,160.34413808701905,192.5506891763256,181.10323384569003,179.6525312242509
1.902536715620828,1.9309156718413183,3.2153405827586856,202.19019767210187,200.10141786004365,160.2024675681956,192.3629788197348,181.1746644905904,179.60283764594914
1.9359145527369823,1.9309156718413183,3.2153405827586856,204.1379019413301,205.8445634141256,160.13573607587753,192.1929207243656,181.20449092004264,179.54434001185882
1.9692923898531367,1.9309156718413183,3.2153405827586856,205.44553457539047,205.1203329112584,160.1382569059057,192.0746764863645,181.208673925936,179.432487425372
2.0026702269692924,1.9309156718413183,3.2153405827586856,206.73755145612063,199.27800069053765,160.1984693140216,192.01069887905084,181.18279619034004,179.282510983105
2.036048064085448,1.9309156718413183,3.2153405827586856,207.87737126467587,192.78798622357803,160.3702379999981,191.9160423399105,181.14140196248465,179.10300790674307
2.069425901201602,1.9309156718413183,3.2153405827586856,208.9967138911281,187.7960949620709,160.61291359409137,191.81099821864467,181.07850939195785,178.88485292636489
2.102803738317757,1.9309156718413183,3.2153405827586856,210.58111031038536,183.3641639817077,160.92751639168944,191.7786755751065,180.99211739117,178.65272381176675
2.136181575433912,1.9309156718413183,3.2153405827586856,211.97601247450444,180.2294375759677,161.22078996534665,191.80947989574383,180.92236471146853,178.41515305346454
2.1695594125500666,1.9309156718413183,3.2153405827586856,212.78045718358456,177.4896973248326,161.5342335019462,191.84328126074783,180.87806538771864,178.15596385321803
2.2029372496662214,1.9309156718413183,3.2153405827586856,213.62378334729803,175.1017779232771,161.82805623748544,191.85356464417669,180.888928538254,177.86024441862287
2.236315086782376,1.9309156718413183,3.2153405827586856,214.4604168531349,173.39426394887352,162.14920876679932,191.9202220707456,180.896467212623,177.54399282285632
2.2696929238985315,1.9309156718413183,3.2153405827586856,214.842560664814,172.6508279082088,162.52660635793904,192.01852440591728,180.8217712841293,177.20851383997217
2.3030707610146863,1.9309156718413183,3.2153405827586856,216.74251292806207,171.65012351346195,162.9472190547341,192.1677950510899,180.67112244057984,176.86040355653034
2.336448598130841,2.407581425212917,3.2153405827586856,214.8150777028516,170.23743349154938,163.36922987929418,192.342337135264,180.47355800856585,176.5179136800001
2.369826435246996,2.407581425212917,3.2153405827586856,219.5824256012457,168.55908491358025,163.81983902582527,192.50844755023064,180.24737882629623,176.2117882172794
2.403204272363151,2.407581425212917,3.2153405827586856,222.5530109480601,167.2746207969007,164.2702989931366,192.675579118484,179.9929588045118,175.93890457031378
2.4365821094793056,2.407581425212917,3.2153405827586856,224.3862071549152,165.67602022379427,164.68754811376786,192.84013907108573,179.75610702910686,175.6927821837388
2.4699599465954605,2.407581425212917,3.2153405827586856,224.3456252034788,164.26932854778298,165.09612915389792,193.02987119209865,179.50479580481343,175.44957667284356
2.503337783711616,2.407581425212917,3.2153405827586856,222.6678062620429,163.30735936337155,165.5100683381495,193.2437600939208,179.23359643777744,175.22597405105745
2.53671562082777,2.407581425212917,3.2153405827586856,219.7957437014009,162.06526228230783,165.89036852529256,193.4422300611299,178.95573232746383,175.0305611297041
2.570093457943925,2.407581425212917,3.2153405827586856,214.7238383165364,162.4144349087716,166.22732588937987,193.64662940193017,178.67716642688686,174.848901297698
2.60347129506008,2.407581425212917,3.2153405827586856,208.48600780185112,161.19164371985386,166.51061472665063,193.86501663707472,178.4251928562036,174.694718563216
2.636849132176235,2.407581425212917,3.2153405827586856,202.06292725979176,161.27185409147796,166.77135879244258,194.1157640250201,178.18953261875538,174.55037558394756
2.67022696929239,2.407581425212917,3.2153405827586856,195.37717850665845,161.80007851004157,166.99993258555014,194.3660379006152,177.97003298975042,174.42642653975818
2.7036048064085447,2.407581425212917,3.2153405827586856,190.725191809165,161.51343313031134,167.20557933275063,194.6248936767162,177.76236597763233,174.31762315306952
2.7369826435247,2.407581425212917,3.2153405827586856,186.5692435233004,163.8302442156522,167.39003379383527,194.916205968589,177.55562555252658,174.2309073374338
2.7703604806408544,2.407581425212917,3.2153405827586856,182.3276928217093,166.37085101856118,167.5323041942251,195.1859318881981,177.3587690931076,174.16117176554005
2.803738317757009,2.407581425212917,3.2153405827586856,178.70976125991007,169.7953064495489,167.61908195399562,195.4186365526805,177.17719508890934,174.10531844444793
2.837116154873164,2.407581425212917,3.2153405827586856,173.608319842612,173.71852222250396,167.678155793013,195.6264970255563,177.00950820515482,174.038388281456
2.870493991989319,2.9841565551476834,3.2153405827586856,171.8933028615665,180.9225581605149,167.69272962389942,195.80575049211444,176.86608629882826,173.9640176907111
2.9038718291054737,2.9841565551476834,3.2153405827586856,170.59904130113313,184.3130950618315,167.6742653162062,195.9412494407386,176.7423928562946,173.8828762242634
2.937249666221629,2.9841565551476834,3.2153405827586856,170.43495528023075,192.85164668564545,167.59569301347074,196.0402985654573,176.64497118034149,173.8098151619649
2.970627503337784,2.9841565551476834,3.2153405827586856,170.28379071997566,200.4258366736269,167.52495360624022,196.11423883063256,176.53935330290776,173.7573479120553
3.004005340453938,2.9841565551476834,3.2153405827586856,169.09773293707383,194.5394506905565,167.43942127590287,196.21125536224275,176.4368756986213,173.73226016979143
3.037383177570093,2.9841565551476834,3.2153405827586856,167.0652729771033,192.396931584016,167.36521211989358,196.2503893777341,176.32902349408164,173.72956766651905
3.0707610146862483,2.9841565551476834,3.2153405827586856,164.0391798720565,182.9093961769124,167.3564915309157,196.2021377188405,176.20541768679112,173.74884498752962
3.104138851802403,2.9841565551476834,3.2153405827586856,161.793185550577,170.31423029253975,167.3454402067896,196.1257386304054,176.1020970539181,173.76209026837526
3.137516688918558,2.9841565551476834,3.2153405827586856,159.25781115044467,161.22432804563232,167.3201812857909,196.0146498510864,176.01037550527266,173.7825838596266
3.170894526034713,2.9841565551476834,3.216929901032173,156.75386098814835,157.08627711353583,167.2833297953321,195.8372358616921,175.9387932130534,173.82265159691113
3.204272363150868,2.9841565551476834,3.2208733057612093,154.7220512170611,152.83588179414178,167.21164696891208,195.6555219063653,175.87911023507488,173.88963548867568
3.2376502002670224,2.9841565551476834,3.2275762802163834,152.77251994852602,148.66606481568212,167.10891702832163,195.5216529467428,175.8405608122914,173.95048057668106
3.2710280373831773,2.9841565551476834,3.2275762802163834,149.29344182143907,145.02402092061195,166.9559451781101,195.375495197588,175.83911956392564,173.9879981189184
3.3044058744993325,2.9841565551476834,3.3249816729479007,146.07742396419778,141.9238882976411,166.81211324746212,195.19829955018065,175.86485286811956,174.0121516591548
3.337783711615488,2.9841565551476834,3.3249816729479007,144.12120994273542,139.32534914750548,166.65145610148184,195.0356060490097,175.90516922297363,174.0096682138568
3.371161548731642,2.9841565551476834,3.371477550439298,144.03695520088073,137.4947816674297,166.5012163453596,194.89894253643607,175.89432357274111,173.99977192006304
3.404539385847797,2.9841565551476834,3.4066962999128134,143.34364691626092,135.86069446247586,166.3727653732352,194.72398513850652,175.8370902370764,173.9605578955851
3.437917222963952,3.519393371281541,3.4170390695684136,142.6161260093432,133.38969029584518,166.27502533838455,194.52707862909304,175.7244239770627,173.92159312694963
3.4712950600801067,3.519393371281541,3.4170390695684136,140.1687633829947,130.95493468750973,166.16145846855432,194.29862015018224,175.5793911045858,173.8884686847303
3.504672897196261,3.519393371281541,3.4170390695684136,142.57422813366315,128.26766540101914,166.04856899357426,194.03750122874885,175.43939996600514,173.8925518404666
3.5380507343124163,3.519393371281541,3.4170390695684136,139.37512558758482,126.15258375637646,165.9123774516644,193.80772715829804,175.3071925675385,173.92424142639013
3.571428571428571,3.519393371281541,3.4170390695684136,136.81567733990985,124.4730072638072,165.84208776275972,193.5335594173229,175.22864839408084,173.9909331191539
3.604806408544726,3.519393371281541,3.4170390695684136,134.5973122036254,124.03189131127792,165.75988360405725,193.21926621199063,175.16905944458426,174.05337286968162
3.638184245660881,3.519393371281541,3.4170390695684136,131.91368174708563,125.2314369508693,165.70369340422016,192.9452898602848,175.1735778569838,174.08466245079978
3.671562082777036,3.519393371281541,3.4170390695684136,128.82330329611622,123.22761553331958,165.62157130824693,192.7339897365774,175.23851005647956,174.11506122525907
3.704939919893191,3.519393371281541,3.4170390695684136,126.11158268855036,125.98807425092936,165.5517458831507,192.6004195626892,175.36690485095235,174.16801029250868
3.7383177570093458,3.519393371281541,3.4170390695684136,126.06706422069485,126.23201010420748,165.58873945790685,192.5991851431673,175.46233536190826,174.19670660015535
3.7716955941255006,3.519393371281541,3.4170390695684136,123.62743993215504,128.5715707569423,165.62974154562204,192.6751812412482,175.56042260681534,174.20621282725665
3.805073431241656,3.519393371281541,3.403167953263772,121.15116985085038,130.62638872141375,165.67840895261423,192.7362642680241,175.72563408411156,174.30377073520165
3.83845126835781,3.519393371281541,3.3353986072472748,123.89246219211594,133.81233469640767,165.70645076398543,192.89182757623084,176.00707690107978,174.31187564622726
3.871829105473965,3.519393371281541,3.253128788127227,126.96562670692552,139.46790333792305,165.83088236461757,193.0282207406109,176.31382676744872,174.48089467308372
3.90520694259012,3.519393371281541,3.2810765961738926,125.98505748297764,144.4850440639171,165.90649334187466,193.1644781260643,176.76943306939367,174.5902459569484
