Time,Left Shoulder Angle,Right Shoulder Angle,Left Elbow Angle,Right Elbow Angle,Left Hip Angle,Right Hip Angle,Left Knee Angle,Right Knee Angle
0.0,87.7587072123278,85.54397649260724,162.11917132293115,157.02915484395174,146.08983150869733,141.5864710718862,207.3596790844288,203.746357612164
0.0333667000333667,57.67935048756868,62.98583039632614,163.38674664044822,164.35146942938326,146.05121088509443,141.75480979761556,209.02158207083085,205.6946213494037
0.0667334000667334,32.67403153722907,43.80114319871423,164.46392558064818,169.80130585975252,146.12895786585423,142.06398835162832,210.3433119708899,207.30403534156363
0.1001001001001001,12.459200274142304,27.82943921391795,165.35855591282123,173.4983447532918,146.31131344114428,142.49937325578523,211.35053346004952,208.5984154151684
0.1334668001334668,-3.2486933888583,14.910242756083775,166.07848540625753,175.56226672823334,146.5865186011322,143.04633103194703,212.0689112137531,209.60157739674267
0.1668335001668335,-14.733199538939374,4.883078139358148,166.6315618302473,176.11275240280943,146.9428143359856,143.69022820197452,212.52410990744409,210.33733711281127
0.2002002002002002,-22.27786826326762,-2.412530322112445,167.02563295408075,175.26948239525228,147.36844163587205,144.4164312877284,212.74179421656584,210.8295103898989
0.2335669002335669,-26.16624964900969,-7.137058314181601,167.26854654704806,173.1521373237942,147.85164149095917,145.21030681106942,212.747628816562,211.10191305453029
0.2669336002669336,-26.68189378333224,-9.450981522702804,167.36815037843942,169.8803978066674,148.38065489141454,146.05722129385833,212.56727838287588,211.17836093323007
0.3003003003003003,-24.108350753401965,-9.514775633529624,167.33229221754505,165.57394446210415,148.9437228274058,146.94254125795592,212.2264075909509,211.08266985252325
0.333667000333667,-18.72917064638547,-7.488916332515643,167.1688198336551,160.35245790833673,149.52908628910052,147.85163322522288,211.75068111623068,210.83865563893428
0.3670337003670337,-10.827903549449587,-3.5338793055143043,166.88558099605984,154.33561876359738,150.12498626666627,148.76986371752002,211.16576363415848,210.470134118988
0.4004004004004004,-0.6880995497607074,2.1898597616207667,166.49042347404944,147.64310764611838,150.7196637502707,149.68259925670804,210.49731982017784,210.00092111920912
0.4337671004337671,-0.6880995497607074,9.521825183035986,165.99119503691406,140.39460517413193,151.3013597300814,150.57520636464773,209.77101434973216,209.4548324661224
0.4671338004671338,-0.6880995497607074,18.30154127287794,165.39574345394394,132.70979196587032,151.85831519626595,151.4330515631998,209.01251189826493,208.85568398625253
0.5005005005005005,-0.6880995497607074,28.368532345292948,164.71191649442923,124.70834863956584,152.37877113899197,152.24150137422504,208.2474771412196,208.2272915061243
0.5338672005338673,-0.6880995497607074,39.56232271442761,163.9475619276602,116.50995581345072,152.85096854842703,152.98592231958415,207.5015747540396,207.5934708522624
0.5672339005672339,11.406691265514198,51.72243669442846,163.1105275229283,108.2342941057584,153.26314841474002,153.6516809211392,206.80046941217,206.97803785119305
0.6006006006006006,25.17291880920873,71.35897978924736,163.5964907126922,100.8423889425885,153.2237914517504,153.93953491349444,206.52489739516545,206.3064812413912
0.6339673006339673,40.32703299415604,88.51416649066212,158.64127869088057,92.67689664833972,153.05195558969234,153.8217488778056,206.3192121737904,205.9535365706833
0.6673340006673341,56.58548373318951,104.33324684252273,157.3271704685238,84.19642155801822,152.68194299458648,153.64902826695575,206.4357192786624,205.8336062210937
0.7007007007007008,73.66472093914282,118.0162058117774,155.48127656216312,75.75124622990171,152.20473342400717,153.41069447737806,206.77122184557976,206.1894807336608
0.7340674007340674,95.2349163229222,129.91323462450785,155.36908388977392,68.29470316213,151.93320320609376,153.2189091426647,207.7446120284729,207.0414656194796
0.7674341007674341,113.60257606727755,140.43978867365692,155.6635446410002,66.11370471177807,151.45083872255307,153.05627541365303,208.5879790663664,207.9465867463928
0.8008008008008008,130.44810211636062,149.0240904594891,157.19372241229246,65.61789212657239,150.82889207157334,152.79003978110987,209.78997809735785,208.86131217097648
0.8341675008341676,145.16371739614132,156.39402734823938,156.8354328607377,63.87865039502388,150.3549006600024,152.29735286949665,211.0164312937084,209.83666020513925
0.8675342008675342,158.55012105380422,162.45540719303432,154.88117795918922,63.74561324505746,149.8798660019696,151.76435407373782,212.4669915504895,211.1633246306801
0.9009009009009008,170.19814278850828,166.19396283252817,152.8969476781741,62.78226074581081,149.38313222871977,150.86379033481188,213.73712378022344,212.7580456010517
0.9342676009342676,179.1624593154535,167.56285891883584,156.99485612010236,62.78446015002066,149.05806263004942,150.07012651410489,214.8024391636499,214.2725618662668
0.9676343009676344,185.66975777034648,167.92185339642998,160.07682587178195,61.87006471630148,148.8914763376195,149.28020399850575,215.6076024582184,215.59374538848687
1.001001001001001,190.5523230840777,157.8812101999692,158.7934589333464,60.24547504381155,148.7930128849877,148.8844080123067,216.17947906876591,216.55484352882087
1.0343677010343677,193.02665095238703,150.6134869840491,156.51264373172515,57.514848447062604,148.87964598139885,148.5379312222128,216.3779403378742,217.2273344694752
1.0677344010677343,192.6044525345415,143.9170730979347,153.3521553012099,56.45628566950035,148.95626990991616,148.0226641506489,216.3834054013689,217.7335417245663
1.1011011011011012,190.4702015542809,137.3215051655643,152.32690589377646,57.28133070362889,148.9284138037457,147.52116511418907,216.2944511885033,218.02135228447625
1.1344678011344678,178.99940634289905,130.8560203862061,152.89721916024774,60.31553426086246,148.80558420044107,147.08348246359893,215.99334317434565,217.976192476288
1.1678345011678346,167.55640958571163,123.84547738964068,153.74767042011263,65.38530621484766,148.66088008027438,146.7494260587902,215.42776801496532,217.62044953923584
1.2012012012012012,156.35179167736126,116.82407327558462,146.95408884200162,70.46626988367736,148.48523987846465,146.54839763531814,214.61267857574225,217.0351588033181
1.234567901234568,145.33676741861672,111.08850109346731,141.63816615638214,74.9813707292254,148.38088137809785,146.4080363532786,213.53072568212883,216.208437507548
1.267934601267935,134.47249536899702,106.80544238960474,137.462751167995,79.38157267088445,148.33135771804467,146.3664519055542,212.17603067983177,215.13027287053976
1.3013013013013013,123.48434271885532,100.9887206905444,133.4622724409858,83.4658072025069,148.33640233002512,146.4144187250159,210.5677400374592,213.824913117494
1.334668001334668,113.23105570999373,95.93981799550494,129.8978875050298,87.7962995364191,148.37773644458278,146.5273594758033,208.7177960074687,212.32393389711632
1.3680347013680347,103.3241483154347,90.42809075848696,126.84051166145964,91.72962750928968,148.5210747586898,146.72290975530663,206.6785227812564,210.6091706570129
1.4014014014014016,94.0210029990765,85.35186449464176,124.13345851767065,94.679369345859,148.74660674177295,147.0526384324978,204.50505431636003,208.62710879288423
1.4347681014347682,84.82689512776773,89.92780099726163,121.73301244510338,98.07246210431856,149.0383366648778,147.48814237307815,202.22385982833552,206.44884792714456
1.4681348014681348,75.68626564926846,96.53130197291117,119.35120552017476,103.17059205650514,149.42994855490736,148.02030162421033,199.8318216525409,204.0939173833024
1.5015015015015016,77.02851123660342,105.04973966531846,116.70716491514632,109.6661418058079,149.9348120024292,148.56943395473783,197.3255581481805,201.6245829006785
1.5348682015348682,80.4320018626649,115.56296433365402,113.5432752666234,116.47759517815676,150.52407440571292,149.15952735616676,194.7318678609608,199.0529525744544
1.5682349015682349,85.86877661476483,128.32796414854323,111.36254273449188,123.57841177981648,151.1657737724473,149.8115885925614,192.1483342737238,196.34925227940823
1.6016016016016017,93.42051107621856,149.34809374756446,109.20439306972966,130.57394682405592,151.34612325399547,150.36105437585402,189.873811125043,193.39837761213377
1.6349683016349683,102.89641620549664,170.6176726235503,107.31012495671736,137.52538668451865,151.51442647622787,150.90675390138924,187.7524239023796,190.55393218554727
1.6683350016683351,114.79239248230525,191.62029905298184,105.70523964114024,144.35613082783135,151.6743168620387,151.44191249644746,185.8157930206897,187.86536446133871
1.7017017017017018,128.87404837815905,211.83957131234172,104.41523836868473,150.98957872062147,151.8294278343232,151.95975548831035,184.0955388949316,185.3821229011994
1.7350684017350684,151.98774563312858,230.75908767811345,103.46562238503716,157.34912982951636,151.9833928159767,152.45350820425955,182.6232819400629,183.1536559668209
1.7684351017684352,175.3874903048337,247.86244642677983,102.88189293588393,163.3581836211435,152.1398452298945,152.9163959715767,181.4306425710417,181.2294121198948
1.8018018018018016,198.5193900715556,262.63324583482387,102.68955126691134,168.9401395621303,152.30241849897183,153.34164411754347,180.54924120282607,179.65883982211238
1.8351685018351689,220.8295526115768,274.5550841787285,102.9140986238058,174.0183971191041,152.47474604610403,153.72247796944146,180.01069825037376,178.4913875351654
1.8685352018685355,241.7640856031792,283.1115597349771,103.5810362522537,178.51635575869244,152.66046129418632,154.05212285455238,179.84663412864285,177.7765037207452
1.901901901901902,260.769096724645,287.7862707800524,104.7158653979414,182.35741494752264,152.86319766611402,154.32380410015782,180.08866925259122,177.56363684054338
1.9352686019352687,277.2906936542564,288.0628155904369,106.34408730655522,185.46497415222228,153.08658858478242,154.53074703353943,180.76842403717683,177.90223535625142
1.968635301968636,290.77498407029583,283.42479244261494,108.49120322378155,187.76243283941852,153.33426747308678,154.66617698197888,181.9175188973577,178.84174772956084
2.002002002002002,300.66807565104494,273.3557996130682,111.18271439530682,189.17319047573903,153.60986775392237,154.7233192727578,183.5675742480917,180.4316224221631
2.035368702035369,306.4160760747866,257.3394353782806,114.44412206681731,189.6206465278112,153.91702285018454,154.69539923315787,185.7502105043368,182.72130789574976
2.0687354020687354,307.46509301980296,234.8592980147343,118.30092748399944,189.02820046226228,154.25936618476848,154.57564219046068,188.4970480810509,185.7602526120122
2.1021021021021022,303.26123416437554,205.3989857989129,122.77863189253956,187.3192517457198,154.64053118056955,154.3572734719479,191.8397073931921,189.59790503264207
2.135468802135469,293.25060718678685,168.44209700729974,127.90273653812405,184.4171998448112,155.06415126048302,154.0335184049012,195.80980885571825,194.28371361933085
