Time,Left Shoulder Angle,Right Shoulder Angle,Left Elbow Angle,Right Elbow Angle,Left Hip Angle,Right Hip Angle,Left Knee Angle,Right Knee Angle
0.0,31.708508637657616,41.91437805300961,175.2723404021149,165.4525151905042,125.4535351505424,139.9226726624974,206.58892389300595,205.7995560509079
0.0333667000333667,31.704703099952585,42.06810594705721,175.49751733077838,166.08273078467872,125.60905042747282,140.0984436084956,206.3146180478333,205.846846944088
0.0667334000667334,31.694378154462893,42.21577424359451,175.68109024076634,166.6559377331016,125.74173087218716,140.2569311549016,206.0649292338828,205.89669101677745
0.1001001001001001,31.677882890564568,42.35611344008696,175.8269509651452,167.17361593978757,125.85319385914548,140.39937186611928,205.8385616108136,205.94887481801945
0.1334668001334668,31.655566397633628,42.48785403400003,175.93899133698127,167.63724530875135,125.945056762808,140.52700230655273,205.6342193382848,206.0031848968572
0.1668335001668335,31.627777765046098,42.6097265227992,176.02110318934098,168.0483057440076,126.01893695763476,140.64105904060582,205.4506065759554,206.059407802334
0.2002002002002002,31.594866082178,42.72046140394993,176.0771783552907,168.40827714957106,126.07645181808591,140.74277863268262,205.28642748348472,206.11733008349307
0.2335669002335669,31.55718043840536,42.8187891749177,176.11110866789676,168.71863942945646,126.1192187186216,140.833397647187,205.1403862205318,206.17673828937765
0.2669336002669336,31.5150699231042,42.90344033316798,176.1267859602256,168.98087248767848,126.14885503370196,140.914152648523,205.01118694675583,206.23741896903093
0.3003003003003003,31.468883625650527,42.97314537616622,176.1281020653435,169.19645622825186,126.16697813778708,140.98628020109462,204.89753382181587,206.29915867149617
0.333667000333667,31.41897063542039,43.02663480137791,176.1189488163169,169.36687055519127,126.17520540533708,141.05101686930576,204.7981310053711,206.36174394581656
0.3670337003670337,31.3656800417898,43.06263910626851,176.10321804621216,169.49359537251146,126.17515421081212,141.10959921756043,204.71168265708064,206.42496134103544
0.4004004004004004,31.309360934134773,43.0798887883035,176.08480158809564,169.57811058422712,126.1684419286723,141.1632638102626,204.6368929366036,206.488597406196
0.4337671004337671,31.250362401831342,43.077114344948335,176.06759127503375,169.62189609435296,126.15668593337776,141.21324721181625,204.57246600359903,206.5524386903413
0.4671338004671338,31.18903353425553,43.05304627366849,176.0554789400928,169.6264318069037,126.14150359938864,141.26078598662536,204.51710601772623,206.6162717425148
0.5005005005005005,31.125723420783352,43.006415071929446,176.0523564163392,169.59319762589405,126.12451230116504,141.30711669909388,204.46951713864425,206.67988311175964
0.5338672005338673,31.060781150790834,42.935951237196655,176.06211553683931,169.52367345533872,126.10732941316708,141.3534759136258,204.42840352601212,206.74305934711907
0.5672339005672339,30.99455581365427,42.840385266935975,176.088648134661,169.41933919925367,126.09157230985588,141.40110019462622,204.3924693394909,206.805586997638
0.6006006006006006,30.96369992083596,42.73423032137064,176.17681828463012,169.3476080804734,126.05274361092388,141.48392101546142,204.36531606801947,206.85749790910688
0.6339673006339673,30.90472590279268,42.56399656289727,176.28368819188893,169.15868814584135,126.07355621902836,141.55504631081848,204.3204121028161,206.9120124653855
0.6673340006673341,30.84993506093122,42.3376871992604,176.42034196635717,168.89820223759546,126.1091356131108,141.64285025330284,204.28333152725543,206.964288472298
0.7007007007007008,30.801692197418674,42.06887235602248,176.64123585271028,168.58720390309657,126.15920927027555,141.73670508256862,204.27777961549435,207.0159084462917
0.7340674007340674,30.75360799680383,41.81326708546661,176.92925061815893,168.32802704221615,126.221861142278,141.82401528065282,204.2766608910024,207.06952773191543
0.7674341007674341,30.716140511792688,41.55860135061232,177.30090614579143,168.09945283460902,126.3102021377417,141.90830486719128,204.2366972751222,207.12459598880176
0.8008008008008008,30.691427372128786,41.2897347373683,177.73553210412442,167.88321691444278,126.45619669344124,142.01452090323124,204.1170840152157,207.17645703997084
0.8341675008341676,30.624268557904458,40.97602666606482,178.1319271115815,167.59297096636,126.65808427873974,142.1386421535158,203.94206366525984,207.22724284010027
0.8675342008675342,30.560111482606,40.59977542139637,178.54739590128546,167.23959856787596,126.81095911102445,142.26386351591162,203.7843618702586,207.28037306736192
0.9009009009009008,30.475404860989435,40.160417419204045,178.95027534856186,166.82625580227943,126.93168034605202,142.38564205371145,203.63483163657065,207.32954481250772
0.9342676009342676,30.36636545584335,39.698745202607874,179.3441108461833,166.40780298247134,127.00727444982532,142.49431725051596,203.497659966558,207.37910206011983
0.9676343009676344,30.26585921724653,39.23090290106757,179.7592425852631,166.03049986290995,127.058048447841,142.61590332666108,203.32335695611863,207.4289146170344
1.001001001001001,30.123611526229908,38.69967007704814,180.07833095031592,165.65578422124858,127.1043836102475,142.75721930946247,203.13922930377143,207.48153766866656
1.0343677010343677,29.94831191760771,38.1281292514637,180.2687504766268,165.2979924754803,127.07027005234563,142.88812084646202,203.0270026708669,207.5370874141963
1.0677344010677343,29.76661060422712,37.51464295726141,180.44372860729052,164.91912526643105,127.01841045189488,143.01746270114535,202.93587508693463,207.58575815025625
1.1011011011011012,29.60000458211532,36.897846016704605,180.6364529602203,164.54374087588067,126.91204055441138,143.14591387766413,202.8995774525692,207.63804130434403
1.1344678011344678,29.395898336606223,36.27167787030673,180.78165490171585,164.18004066452897,126.7571979696766,143.29189137690017,202.91002843254435,207.6769580825281
1.1678345011678346,29.1660579164062,35.666260744261585,180.89913927356127,163.85031335370547,126.54011762696952,143.42990043648192,202.9803020544133,207.7168961636584
1.2012012012012012,28.934581162393577,35.064254046283466,180.96177179797604,163.56103828700648,126.24616533882724,143.54550249165524,203.11772904400965,207.76220253230687
1.234567901234568,28.729711890002555,34.52444626298728,180.9456745444033,163.3518785398662,125.9092832208504,143.6267330762517,203.2741246341008,207.8213944464649
1.267934601267935,28.5308494252168,34.020412604402274,180.9451088932463,163.191800616445,125.52278880957049,143.6970326698586,203.46477720804907,207.8815081563345
1.3013013013013013,28.315952505283263,33.54808252768734,180.93656972390696,163.19351847800016,125.07669034431603,143.73775360692747,203.70873965215125,207.9534552366013
1.334668001334668,28.03058177667261,33.04973534848465,180.8799030073829,163.30051178999707,124.60051894342332,143.7796663151799,203.94779070792265,208.03647384010125
1.3680347013680347,27.706491793756644,32.589634693854016,180.8371316425816,163.45566509084253,124.13938257800784,143.839097933274,204.19044170314592,208.1068772218723
1.4014014014014016,27.343474605710583,32.10844339390289,180.86726004064045,163.50341933071067,123.66109536326006,143.89580055260404,204.49848143103563,208.16806270646657
1.4347681014347682,26.971855595334624,31.649662199260035,181.00386404411853,163.66115363269742,123.18452023733946,143.94761620125522,204.9080642023061,208.21475047133123
1.4681348014681348,26.610202644372144,31.248845840234427,181.1298713861925,163.92553320769463,122.69948058773532,144.01462812181603,205.41905590170992,208.2382029244264
1.5015015015015016,26.24136646412021,30.86694616820795,181.2358290035416,164.33718549933883,122.22872111436654,144.09932346524616,205.99075443372067,208.24888017623027
1.5348682015348682,25.919515756754564,30.50196116670628,181.6202815851373,164.81730184958133,121.75107164673268,144.1744345599354,206.58427069115112,208.26241034707573
1.5682349015682349,25.61968527997558,30.08906085804604,182.1351079216749,165.2348117949556,121.28645985266704,144.23972507743397,207.2077341047735,208.31408188851475
1.6016016016016017,25.33131474807023,29.671155002435675,182.8508311847945,165.63190118835217,120.81641731150468,144.26666858292666,207.90176190210408,208.45345920549804
1.6349683016349683,25.022892311055102,29.237336540905844,183.5990869943068,166.1130994839075,120.34079310411448,144.3550594437439,208.6524143632525,208.4998037585044
1.6683350016683351,24.670004242795287,28.768387192958627,184.42216641380656,166.68760497323527,119.8436875672996,144.48948419090095,209.4630481719281,208.4821449975649
1.7017017017017018,24.27999326609946,28.26520167851999,185.29375248178533,167.23700911351617,119.342712909109,144.6615009407758,210.30490619333813,208.3940422213607
1.7350684017350684,23.90264331197229,27.69514555709102,186.24299345979617,167.718093524369,118.8279205911378,144.8478997262397,211.1438180990475,208.2607255009461
1.7684351017684352,23.484251773057967,27.044577080430724,187.0903201373785,168.1125377822108,118.34917460230828,145.06552976705896,211.9887432370863,208.091371933883
1.8018018018018016,23.08858878460886,26.40044038574995,188.09387035042064,168.5217893545431,117.84862270943556,145.2847315947259,212.84614792662688,207.8873835207852
1.8351685018351689,22.698651618752542,25.71970970565254,189.12055672259024,168.93116005130187,117.36487515330252,145.50228146425906,213.7000004959586,207.65325312054247
1.8685352018685355,22.23368344257543,24.98898356019093,190.18991753010468,169.34519874951852,116.93526864397424,145.7649262429396,214.49458177742773,207.38008002736595
1.901901901901902,21.61075552292832,24.072931975525805,191.2777364831671,169.64179805572672,116.57043930610432,146.04443629853947,215.2370430261333,207.0929554217165
1.9352686019352687,20.80371174975465,23.01085763353329,192.31498561831444,169.73889232424136,116.25812952880273,146.37572269155726,215.94707441441787,206.7771129387075
1.968635301968636,19.78708859708923,21.74537378258731,193.2836531379364,169.69203110794732,115.89300431908303,146.69261748440033,216.6983953983768,206.46721850825165
2.002002002002002,18.66248306113076,20.32188984546697,194.32110587066893,169.73071859799967,115.50433368259614,147.101274327217,217.4772273996168,206.11266716969743
2.035368702035369,17.460410091881656,18.807171977217,195.0230550311765,169.8064892286347,115.1239623369916,147.55313626519842,218.2282536953782,205.7426949826165
2.0687354020687354,16.16901692934592,17.37675312429972,195.7414201725701,169.82307653931812,114.73887068384474,148.0493044627492,218.9439315456416,205.35416517466692
2.1021021021021022,14.868431329756968,15.91101621511981,196.43182429831484,169.67781153809156,114.41584381927356,148.59485977782455,219.61474374272035,204.9354049620339
2.135468802135469,13.587300472554835,14.412294206014876,196.98239653117955,169.66334837282355,114.1236827371508,149.1899315052841,220.2927745625952,204.487158856376
2.1688355021688355,12.399166130105606,12.95104615103031,197.3638469786536,169.2434639020805,113.8365955965462,149.82346126716544,220.97921712746387,204.02241475539944
2.2022022022022023,11.330485922128736,11.652668286715471,197.3011718851592,168.77136497317113,113.63435067226207,150.50568510834012,221.5704529363668,203.5519076262696
2.235568902235569,10.411999510993724,10.450161483436505,199.24406947381289,167.4555260384971,113.46381693778665,151.21781224722616,222.113702067932,203.09155542098625
2.2689356022689355,9.677009303529209,9.277329997583683,200.54363453788025,166.67084080119315,113.33935982209624,151.95454849841434,222.58723567652967,202.63246284554023
2.3023023023023024,9.091480533360244,8.183457199964671,201.1925472784522,165.51275730904226,113.22459590455249,152.66231424349596,223.0064432440979,202.20819793881748
2.335669002335669,8.647970582773088,7.318929085758767,201.3162350978129,164.5230909082947,113.16612127909907,153.33819651429252,223.35939680275897,201.8175012989172
2.369035702369036,8.508614656212147,6.640712086719675,200.98310632955364,167.8103864964231,113.19941769034968,153.99078853203088,223.6243946452373,201.4591417417545
2.4024024024024024,8.648057994820627,6.134364232764307,200.3878699699721,174.02004994159978,113.3005850760969,154.62793768794202,223.83907909582635,201.1334452827713
2.4357691024357693,8.965944979691482,5.89292212409981,199.31193638211684,178.60439612758975,113.47548147179772,155.23163210201903,224.0066511547363,200.85389146351844
2.469135802469136,9.59682835417159,5.89292212409981,198.0331772124244,181.4103597207993,113.74259925701747,155.81075821131412,224.1033486552744,200.615247484521
2.5025025025025025,10.519267322269844,5.89292212409981,196.4687309212088,182.89478506927128,114.06806078547022,156.37433654281932,224.16836866385813,200.41519509012664
2.5358692025358693,11.822950524477983,5.89292212409981,194.6674888538043,180.18969856029247,114.38276549811442,156.87718306561243,224.26868248428727,200.25960772275235
2.569235902569236,13.376708686182653,5.89292212409981,192.67056797126887,180.52637421595543,114.74441899608688,157.3528766778389,224.3632171674442,200.1376647329639
2.6026026026026026,15.18284571743368,5.89292212409981,190.40710575191903,179.5064571434619,115.12990911507195,157.71390397045272,224.4122268819916,200.0654976358025
2.6359693026359694,16.66274102162464,5.89292212409981,187.44329183627363,177.50899080540464,115.5707775595418,157.98088223158982,224.40908362336413,200.056117735449
2.669336002669336,18.188972881223307,5.89292212409981,184.40118747549653,174.41609537002714,116.04224338166354,158.15942981803911,224.3757998060965,200.0877823120736
2.702702702702702,19.88945861177459,5.89292212409981,181.1410081085874,167.130752999603,116.54631015442516,158.27634598696795,224.33274104704904,200.14798257858644
2.736069402736069,13.230132029506729,5.89292212409981,177.49504780719633,163.82692313407483,116.9727525355755,158.33681358004532,224.32442280486543,200.201817406164
2.7694361027694363,9.661012732826254,5.89292212409981,173.72909458335036,159.31402244261687,117.4046617141056,158.41300185413337,224.3195442124429,200.12456962018047
2.802802802802803,8.893570029285225,5.89292212409981,170.00573241034633,153.56417842262735,117.81790717557334,158.41319486299906,224.32266838488223,200.0658760058774
2.836169502836169,10.686034991099046,5.89292212409981,166.3720816334787,146.8833848310375,118.20382090411312,158.3744796126361,224.3266781956721,200.01040035074067
2.8695362028695364,14.6676822491169,5.89292212409981,163.02076382464043,139.58351091190016,118.57390135831638,158.23255922688787,224.32845635594325,199.9751783536874
2.902902902902903,20.60002499283891,5.89292212409981,159.89292076007655,127.08263889130822,118.9255546137043,157.98938451615507,224.3812607513672,199.95301697960355
2.9362696029362696,28.30331205394455,5.89292212409981,157.06772251387915,115.18496771330813,119.26752568133544,157.66817884805053,224.4385897031248,199.93716109156807
2.9696363029696364,37.56547893321135,5.89292212409981,154.51741027314452,104.22049682139668,119.61079705779996,157.3552129552152,224.537779727608,199.93574535321787
3.003003003003004,47.92606200638111,5.89292212409981,152.5640441218758,94.36080329229816,119.9856344219182,157.0385561262892,224.65528832918585,199.9322821834429
3.0363697030363697,59.42073652873804,5.89292212409981,150.71883939743492,85.32798076820387,120.35347222468542,156.68729136234646,224.802530388966,199.9345476195277
3.0697364030697365,71.69825516772981,5.89292212409981,149.33726386456073,77.3543710951785,120.6996015040699,156.26704776871904,224.96163582216252,199.9067743800545
3.103103103103104,84.84947247965977,5.89292212409981,148.2285167915716,70.5194155850222,121.0015030360415,155.83490070809262,225.12911267418093,199.8667247852253
3.1364698031364697,98.70848509036612,5.89292212409981,147.32095343364455,64.66376210106615,121.31618493121248,155.48281994233886,225.27578685346307,199.7750629747004
3.169836503169837,113.02059768910064,5.89292212409981,146.7331294536879,59.46379563507217,121.58984261889964,155.15276106161497,225.4140000105084,199.6819491082721
3.2032032032032034,127.53398471439314,5.89292212409981,146.92833455348455,55.1610792788973,121.87599249452964,154.87424107594265,225.5443278805248,199.5627614154501
3.2365699032365702,142.1680820373851,5.89292212409981,147.70149315788817,51.84768460944937,122.164557403317,154.63367953293488,225.6738923463148,199.42775482547924
3.2699366032699366,156.82182628177287,5.89292212409981,148.87702099571447,49.69710809613442,122.41797509375168,154.42858311616598,225.7935123747052,199.2979096391465
3.3033033033033035,171.3322508260245,5.89292212409981,150.52016164074033,48.28702676724353,122.66718635861731,154.26477387073504,225.8923762313888,199.1803991686268
3.3366700033366703,185.5111476509168,5.89292212409981,152.78494066875783,48.354065278732726,122.91273731909264,154.15368592900398,225.9599520237965,199.075709325255
3.3700367033700367,199.1541373794364,5.89292212409981,156.19217753835673,49.70798422578251,123.11522912928088,154.07885607130007,226.02122238872667,198.97558445770665
3.4034034034034035,212.1626227342664,5.89292212409981,157.68302645960537,53.43369056801414,123.28699959178854,154.0381727062879,226.07857251112185,198.88563023673268
3.4367701034367704,224.4292467808192,5.89292212409981,159.15251839182068,58.42707855175167,123.41571964801868,154.01738651661037,226.1270511690822,198.81147456618584
3.4701368034701368,235.84174913859115,5.89292212409981,160.72234467867952,65.78046707849771,123.59889630232485,154.04739080832778,226.1560528764432,198.73591622061625
3.503503503503504,246.34334146869128,5.89292212409981,162.25462929092123,75.56689048681406,123.81111463009088,154.12610528291836,226.16452865325027,198.66777944934992
3.5368702035368704,255.6117252398465,5.89292212409981,163.7900642494676,82.60902370038347,124.02059486530295,154.23352933614092,226.1609692116688,198.62195793304707
3.5702369035702373,263.5257043941144,5.89292212409981,165.1611183572332,86.01443393853002,124.25482804170493,154.37519188938535,226.1384606634963,198.58018879383505
3.603603603603604,270.0497011409417,5.89292212409981,166.5083951507309,89.16040572878774,124.50588038852844,154.55542275094737,226.09874085575373,198.5333200182518
3.6369703036369705,274.9523183631612,5.89292212409981,167.58100499991278,90.10854822631453,124.73748567558196,154.78218483078103,226.0349336718904,198.51112458217807
3.670337003670337,278.0721478393097,5.89292212409981,168.37408783427784,93.32081356390653,124.97650380445928,155.00567510373023,225.96866757559616,198.4539611334565
3.703703703703704,279.1011112720031,5.89292212409981,168.85641853108112,100.23356133494558,125.26836944663653,155.2461679832072,225.88456678087363,198.35749710283136
3.737070403737071,277.9634039175895,5.89292212409981,168.82854814048983,103.59824786166384,125.57140604064573,155.4880682862412,225.7831395372629,198.18535024962029
3.770437103770437,274.42731407554686,5.89292212409981,168.49754173394086,106.9495950051834,125.87745979843272,155.75794224291653,225.67235547883425,197.97385973329847
3.803803803803804,269.14317820288875,5.89292212409981,168.44219954531624,109.54771381037976,126.15780544697046,156.0727004084547,225.5397986160337,197.70721934997812
3.8371705038371706,261.5829224143766,5.89292212409981,168.63107935706208,111.78460025749654,126.39970713385374,156.37416287369135,225.4084300334074,197.4944356750858
3.8705372038705375,251.8543691745356,5.89292212409981,168.55360876900966,117.09429737375233,126.56370529905934,156.6793373847787,225.2934491955059,197.3205200918912
3.903903903903904,251.08471761794524,5.89292212409981,168.66702052089684,116.89037247281098,126.74123388824324,156.95791561223112,225.17139960714252,197.1841605054221
3.937270603937271,250.30298327416392,5.89292212409981,168.9760637487345,115.23165411052102,126.9349991371786,157.25843734460116,225.03237370401672,197.01867996661736
