Time,Left Shoulder Angle,Right Shoulder Angle,Left Elbow Angle,Right Elbow Angle,Left Hip Angle,Right Hip Angle,Left Knee Angle,Right Knee Angle
0.0,8.805508812375729,29.544530526140058,151.20678913364904,155.2903852509921,137.54646632958966,123.88076138630282,201.13463011212576,220.16555311565
0.0333667000333667,9.78282002687124,27.455657280512646,155.25690557103906,155.6371251203318,134.1492856164405,125.70947639892978,204.9951831147416,218.56824756293528
0.0667334000667334,11.455418204236429,25.88771022720577,158.9623893617899,155.6930134998117,131.056570184655,127.4522780258664,208.58227003521867,217.061852330054
0.1001001001001001,13.771263710989928,24.8118982181815,162.32303362306575,155.4738095827046,128.2607868593689,129.11011545246282,211.8957632083384,215.64204378038136
0.1334668001334668,16.678316913650377,24.199430105401905,165.3386314720309,154.99527256228325,125.75440246571787,130.68393786406926,214.93553496888208,214.304498277293
0.1668335001668335,20.12453817873641,24.02151474082904,168.00897602584956,154.27316163182044,123.5298838288376,132.17469444603583,217.7014576516312,213.04489218416413
0.2002002002002002,24.05788787276667,24.24936097642498,170.333860401686,153.323235984589,121.57969777386371,133.5833343837127,220.19340359136712,211.85890186437024
0.2335669002335669,28.4263263622598,24.854177664151795,172.3130777167044,152.1612548138617,119.89631112593194,134.91080686245004,222.41124512287124,210.74220368128664
0.2669336002669336,33.17781401373441,25.807173655971543,173.94642108806903,150.80297731291128,118.47219071017794,136.158061067598,224.3548545809249,209.6904739982888
0.3003003003003003,38.26031119370917,27.0795578038463,175.23368363294412,149.2641626750106,117.29980335173738,137.32604618450677,226.0241043003096,208.69938917875209
0.333667000333667,43.62177826870269,28.64253895973812,176.1746584684939,147.56057009343243,116.37161587574596,138.41571139852647,227.41886661580665,207.7646255860518
0.3670337003670337,49.21017560523363,30.46732597560908,176.76913871188262,145.70795876144956,115.68009510733933,139.4280058950073,228.53901386219744,206.88185958356348
0.4004004004004004,54.9734635698206,32.525127703421234,177.01691748027451,143.72208787233475,115.21770787165318,140.36387885929938,229.3844183742634,206.0467675346624
0.4337671004337671,60.85960252898227,34.787152995136665,176.91778789083378,141.6187166193608,114.97692099382316,141.2242794767529,229.95495248678588,205.255025802724
0.4671338004671338,66.81655284923725,37.22461070271743,176.47154306072468,139.41360419580053,114.950201298985,142.01015693271805,230.25048853454624,204.5023107511237
0.5005005005005005,72.79227489710419,39.8087096781256,175.6779761071115,137.1225097949267,115.13001561227432,142.72246041254493,230.270898852326,203.78429874323683
0.5338672005338673,78.73472903910174,42.51065877332322,174.5368801471584,134.7611926100121,115.50883075882686,143.36213910158372,230.01605577490648,203.09666614243883
0.5672339005672339,84.59187564174886,45.30166684027265,173.04804829803115,132.34541183433075,116.07911356377916,143.9301421851858,229.4858316370709,202.43508931210664
0.6006006006006006,85.93828922264282,41.934576204078,170.50359944366238,126.8212005561455,116.3546794175722,144.6754123650786,229.0797934798212,201.64599029562737
0.6339673006339673,87.78563251216343,44.9311516999144,168.59194359988246,118.27366098072343,116.93113934270109,145.3235730397597,228.09425557676565,201.0282626469955
0.6673340006673341,90.90355911728444,49.41674223276605,165.97366331250913,118.6675960987848,117.89669249042328,145.8016005183609,226.53549050274864,200.4886208068721
0.7007007007007008,95.1920425380484,48.741851050987,162.69699351473724,116.01589419281352,119.38504375365358,145.92068967812523,224.489426171282,200.0326866849372
0.7340674007340674,100.78534156762063,50.02090661932273,158.00666808944408,113.98968390573282,121.17096388505746,145.97132408439012,221.85046502532705,199.45543720029093
0.7674341007674341,107.22160650330414,52.55761298004547,152.5955136801835,115.85277908923956,123.09488228779747,145.8145339091741,219.01561726258527,198.953120461559
0.8008008008008008,114.37600678156878,56.74940076064801,148.48835116570766,115.7842747993889,125.22586688527907,145.42963444690372,216.007536172544,198.51999093770084
0.8341675008341676,129.93509690577017,62.63333189374048,144.08420994142654,115.15952527395692,127.6104581484052,145.06656735905648,212.797691035262,197.85264131803453
0.8675342008675342,143.7543607842408,69.35214342403084,139.8100675457573,115.80160741030544,130.20116667745685,144.7576122648139,209.2504156833213,197.0113564919449
0.9009009009009008,156.07570015489443,84.76327997749323,134.9831524534055,117.66613868609296,133.00926168772506,144.3549930446504,205.67555403780588,196.0683671200356
0.9342676009342676,165.75631535748337,98.79587064611418,130.54207972509184,120.49558179980365,135.57580485930336,144.15016994150642,202.14796508612383,194.89839937377388
0.9676343009676344,173.1239608221554,110.9567821392054,126.24753116629094,123.23988141184248,138.19789889268085,144.32664097609074,198.36710178028332,193.42375677868569
1.001001001001001,178.28989234941304,121.06830405757192,122.38641726051895,125.967817752541,140.84360256018667,144.19439098996713,195.0070406452884,192.3332303402332
1.0343677010343677,180.36262283687,129.49843317249844,118.71995248227904,128.53695915197977,143.4043901845676,144.07829229983167,191.82183172020007,191.25498180499727
1.0677344010677343,185.82722027402923,140.47551877577246,115.15951762529264,131.8732059560947,146.06843031945328,144.19886684203428,188.3706780732923,189.6548499980608
1.1011011011011012,190.23125648032567,150.81755170506523,111.59639375175468,134.92576215920627,148.62786313038197,144.37156700954066,185.04715507903515,188.01342190332943
1.1344678011344678,193.4062225275232,160.2868105921324,108.020758440859,137.57213158176052,151.04822406978235,144.6001001542211,181.88909367342688,186.3466306174209
1.1678345011678346,195.1836094873873,168.6455740687306,104.42278927180077,139.68981804420446,153.29504859008424,144.88817362794703,178.93432479246746,184.6704092369547
1.2012012012012012,195.39490843168352,175.6561207666167,100.79266382377502,141.1563253669852,155.33387214371743,145.23949478258982,176.22067937215684,183.00069085855003
1.234567901234568,193.87161043217745,181.08072931754776,97.12055967597692,141.84915737054988,157.13023018311176,145.65777097002086,173.78598834849498,181.35340857882628
1.267934601267935,190.44520656063457,184.6816783532805,93.39665440760167,141.64581787534547,158.64965816069702,146.14670954211155,171.66808265748188,179.74449549440277
1.3013013013013013,184.9471878888205,186.22124650557168,89.61112559784432,140.42381070181915,159.85769152890302,146.71001785073335,169.9047932351175,178.18988470189885
1.334668001334668,177.20904548850075,185.4617124061783,85.75415082590004,138.0606396704179,160.71986574015955,147.3514032477576,168.5339510174017,176.7055092979339
1.3680347013680347,167.06227043144082,182.16535468685709,81.81590767096392,134.43380860158888,161.20171624689638,148.07457308505573,167.59338694033454,175.3073023791272
1.4014014014014016,154.33835378940626,176.09445197936478,77.78657371223115,129.4208213157792,161.26877850154335,148.88323471449914,167.120931939916,174.01119704209816
1.4347681014347682,138.86878663416252,167.01128291545862,73.6563265288968,122.89918163343586,160.88658795653032,149.78109548795922,167.15441695214597,172.8331263834661
1.4681348014681348,120.4850600374753,154.67812612689517,69.41534370015603,114.74639337500594,160.02068006428698,150.7718627573074,167.73167291302445,171.78902349985032
1.5015015015015016,99.01866507111006,138.85726024543138,65.05380280520397,104.83996036093652,158.63659027724322,151.85924387441503,168.89053075855142,170.89482148787022
1.5348682015348682,74.30109280683233,119.310963902824,60.56188142323575,93.05738641167486,156.69985404782884,153.04694619115358,170.6688214247268,170.16645344414513
1.5682349015682349,46.16383431640766,95.80151573082996,55.929757133446486,79.2761753476679,154.1760068284736,154.3386770593944,173.10437584755056,169.61985246529437
1.6016016016016017,14.438380671601564,68.09119436120599,51.147607515031325,63.37383098936259,151.0305840716073,155.73814383100893,176.23502496302268,169.27095164793732
