Time,Left Shoulder Angle,Right Shoulder Angle,Left Elbow Angle,Right Elbow Angle,Left Hip Angle,Right Hip Angle,Left Knee Angle,Right Knee Angle
0.0,28.07949436819757,36.1500327529971,159.18217097611736,170.1256147592984,137.3728720637566,139.48158178902938,203.42086688761327,198.954032553478
0.0333667000333667,27.37230836592272,36.044032114020766,158.62047364825293,169.45774566785397,137.8940775516122,139.70142112549345,203.53802861627912,199.08101122692764
0.0667334000667334,26.661830334211714,36.01433504718599,157.97717233929964,168.97970331642196,138.4099652159431,139.88490474042945,203.6060937669982,199.21003923465616
0.1001001001001001,25.95361401359293,36.05363311244913,157.26611005404925,168.67510289395247,138.91821049543495,140.03376896071714,203.62919070921004,199.34102919715608
0.1334668001334668,25.253213144594703,36.154617869766525,156.5011297972936,168.52755958939565,139.4164888287736,140.14975011323614,203.61144781235407,199.47389373491995
0.1668335001668335,24.566181467745395,36.30998087909455,155.69607457382438,168.52068859170157,139.90247565464475,140.23458452486608,203.5569934458698,199.60854546844035
0.2002002002002002,23.898072723573343,36.51241370038954,154.86478738843346,168.6381050898204,140.37384641173423,140.29000852248663,203.46995597919675,199.74489701820968
0.2335669002335669,23.25444065260692,36.75460789360787,154.02111124591255,168.86342427270222,140.82827653872775,140.31775843297746,203.3544637817744,199.8828610047206
0.2669336002669336,22.640838995374445,37.02925501870588,153.17888915105348,169.1802613292972,141.2634414743111,140.31957058321817,203.2146452230421,200.0223500484656
0.3003003003003003,22.062821492404293,37.32904663563993,152.35196410864802,169.57223144855544,141.67701665716996,140.29718130008848,203.0546286724396,200.1632767699372
0.333667000333667,21.525941884224807,37.64667430436638,151.55417912348793,170.02294981942703,142.0666775259902,140.252326910468,202.87854249940617,200.30555378962785
0.3670337003670337,21.03575391136433,37.97482958484157,150.799377200365,170.5160316308622,142.43009951945754,140.18674374123637,202.6905150733814,200.4490937280302
0.4004004004004004,20.597811314351222,38.30620403702188,150.101401344071,171.03509207181094,142.76495807625773,140.1021681192733,202.4946747638048,200.5938092056368
0.4337671004337671,20.21766783371384,38.63348922086364,149.47409455939774,171.56374633122343,143.06892863507653,140.0003363714584,202.2951499401157,200.73961284294
0.4671338004671338,19.900877209980514,38.94937669632322,148.93129985113697,172.0856095980498,143.33968663459973,139.8829848246713,202.09606897175377,200.8864172604325
0.5005005005005005,19.65299318367961,39.24655802335697,148.48686022408052,172.58429706124016,143.57490751351307,139.7518498057917,201.9015602281584,201.0341350786068
0.5338672005338673,19.47956949533948,39.51772476192124,148.1546186830201,173.04342390974466,143.7722667105023,139.60866764169924,201.7157520787692,201.18267891795537
0.5672339005672339,19.38615988548861,39.75556847197273,147.94841823274874,173.44660533251482,143.92943966425432,139.45517465927466,201.5427728930271,201.3319613989724
0.6006006006006006,19.385144403876247,39.9695157879499,147.89323768788785,173.79544744796002,144.02000454818182,139.20003448428812,201.4658486566232,201.4791374373553
0.6339673006339673,19.58578364165309,40.08927754577911,148.26508468335203,173.9146362639559,144.09586866715017,138.94368734488006,201.4182458926436,201.65236962934577
0.6673340006673341,19.92144535201645,40.44876738667543,148.92289982580016,174.19857916771386,144.15860096517557,138.6891523189548,201.37469691107745,201.86361003551744
0.7007007007007008,20.410041452028675,40.66584605637096,149.83200233602017,174.22287839428046,144.14099149185952,138.45811641856898,201.33653049301265,202.08433493907472
0.7340674007340674,21.046944882394005,40.628156172569184,150.97471348014443,173.80665906542768,144.0081189445038,138.1932550815254,201.3583125335817,202.29852852349023
0.7674341007674341,21.79373181629038,40.37198932087719,152.31082701512753,173.08499115188647,143.77318574563677,137.9663855047409,201.43993523923805,202.49881175930057
0.8008008008008008,22.570046808786685,39.92564675422734,153.63987361583784,172.12861322277507,143.38462589021023,137.78077338123063,201.57037164426688,202.66232139374105
0.8341675008341676,23.419258282678097,39.28398564051764,155.08608086651694,170.91706586198407,142.93404940265833,137.66875699723784,201.7086198283033,202.79452560678308
0.8675342008675342,24.36053648092808,38.55444639594006,156.68123933522804,169.64815317936478,142.50142777835475,137.55593029462804,201.84902804607,202.92510766931017
0.9009009009009008,25.374154052059488,37.65419659588488,158.3498360347774,168.14219746489067,142.04399515196255,137.5066996687775,201.99831317520287,203.03514732368723
0.9342676009342676,26.457634538304315,36.79652680921738,159.8915918482375,166.48464301498765,141.4298222857887,137.46243936421405,202.2316311169512,203.17198853974097
0.9676343009676344,27.428314377020406,35.779898551075355,161.219456146472,164.57701408002706,140.79011245348272,137.49515685519268,202.4853069388288,203.26968017092187
1.001001001001001,28.430422434968072,34.474100779950795,162.57242791326257,162.43666694631378,140.20810623126584,137.64294640231245,202.727793196812,203.30582306630063
1.0343677010343677,29.360428012102496,32.95439434125392,163.88648292756355,160.11949623891616,139.65992644284674,137.91536636449484,202.9221442850941,203.2787046649664
1.0677344010677343,30.40140916625748,31.501441570082424,165.24050089383502,158.3755678301174,139.12043028131828,138.24603120969638,203.0573032232305,203.21482213587217
1.1011011011011012,31.399618654141552,29.83532617114878,166.7880934393685,156.4987564392612,138.6727507642298,138.6653325188861,203.1198324813696,203.1121043007417
1.1344678011344678,32.338962453493785,27.93448717610108,165.94584763729722,154.5335226314746,138.3380606039971,139.2394693331628,203.0529855994752,202.94084141852164
1.1678345011678346,33.02953227190472,25.98791961781742,165.68471803728497,152.308326599283,138.09303265385242,139.91028112854286,202.93147638351715,202.7374276868016
1.2012012012012012,33.30165869802236,23.9751407852293,169.1590452281792,150.17404545234956,137.91112634643312,140.63854339978616,202.7735529758164,202.5140200455256
1.234567901234568,33.06337520626008,21.96736391748612,167.6821370127171,147.87346194676414,137.75958643131665,141.3992960401364,202.59800011776912,202.32136564633328
1.267934601267935,32.614875323864304,19.873566296226816,166.90079453510938,145.44486972126325,137.6168162266234,142.1949969437477,202.4103559350889,202.15456370514465
1.3013013013013013,32.06136563745078,17.762195019031285,167.78087629822895,142.46093613373833,137.47670100182032,143.02245250527344,202.21962408002585,201.97711728848932
1.334668001334668,31.088240192271936,15.779091128586607,172.12085094709576,140.55100530853187,137.35743098149132,143.86672676649783,202.02509601064807,201.77729477564583
1.3680347013680347,29.838910751963773,13.938152736060276,175.32249288797917,138.55234027859328,137.23356381968495,144.72115215327233,201.83522461976315,201.55267634217708
1.4014014014014016,28.26034810560344,12.194395969535607,177.51359893810266,136.52386554468887,137.11653727427915,145.6075444794496,201.6505888192868,201.2680251130208
1.4347681014347682,26.609559313748434,10.609494762853112,178.96929692254196,134.31789601387706,137.03989213240664,146.50287474267438,201.461548580506,200.93812078483032
1.4681348014681348,24.695282834000164,9.017430410104716,179.33932358428237,128.75914330778102,136.97819553744026,147.38892888396697,201.2736129384424,200.5861996870548
1.5015015015015016,23.01204525365221,7.682716149593556,179.44269930430306,123.98551826625337,136.90565696627897,148.22073008611878,201.1628140876614,200.2696273309247
1.5348682015348682,21.02277976277607,6.603594166952263,179.06854582095934,125.9917104593878,136.89679415908793,149.00031517925473,201.0765147942714,199.9753149380716
1.5682349015682349,19.39632833782806,5.794983548872672,178.5481818352646,126.863646769839,136.91520027806664,149.69751587040247,201.02624341094293,199.6954911030697
1.6016016016016017,17.86296833352214,5.177695383016734,177.8465453580385,126.3086793595004,136.946863511724,150.3302977131091,201.0290095072345,199.45115705335743
1.6349683016349683,16.682754822241616,4.741973355156931,176.8765887165478,124.77404564903368,136.95412924296377,150.8889549094498,201.05156134713465,199.2491491551621
1.6683350016683351,6.555824764650766,4.535670635324646,175.28588502766655,122.62319373024508,136.99930760565982,151.27323764598617,201.0455118584165,199.1936560360425
1.7017017017017018,-0.2394293007935335,4.434973885182245,173.64293972557547,119.40725222957458,136.99128866514988,151.51767174018747,201.12160914215949,199.16978001917164
1.7350684017350684,-0.2394293007935335,4.434973885182245,172.190897314923,115.38039329899516,136.91631536989175,151.60781620447275,201.3274164744992,199.1723136900225
1.7684351017684352,-0.2394293007935335,4.434973885182245,171.06208310358997,111.0621802547061,136.72590025198016,151.66728105375583,201.6115401194297,199.15161699097487
1.8018018018018016,-0.2394293007935335,4.434973885182245,169.1051051975006,107.06745482580156,136.46037301125745,151.6354105560076,201.9636631116234,199.1222567902732
1.8351685018351689,-0.2394293007935335,4.434973885182245,166.99931308696003,102.57258976727236,136.07442538205203,151.51812814575737,202.3908033622501,199.09317010519484
1.8685352018685355,-0.2394293007935335,4.434973885182245,165.02991505181217,97.61067321570168,135.6098642193517,151.30482708063485,202.88888070499831,199.00178082804004
1.901901901901902,-0.2394293007935335,4.434973885182245,163.036177641122,92.69170485587954,135.08093916844544,151.09562232248334,203.40467149805943,198.872421563612
1.9352686019352687,-0.2394293007935335,4.434973885182245,161.04950072827097,87.74207903008998,134.52303798899507,150.86797875442755,203.9192770509716,198.70889352078012
1.968635301968636,-0.2394293007935335,4.434973885182245,159.11936140326148,82.95672884128793,134.01144839914696,150.61447323171765,204.4264367294508,198.5409568625905
2.002002002002002,-0.2394293007935335,4.434973885182245,156.9887369339659,78.4683627779239,133.5356452423418,150.31629939384365,204.94703455042787,198.3824735595981
2.035368702035369,-0.2394293007935335,4.434973885182245,154.82996406407753,74.13773715429967,132.9947094035426,150.05911795786636,205.4915832332451,198.19647813217432
2.0687354020687354,-0.2394293007935335,4.434973885182245,152.70437276761933,70.1670210710693,132.4231110584651,149.7694478411371,206.0240689052692,197.99458258858468
2.1021021021021022,-0.2394293007935335,4.434973885182245,150.9105005140427,66.52536361089071,131.99471984269147,149.5654963610168,206.4673390516967,197.701326287051
2.135468802135469,-0.2394293007935335,4.434973885182245,149.24338641470908,63.25387263625495,131.63926801631857,149.42817373583966,206.8669071648117,197.36108127664647
2.1688355021688355,-0.2394293007935335,4.434973885182245,147.82012637723508,60.59639071794505,131.29173234642505,149.31012868061651,207.22617552790152,197.0232337376137
2.2022022022022023,-0.2394293007935335,4.434973885182245,146.61127027273866,58.688716836960815,131.00104748653513,149.20987602721473,207.51446819987052,196.6798126099844
2.235568902235569,-0.2394293007935335,4.434973885182245,145.58978533212013,56.60504367394071,130.79723064688395,149.2001493655549,207.747147275826,196.32288691057505
2.2689356022689355,-0.2394293007935335,4.434973885182245,144.5798742521745,54.94386353102137,130.6654665294795,149.25070644746162,207.92504119471684,195.9828807549229
2.3023023023023024,-0.2394293007935335,4.434973885182245,146.8601974600393,53.63097544589522,130.53501132751356,149.28256267887105,208.1381408254942,195.70645628259163
2.335669002335669,-0.2394293007935335,4.434973885182245,149.90076571384682,52.80087185703916,130.46434479834363,149.34114629960567,208.3055793414812,195.44935879565188
2.369035702369036,-0.2394293007935335,4.434973885182245,148.46843597042366,52.10318621169792,130.38142814325204,149.42173209536935,208.47396272222448,195.2487266283704
2.4024024024024024,-3.925103570737585,4.434973885182245,152.32919727026925,51.803876348685655,130.28581771442245,149.54098192086758,208.6671005536284,195.0565682342164
2.4357691024357693,-4.9270679136027775,4.434973885182245,157.0362327593169,51.90639084592481,130.19785559117705,149.68303561097193,208.88534610256207,194.87399787296263
2.469135802469136,-2.8501069148590874,4.434973885182245,161.7317951105352,52.99879555684585,130.14554174555482,149.8723815800211,209.1140498656679,194.6735092689584
2.5025025025025025,1.788289602690309,4.434973885182245,162.91271893887787,53.342257613478274,130.0869331306899,150.08094989080135,209.3561097740053,194.49682964375287
2.5358692025358693,1.788289602690309,4.434973885182245,163.8133608335825,53.74460838084206,130.04955346844483,150.32098971943992,209.58930543211045,194.3246334548761
2.569235902569236,1.788289602690309,4.434973885182245,164.5063724001399,54.13486345601236,130.0165519475918,150.52302283857816,209.8242687794101,194.2662599276188
2.6026026026026026,1.788289602690309,4.434973885182245,164.91856150355204,54.7953837008338,129.99932692162952,150.66421270527832,210.052510780176,194.30191598146865
2.6359693026359694,1.788289602690309,4.434973885182245,165.75339803893473,59.85235586068431,129.9654961672505,150.72390358096249,210.2825477402071,194.4745917055615
2.669336002669336,1.788289602690309,4.434973885182245,166.7329163364689,66.43813895643348,129.92591797090063,150.74842319815224,210.5306664647161,194.76816099972268
2.702702702702702,1.788289602690309,4.434973885182245,167.7113883803642,66.81140807280453,129.7972078093296,150.693624542887,210.83076636088384,195.19005856451903
2.736069402736069,1.788289602690309,4.434973885182245,168.38036980262785,67.0027588907926,129.57525351480518,150.5577808073595,211.16312623049416,195.7670451725809
2.7694361027694363,1.788289602690309,4.434973885182245,168.76740650418105,67.58274308363798,129.2779695692908,150.29775595464812,211.52086352372183,196.4755502470392
2.802802802802803,8.916025104712862,4.434973885182245,169.53824513212996,68.2959257329189,128.9074501673281,149.90676376179198,211.92654015722272,197.3176685079329
2.836169502836169,18.00890384213292,4.434973885182245,170.2359478189672,68.85840862534522,128.44620206298003,149.4722685495129,212.4038607262304,198.1252016415124
2.8695362028695364,28.978201696947,4.434973885182245,172.0189655389941,69.33450018715655,127.8641080281283,148.97929774322222,212.98258214315328,198.93762648473628
2.902902902902903,41.43106747463538,4.434973885182245,173.09103406380325,69.93787547908009,127.273590949176,148.4367291915419,213.5040850551348,199.7191930437772
2.9362696029362696,55.42558889778235,4.434973885182245,172.92406444580598,68.98679830949108,126.6300162267642,147.9070715230884,213.9572240666512,200.32108679976665
2.9696363029696364,70.54632772675126,4.434973885182245,172.17461036032938,67.40442618958312,126.03684718902076,147.34754474239446,214.3569253635743,200.8855715304092
3.003003003003004,86.61442467802608,4.434973885182245,167.53124174236592,65.87365844869946,125.42562702161682,146.59388216353562,214.7384257567141,201.53908213727684
3.0363697030363697,103.3416578139433,4.434973885182245,164.94990996109632,64.72034205034194,124.83027945373055,145.79984380302787,215.0561005315389,202.260194075076
3.0697364030697365,120.6899496387133,4.434973885182245,161.55758535280896,62.53846124035387,124.28270383471803,144.9703915339953,215.37270280733927,203.0504604322108
3.103103103103104,138.3136606257089,4.434973885182245,158.4875070913345,60.936095842202015,123.82495934994397,144.14110858856196,215.5944680836128,203.86036978922616
3.1364698031364697,156.06353347513874,4.434973885182245,158.9728420099554,59.322796627219454,123.27160081111262,143.3447049535341,215.7280213945513,204.65552262897288
3.169836503169837,173.5273276452064,4.434973885182245,159.69690339231892,58.301115468200166,122.81015605968172,142.57365033409624,215.7282906923469,205.43716060989283
3.2032032032032034,190.5606083770149,4.434973885182245,160.0061772820958,57.633169169478506,122.3615443955086,141.94420228058846,215.5938341343592,206.2256761123076
3.2365699032365702,206.90435930327425,4.434973885182245,160.61099570690342,57.61383478707888,122.13349266830848,141.40287060174086,215.3073869632672,206.96411722337612
3.2699366032699366,222.4306294629479,4.434973885182245,162.1901521043395,57.448529942618464,122.25340039503624,140.7807789751474,214.75312689322783,207.81406267230432
3.3033033033033035,236.82350816821327,4.434973885182245,163.6593125168657,58.27722808426098,122.58933998345005,140.24090645671532,214.08423792953647,208.54724251430383
3.3366700033366703,249.9154906085996,4.434973885182245,165.83544797327386,59.083905154595065,122.99663153189088,139.7899017364983,213.23040060904165,209.1989441894894
3.3700367033700367,261.5235831000442,4.434973885182245,167.61395361400068,60.733927256767,123.5900654970299,139.44490360052885,212.31094460450785,209.7005775150352
3.4034034034034035,271.60459404906777,4.434973885182245,169.4215172431504,63.039489218560064,124.39749807165582,139.0710832696506,211.4661026663568,210.1458410273852
3.4367701034367704,280.2972712082935,4.434973885182245,170.59328756065548,66.21743643719688,125.39157845653816,138.8015784800654,210.4819666593789,210.4148020362469
3.4701368034701368,287.231562836316,4.434973885182245,172.27039600604465,69.96716857281915,126.4817635419434,138.63431298485378,209.51571951517457,210.61241174897083
3.503503503503504,292.48146927825354,4.434973885182245,173.42443668061932,74.22220891510578,127.69518997802078,138.64959455648355,208.465555406668,210.65174599768773
3.5368702035368704,295.73634377073427,4.434973885182245,175.28583633838036,80.17926777472516,128.86635372740892,139.027358706737,207.6768088632996,210.61970224667508
3.5702369035702373,297.2028851733191,4.434973885182245,176.82370397018673,89.69152212117858,130.19334071707,139.5417771732015,206.8017332733232,210.3710559772411
3.603603603603604,296.2706779413243,4.434973885182245,178.36368470756514,100.1732331729292,131.60268949342242,140.2295334984404,205.8533455926788,209.9121768499632
3.6369703036369705,293.59731148764376,4.434973885182245,178.93057826326873,109.05684126588372,133.15385976393355,141.01035465192362,204.76369822121205,209.29795997152544
3.670337003670337,288.4494052342436,4.434973885182245,178.34360603603423,116.23715284927704,134.81793795425432,141.80202406653052,203.59987862767213,208.52843574514296
3.703703703703704,280.9663439780826,4.434973885182245,177.13409532581662,122.31106812795174,136.54743929824144,142.55948819822967,202.416604884212,207.67475442217923
3.737070403737071,270.25789639808,4.687825990324639,175.58542383557713,126.54287282279654,138.32678398000627,143.4337866821582,201.25361191189305,206.68129460471104
3.770437103770437,269.3047655297778,5.315555424255702,173.35629674831762,129.7111613779956,140.12246413802896,144.31382595416696,200.07855651343831,205.5864363132957
3.803803803803804,277.8902201955306,6.310306869806645,171.26713423958287,132.44714905518455,141.95900622490151,145.34115077511862,198.8851020003584,204.33595394526048
3.8371705038371706,284.1084796103916,7.286440997740162,168.33461939272294,134.4798635608172,143.75632675782137,146.2630114255766,197.7008800025956,203.06142133113505
3.8705372038705375,289.05960052482857,8.388673941530266,165.2220903850854,135.69914041127504,145.47260656792628,147.10580480881188,196.5483550655418,201.76569854738227
3.903903903903904,291.2425686621268,9.744058038459151,161.7131290528542,135.84796534906445,147.1163436667971,147.83946719781855,195.4546420464806,200.4441036320605
3.937270603937271,290.64376970640745,11.26536708909405,157.48966816142206,134.77278039312336,148.70572319216672,148.47891770815374,194.421252798666,199.09269908229209
