Time,Left Shoulder Angle,Right Shoulder Angle,Left Elbow Angle,Right Elbow Angle,Left Hip Angle,Right Hip Angle,Left Knee Angle,Right Knee Angle
0.0,19.592221685514687,28.21438992030229,152.4820268116423,161.0759151405957,143.18480584038093,142.8271567397907,199.3122775258015,202.1068339565287
0.0333667000333667,19.457174296175893,26.820620971020908,152.5296780106228,158.90692091444993,143.0754275265416,143.42458273436085,199.5488983793333,201.62640651073303
0.0667334000667334,19.30793734635773,25.60819532469281,152.5155347228699,156.99339226135967,143.00901648621362,143.9607468523843,199.7675695026093,201.2086886649128
0.1001001001001001,19.14635246964172,24.566143200108705,152.44599949290682,155.32176496740158,142.98200073998893,144.4379733441952,199.9696826442968,200.8510344440676
0.1334668001334668,18.97426129960939,23.6834948160593,152.32747486525682,153.87847481865222,142.99080830845952,144.8585864601279,200.15662955306297,200.55079787319733
0.1668335001668335,18.79350546984228,22.94928039133531,152.1663633844431,152.64995760118822,143.03186721221735,145.22491045051655,200.32980197757536,200.3053329773018
0.2002002002002002,18.6059266139219,22.35253014472744,151.96906759498884,151.62264910108615,143.10160547185444,145.53926956569543,200.49059166650127,200.11199378138065
0.2335669002335669,18.41336636542979,21.88227429502641,151.74199004141735,150.78298510442264,143.1964511079627,145.8039880559988,200.64039036850804,199.96813431043373
0.2669336002669336,18.21766635794748,21.527543061022914,151.49153326825183,150.11740139727428,143.31283214113418,146.02139017176086,200.780589832263,199.8711085894608
0.3003003003003003,18.02066822505649,21.27736666150768,151.22409982001548,149.61233376571766,143.44717659196078,146.1938001633159,200.9125818064335,199.81827064346163
0.333667000333667,17.824213600338354,21.1207753152714,150.94609224123155,149.25421799582944,143.59591248103453,146.3235422809981,201.0377580396869,199.806974497436
0.3670337003670337,17.630144117374595,21.0467992411048,150.66391307642326,149.02948987368617,143.7554678289474,146.41294077514175,201.1575102806906,199.8345741763836
0.4004004004004004,17.44030140974674,21.044468657798586,150.38396487011383,148.92458518536444,143.92227065629132,146.4643198960811,201.27323027811184,199.89842370530428
0.4337671004337671,17.256527111036327,21.102813784143457,150.1126501668265,148.9259397169409,144.0927489836583,146.48000389415031,201.38630978061803,199.99587710919783
0.4671338004671338,17.080662854824872,21.21086483893013,149.8563715110845,149.01998925449212,144.26333083164036,146.46231701968372,201.4981405368765,200.124288413064
0.5005005005005005,16.914550274693912,21.357652040949333,149.621531447411,149.1931695840947,144.4304442208294,146.41358352301552,201.61011429555467,200.28101164190247
0.5338672005338673,16.76003100422497,21.53220560899176,149.41453252032932,149.4319164918253,144.5905171718174,146.33612765447998,201.7236228053198,200.4634008207132
0.5672339005672339,16.618946676999713,21.72355576184831,149.24177727436378,149.72266576376157,144.73997770519753,146.2322736644124,201.84005781484072,200.66880997449732
0.6006006006006006,16.597268867699462,21.90231867481668,149.35153984903454,150.0235858947791,144.87584151045564,146.05348436287824,201.8734031651618,200.9352791115128
0.6339673006339673,16.58346216094518,21.989986768143343,149.37611866503173,150.21597173344873,144.99232239298817,145.86829123391516,201.9418582032796,201.2166516271623
0.6673340006673341,16.57731392048427,21.99916976901252,149.44190965922527,150.38052831736684,145.0754440225347,145.68628466349767,202.03917459864533,201.5125115405038
0.7007007007007008,16.567037146601994,22.0010737855716,149.605596463818,150.63711867931357,145.1324672773559,145.48640531757889,202.22435958080013,201.8052735924305
0.7340674007340674,16.556492627320328,21.96351105751613,149.8452729935976,150.89464613809776,145.1207757186206,145.2700594140739,202.49642466896697,202.09994924847825
0.7674341007674341,16.545958110544532,21.974796727586927,150.10029913569085,151.23412918562275,145.06111495523135,145.01439767602548,202.83675363313145,202.3914429615223
0.8008008008008008,16.509861987418777,21.92337132736853,150.32439682822093,151.46831855801693,144.7970904715898,144.7539538388404,203.39931709866136,202.6648448755148
0.8341675008341676,16.507933105827092,21.80757653124103,150.50965642356766,151.56434907315042,144.48479116153743,144.50124301508376,203.86425730568732,202.89951720382209
0.8675342008675342,16.569254017074286,21.641976242952325,150.8170611281675,151.60324382287374,144.1360966983021,144.26611330233374,204.2742967578303,203.11499416975911
0.9009009009009008,16.667828099140696,21.43942476544013,151.21461772986012,151.56299053909254,143.73854550353923,143.99423864628272,204.6444096112432,203.35654026176587
0.9342676009342676,16.7369311405562,21.1663572141334,151.68867264729238,151.51179490914893,143.39354223922243,143.75637755592658,204.8944282164568,203.57240314534192
0.9676343009676344,16.7629897377314,20.899006605976176,152.21677533991016,151.53597203799487,143.14444091420563,143.60257536856662,205.1082772160776,203.8004181403928
1.001001001001001,16.734549891646218,20.52328903587899,152.72677136840375,151.45884431070598,142.90432855218182,143.52245845818598,205.32371344682383,203.9837310548712
1.0343677010343677,16.683561716646633,20.019301234032408,153.28976757586125,151.28325813070455,142.74574807850107,143.48622264467463,205.3751031900168,204.2797293479461
1.0677344010677343,16.601627363532007,19.351787005795384,153.90089204595876,150.9653727368578,142.68021544009176,143.53530652344273,205.2662643880575,204.51155257188665
1.1011011011011012,16.56101296891967,18.63432587451638,154.71285578818097,150.67475199179287,142.729338675226,143.69273662155345,204.97970518248965,204.56315634519723
1.1344678011344678,16.537337530642144,17.751532243035406,155.66670084193535,150.27092168566705,142.8497692451141,143.92446329627663,204.59556823979403,204.49244012009285
1.1678345011678346,16.578165504637795,16.742992713107416,156.67389398505446,149.86697011935527,143.04232432262754,144.1962890421818,204.13126142567327,204.3626654571578
1.2012012012012012,16.61193366207168,15.719540636650898,157.79186166594675,149.46220029554013,143.2349850921459,144.49380447616394,203.7365743239025,204.1906623235459
1.234567901234568,16.693531802802827,14.610662034304738,158.98163630113044,149.04140916753536,143.44778964276156,144.82154897719758,203.3168927766397,203.9542126490323
1.267934601267935,16.760023141724744,13.501695772302796,160.2664448802837,148.54373789782684,143.65206908324268,145.17091214407796,202.93429664678243,203.6791798021751
1.3013013013013013,16.824701899332236,12.42491541950961,161.67293355372263,147.92346023318854,143.88359032831036,145.52513853911404,202.5460330831681,203.3702820471359
1.334668001334668,16.83020968334098,11.391785775181292,163.12006425369768,147.21281871344988,144.11394132975693,145.91348862286694,202.1771904346633,203.02280249953435
1.3680347013680347,16.729336622219247,10.293969457578624,164.52520228304044,146.5122519880043,144.42498408062127,146.3696540942965,201.7823707467228,202.61692180230665
1.4014014014014016,16.508006283206182,9.241383478505686,165.72859310690177,145.73755516276685,144.71358030473976,146.88283343631895,201.43605264877712,202.1898846076872
1.4347681014347682,16.178809295295284,8.246746152681176,166.27063960545905,144.88456553458582,145.02293868914023,147.42045907234046,201.14204796171148,201.77242275717816
1.4681348014681348,15.770020889807354,7.385700428348664,166.78700314564236,144.06050264813615,145.27771711315768,147.93543682456834,200.89883668812328,201.37658180181765
1.5015015015015016,15.362313495739263,6.628189264719738,167.23934791368745,143.17610788286703,145.51391157403324,148.42566056609857,200.6361237424237,200.98885605838663
1.5348682015348682,14.939600342965177,6.033647386772605,168.02665179374688,142.32119492429362,145.65385138737415,148.8640326589611,200.3935267276548,200.6482004238001
1.5682349015682349,14.487278039985124,5.445096240037064,168.67804797472846,141.5123778113537,145.78763050484503,149.2657198557789,200.13622521945896,200.3782241260232
1.6016016016016017,13.943189744138715,4.939587605484567,169.4527878795962,140.617885352892,145.78428261480866,149.63818640073822,200.05314165383388,200.1408709759649
1.6349683016349683,13.3678990941597,4.409519525778224,170.31464662802176,139.86996860249488,145.55606245085573,149.962312218514,200.1545822496548,199.9407434552256
1.6683350016683351,12.688804249014357,4.121663973966192,171.4106705959059,139.20100780093378,145.15981549650613,150.24678676446206,200.35469089281384,199.75869458981023
1.7017017017017018,11.91742048105584,4.008768472866985,172.51914237132056,138.59896235576494,144.57451069074625,150.49121308365594,200.6806297835284,199.5877956530212
1.7350684017350684,11.119656864318753,3.983126627709271,173.7032898758984,137.86816035470704,143.79269061160062,150.71015731877335,201.1616479339173,199.4126941290525
1.7684351017684352,10.23370170004502,3.983126627709271,174.56172618032272,137.17539097584344,142.82482251613197,150.87866179658857,201.80755992726108,199.2520726956701
1.8018018018018016,9.333589822039498,3.983126627709271,175.54693406474237,136.61414535606426,141.67759666761748,150.99080793798603,202.6346577901201,199.09674543743543
1.8351685018351689,8.431241161831307,3.983126627709271,176.0007271840239,135.9567273020526,140.30154057485976,151.04974377949785,203.60137133621083,198.9293269790269
1.8685352018685355,7.669663411427208,3.983126627709271,176.4978603858186,135.17214620998828,138.7585541426755,151.07597458105258,204.6534316030516,198.7617997402589
1.901901901901902,6.9339267974322585,3.983126627709271,177.16696480031013,134.202850319737,137.25041591885355,151.06455031421785,205.78176232336511,198.59155718977243
1.9352686019352687,6.298882851221287,3.983126627709271,178.1183868944854,133.12766981857246,135.69507148488827,151.0524886302725,206.9353107981265,198.42199471750445
1.968635301968636,5.736512699678059,3.983126627709271,181.91902808632065,132.04913482213934,134.29446023136447,151.03798470611935,207.8302376972973,198.2530869729728
2.002002002002002,5.306092576687214,3.983126627709271,182.6669063390236,131.0320095931677,132.94516163683838,151.00479944557662,208.73990383591243,198.13122102798465
2.035368702035369,4.92660979830446,3.983126627709271,186.0923918797018,129.78030861373526,131.62222419605746,150.9747364458139,209.632783598045,198.05472843655005
2.0687354020687354,4.6763103423840295,3.983126627709271,188.89382025748068,128.6771580181207,130.43989216944075,151.0245516102344,210.4373115388761,197.947815352508
2.1021021021021022,4.530137689461943,3.983126627709271,191.0188828678052,126.45554044788231,129.35357615862694,151.14244449567985,211.20067320296425,197.83920154260267
2.135468802135469,4.530137689461943,3.983126627709271,192.50476934046256,125.02284608969968,128.34740318973024,151.253937656612,211.82582944150428,197.6776400401895
2.1688355021688355,4.530137689461943,3.983126627709271,193.82642955400297,124.43275579175564,127.52594745584896,151.3462143098381,212.22870259309423,197.5091101434931
2.2022022022022023,4.530137689461943,3.983126627709271,194.66407316712187,124.48314763272484,126.82624427706264,151.4589484719742,212.54856197484656,197.1293607893085
2.235568902235569,4.530137689461943,3.983126627709271,195.1098976759813,125.64010046219184,126.23666826585423,151.5955753916038,212.7878981039108,196.65843780171377
2.2689356022689355,4.530137689461943,3.983126627709271,195.0162283692956,127.12986303744218,125.73162287926746,151.68256192668338,213.01065568542805,196.22909870244663
2.3023023023023024,4.530137689461943,3.983126627709271,194.37200621515592,128.5214243631699,125.34826940179542,151.71620354705496,213.1830487395439,195.83112604623284
2.335669002335669,4.530137689461943,3.983126627709271,193.19962733860336,129.9137722607634,125.0538742761088,151.71966830302736,213.3090419518828,195.4227446689016
2.369035702369036,4.530137689461943,3.983126627709271,191.6632253601389,131.4698707451416,124.89290328648836,151.69034923063214,213.34203809445177,195.0145970992574
2.4024024024024024,4.530137689461943,3.983126627709271,189.63818098707293,133.07294519366062,124.83489928788224,151.64763485336258,213.3601406508976,194.63458963435903
2.4357691024357693,4.530137689461943,3.983126627709271,187.0756249335758,134.84605023312727,124.8651257475613,151.59320100425953,213.26449021493184,194.26939511503832
2.469135802469136,4.530137689461943,3.983126627709271,184.19021593694427,136.61301417684615,125.0128268050486,151.54876939310984,213.13985201083668,193.92241713940567
2.5025025025025025,4.530137689461943,3.983126627709271,180.96375949217256,138.3843971219705,125.31434161940828,151.5048090246896,212.9499789623551,193.59589268681944
2.5358692025358693,4.530137689461943,3.983126627709271,177.3958904420191,139.7760072424966,125.66375099901435,151.41667697476788,212.7596671193753,193.330089211332
2.569235902569236,4.530137689461943,3.983126627709271,173.27385605250367,141.2098681567477,126.09134586359464,151.30139337300687,212.519704198154,193.1150633087246
2.6026026026026026,4.530137689461943,3.983126627709271,169.38387195613612,142.2617997448615,126.55515140228744,151.17177085069628,212.240260002874,192.93127134087703
2.6359693026359694,4.530137689461943,3.983126627709271,165.61931690500066,145.73730124391398,127.10141218579574,151.03278197507942,211.90618276168613,192.76200412414045
2.669336002669336,4.530137689461943,3.983126627709271,161.9585870518263,148.29420909538072,127.65645025358896,150.8882916597563,211.6103158483945,192.62914352158504
2.702702702702702,4.530137689461943,3.983126627709271,158.0381979282856,148.53773796574043,128.26122719720502,150.7397785827446,211.31396483218964,192.48704682709496
2.736069402736069,4.530137689461943,3.983126627709271,154.4287995955617,147.19373751644568,128.76267545566094,150.57387544592,211.1177493525738,192.3312667271689
2.7694361027694363,4.530137689461943,3.983126627709271,150.41407469283112,145.33326113182753,129.12579506522388,150.4439504784057,211.0048401944732,192.1314591101992
2.802802802802803,4.530137689461943,3.983126627709271,146.6296506406018,142.92167079962374,129.46001178840413,150.32108503492057,210.93292259538973,191.9362262081472
2.836169502836169,4.530137689461943,3.983126627709271,143.54581537766356,140.31184885937012,129.6654133069608,150.2120431533667,210.9367713627077,191.7868497755984
2.8695362028695364,4.530137689461943,3.983126627709271,140.8944817495168,137.2080875191132,129.86807447335025,150.04869453539322,210.9881746733532,191.7307787621932
2.902902902902903,4.530137689461943,3.983126627709271,136.5724588555416,131.2778769475788,130.05730735749916,149.88576311064332,211.1631719281989,191.74121340613704
2.9362696029362696,4.530137689461943,3.983126627709271,133.85069344311486,125.7158365532448,130.24702804101923,149.68862027476666,211.3867604047616,191.8181217305448
2.9696363029696364,4.530137689461943,3.983126627709271,133.01236427446895,121.99582498366377,130.49645051633877,149.41974270603697,211.79302550979003,191.914804306726
3.003003003003004,4.530137689461943,3.983126627709271,133.5152790648518,117.78344397086002,130.87220023481098,149.100695514982,212.2021581738485,192.0791930057662
3.0363697030363697,4.530137689461943,3.983126627709271,131.00896361749656,113.27343078568548,131.1021334219446,148.7392465672706,212.63927396311053,192.2467165421768
3.0697364030697365,4.530137689461943,3.983126627709271,129.88584501273323,108.07089529859154,131.20999865082712,148.31018087171165,213.07533424429272,192.510532730428
3.103103103103104,4.530137689461943,3.983126627709271,131.8354474264106,101.9186117501428,131.26761019105615,147.8595809713957,213.406180985866,192.94272257045307
3.1364698031364697,4.530137689461943,3.983126627709271,132.2356164112706,95.87559441721815,131.24995847624183,147.4232664607664,213.66723045616385,193.49845203778685
3.169836503169837,4.530137689461943,3.983126627709271,136.10686540107554,89.48003789190734,131.40545251502868,147.0431770149712,213.9195435779069,194.1360489370538
3.2032032032032034,4.530137689461943,3.983126627709271,137.8396300968678,84.04729055314361,131.64889695128036,146.73500439537847,214.03015823295613,194.80053419731595
3.2365699032365702,4.530137689461943,3.983126627709271,140.17557718128077,79.31551204101402,131.96366219044705,146.54512329743855,214.0238985987214,195.52649442293767
3.2699366032699366,4.530137689461943,3.983126627709271,142.7985715720489,76.95474099287482,132.33649663929074,146.4106585908206,213.88342712991548,196.27411849093968
3.3033033033033035,4.530137689461943,3.983126627709271,145.75083135371597,75.0628729156634,132.6618714396255,146.32527091717515,213.5618364944584,197.03267579082225
3.3366700033366703,4.530137689461943,3.983126627709271,148.6061134618336,73.90571373895703,132.97701712160736,146.29481978293336,213.09316508219024,197.7891760120085
3.3700367033700367,4.530137689461943,3.983126627709271,151.8724288724975,73.92476539119839,133.37095902561592,146.38167884555077,212.4912360521391,198.58525958803352
3.4034034034034035,4.530137689461943,3.983126627709271,155.2136260246956,73.91150395585889,133.75671390693716,146.4172984790916,211.79168696081865,199.3578315036426
3.4367701034367704,4.530137689461943,3.983126627709271,158.69042561396716,74.4729326228576,133.69831259810246,146.31533083098344,211.61683435057537,200.31896117809623
3.4701368034701368,4.530137689461943,3.983126627709271,162.33587214670703,75.87643346292006,133.76728752589352,146.2061032150652,211.2954926750328,201.21306264841903
3.503503503503504,4.530137689461943,3.983126627709271,167.4204839757857,77.77503911250972,134.07033958357047,145.9552113251364,210.70843704204376,202.10169661150383
3.5368702035368704,4.530137689461943,3.983126627709271,171.88532490826108,80.01005715155071,134.519630563453,145.74576992920495,209.8015575439467,202.88478668846787
3.5702369035702373,4.530137689461943,3.983126627709271,175.532095365484,82.95773807864634,135.1174518076923,145.7604141722663,208.7394780199342,203.5136758719824
3.603603603603604,4.530137689461943,3.983126627709271,178.66801868979096,85.99280177734126,135.83943094500358,145.77707423385513,207.63636454796395,204.02354744423104
3.6369703036369705,4.530137689461943,3.983126627709271,180.9264435522348,90.57041240231912,136.59811932217565,146.02939394590896,206.5779586904194,204.4009988565402
3.670337003670337,4.530137689461943,3.983126627709271,182.46128933789967,95.07121006918152,137.3580667910711,146.2808153963718,205.5260065254425,204.67715432372543
3.703703703703704,4.530137689461943,3.983126627709271,182.3544598784426,98.41927496263143,137.89595625023182,146.17204087828324,204.5545064235576,204.8856989368325
3.737070403737071,4.530137689461943,3.983126627709271,182.8175242386873,102.07457209358935,138.50136481301004,146.042242145536,203.5580300738434,205.0385547475207
3.770437103770437,4.530137689461943,4.037285534964278,184.9720634340761,107.6963444429686,139.2567592510583,146.38749642396192,202.5083075284936,204.9591196847805
3.803803803803804,4.530137689461943,4.296140272110279,186.6024123000444,110.6211029569509,140.04447195938772,146.79481331488213,201.41251167436585,204.75370514587007
3.8371705038371706,4.530137689461943,5.015370436215729,187.4491744836702,112.0279784251144,140.8390634829934,147.57303299165437,200.22628806026887,204.56095478673487
3.8705372038705375,4.530137689461943,6.017675200377536,187.59837679252703,113.14582669848176,141.55039561550842,148.16060869123046,199.0842177199441,204.33878074967905
3.903903903903904,4.530137689461943,7.263059091729283,186.519613389826,114.10257884251055,142.21394606723865,148.61971196723314,197.88364434194483,203.99118979712733
3.937270603937271,4.530137689461943,8.639600790163525,185.31960861058144,114.36098067504004,142.82850737176233,148.80243848334916,196.84991694964108,203.6739534608815
