Time,Left Shoulder Angle,Right Shoulder Angle,Left Elbow Angle,Right Elbow Angle,Left Hip Angle,Right Hip Angle,Left Knee Angle,Right Knee Angle
0.0,22.184291634479088,26.75802418871396,153.22861560861034,158.74272290484703,134.9618839314441,132.74686694886506,199.5008215984865,208.9667731305744
0.0333667000333667,21.00629226575284,26.36940800564079,151.52459970992246,158.83306112965397,135.4778321067471,133.06398045490948,199.9224870931613,208.92664791954195
0.0667334000667334,19.99164378453511,26.032854097072622,150.0689772876851,158.9248433935883,135.90868512276197,133.3409007670062,200.3266155099284,208.88357766749132
0.1001001001001001,19.131243086356264,25.74538692009858,148.84737112016165,159.01686656911195,136.25942886928866,133.57948216222562,200.71315758491903,208.837989079696
0.1334668001334668,18.41598706674663,25.504030931807765,147.8454039856155,159.10792752868687,136.535049236127,133.78157891763817,201.08206405426483,208.7903088614289
0.1668335001668335,17.836772621236555,25.3058105892893,147.04869866231,159.196823144775,136.7405321130769,133.94904531031435,201.4332856540973,208.74096371796333
0.2002002002002002,17.384496645356382,25.147750349632297,146.44287792850852,159.28235028983826,136.88086338993827,134.08373561732452,201.76677312054773,208.69038035457265
0.2335669002335669,17.050056034636448,25.02687466992588,146.01356456247453,159.36330583633855,136.96102895651097,134.18750411573913,202.0824771897478,208.63898547652988
0.2669336002669336,16.824347684607094,24.94020800725914,145.74638134247132,159.4384866567379,136.9860147025949,134.26220508262867,202.38034859782888,208.5872057891083
0.3003003003003003,16.698268490798664,24.88477481872121,145.62695104676234,159.50668962349812,136.96080651798994,134.30969279506354,202.6603380809224,208.53546799758115
0.333667000333667,16.6627153487415,24.85759956140121,145.64089645361096,159.5667116090812,136.89039029249594,134.33182153011415,202.92239637515988,208.4841988072216
0.3670337003670337,16.708585153965945,24.85570669238825,145.77384034128056,159.6173494859491,136.77975191591284,134.330445564851,203.1664742166728,208.4338249233029
0.4004004004004004,16.826774802002337,24.876120668771435,146.0114054880345,159.65740012656372,136.6338772780405,134.3074191763445,203.39252234159247,208.38477305109825
0.4337671004337671,17.008181188381016,24.91586594763989,146.3392146721362,159.68566040338698,136.4577522686788,134.26459664166504,203.6004914860507,208.3374698958808
0.4671338004671338,17.24370120863233,24.97196698608273,146.74289067184904,159.70092718888085,136.25636277762766,134.20383223788312,203.79033238617865,208.29234216292383
0.5005005005005005,17.524231758286614,25.041448241189062,147.20805626543637,159.70199735550722,136.03469469468692,134.12698024206912,203.9619957781079,208.2498165575005
0.5338672005338673,17.84066973287421,25.12133417004801,147.72033423116164,159.68766777572807,135.79773390965647,134.03589493129354,204.11543239796995,208.2103197848841
0.5672339005672339,18.18391202792562,25.20864922974889,148.2653473472894,159.6567353220066,135.5504663123374,133.93243058262786,204.2505929818978,208.1742785503496
0.6006006006006006,18.50634327934065,25.38453029731681,148.78555784330246,159.75369983251682,135.319922297637,133.8336377027248,204.3630361007233,208.10817609965068
0.6339673006339673,18.88690229589774,25.48957636424036,149.4207490185391,159.74402309544791,135.0833434379957,133.72531930827682,204.4501295624524,208.0827814680888
0.6673340006673341,19.141872251126976,25.526505376678635,149.79051648376895,159.61559705214586,134.87265213398535,133.61256218906948,204.48745878915412,208.06276352501936
0.7007007007007008,19.296254319607623,25.51409708938856,149.92281295293137,159.39096348681588,134.6758084800084,133.48373634745906,204.4932846947444,208.0618379322779
0.7340674007340674,19.44222560610488,25.4713915799339,150.0202397903128,159.09877308388025,134.533080614602,133.36054891984384,204.4707228581442,208.06275587827253
0.7674341007674341,19.549144949661628,25.405889707546628,150.07106936985215,158.7542557360644,134.4304953048537,133.2414039407032,204.43352090653585,208.0670058777184
0.8008008008008008,19.6900027723322,25.358985957085125,150.2027938801607,158.41308745565456,134.34245890281758,133.12717291145157,204.41296540381703,208.0725336541668
0.8341675008341676,19.85739504694447,25.3503347176843,150.3829615879442,158.12478444911054,134.2485686057082,133.00830355496737,204.4095741861753,208.0851940325632
0.8675342008675342,20.054119718128018,25.371479139863293,150.60112771778978,157.8660720624683,134.172584533127,132.846739102057,204.42921141987665,208.10174961900177
0.9009009009009008,20.26923177241361,25.403290126521664,150.84663452786825,157.63014526450115,134.1010062921976,132.6837594844615,204.45142388072296,208.1285844255914
0.9342676009342676,20.40224830307249,25.4292071341201,150.927685927744,157.38756084009805,134.02421895144923,132.51538881667136,204.48286166388385,208.16897815396155
0.9676343009676344,20.508959961580512,25.451756573227907,150.9902405679521,157.1614730253763,133.9573138517495,132.36527744982612,204.5045975737222,208.2174222720219
1.001001001001001,20.645689576837096,25.492062483245228,151.16478004546877,156.95328354268645,133.9116378077334,132.2238052809313,204.5204027041029,208.27348718217627
1.0343677010343677,20.813425001465863,25.54778366213756,151.41538544927582,156.75208279131306,133.8523160608859,132.1003153724447,204.5490523604314,208.3420619371533
1.0677344010677343,20.954099748554366,25.555942809099324,151.65377596011373,156.45909830111253,133.793603294345,131.9614964506715,204.59036190519672,208.4238719817229
1.1011011011011012,21.08885101246177,25.5592376544884,151.91999830044253,156.17304697310456,133.73491969943265,131.84776845369214,204.64135332373056,208.5145337557076
1.1344678011344678,21.215598095753165,25.60260874292283,152.1813971192534,155.97627188072784,133.66519780986857,131.76891459216486,204.7070756137172,208.61148765528063
1.1678345011678346,21.350684893189616,25.654159773661,152.4631690540139,155.8197632366983,133.5934563916653,131.7343034844623,204.78191296560792,208.7062295698049
1.2012012012012012,21.49656011777472,25.71952432472444,152.77145942778708,155.69641210589606,133.5083528516879,131.6884141716858,204.8786184370533,208.8067458484263
1.234567901234568,21.65778395788075,25.77979281841721,153.1789146207753,155.59744964359365,133.42153069931172,131.6786027710177,204.9675874386214,208.909336747106
1.267934601267935,21.93649828080793,25.81676631544749,153.80724714317745,155.4942460414951,133.29549704553312,131.67268024660487,205.10335002815867,209.0048221194223
1.3013013013013013,22.279183698553265,25.877023359577745,154.56110542596997,155.447926193021,133.1826704226726,131.7204189561936,205.22005273830223,209.0961031249433
1.334668001334668,22.62360176852744,25.93418309059773,155.35143941142988,155.3606254936319,133.11021557840328,131.79313677837212,205.2976613550611,209.1892042194233
1.3680347013680347,22.95535460897118,26.01006263825252,156.1446155357763,155.31504588003048,133.06287350620758,131.92680510286084,205.33835247401333,209.28154903635505
1.4014014014014016,23.255917213668884,26.17174285569972,156.89657359117734,155.3737311220606,133.0357653060792,132.08986308891778,205.364265145585,209.3889217324956
1.4347681014347682,23.541099772435448,26.36468256543764,157.63747351820976,155.53767815303294,133.0215705251772,132.3041228112098,205.35356944633932,209.4928722013448
1.4681348014681348,23.814577151242272,26.647002931236344,158.4685379377936,155.8695422909754,133.0489070518063,132.5494518360143,205.28415385144268,209.60550829654463
1.5015015015015016,24.07607324886763,26.913224773840497,159.2893531092396,156.26092910247974,133.100875638044,132.85904839200518,205.1902497778356,209.691387676812
1.5348682015348682,24.330412023305023,27.149424633150268,160.0827658332605,156.59023442128498,133.2093491831753,133.2076205872917,205.0311968120913,209.71343379641505
1.5682349015682349,24.580401956565005,27.29388580327313,160.83733554129506,156.84872679713652,133.3221543437957,133.6344393303444,204.86662857631583,209.6794149901617
1.6016016016016017,24.833167868812005,27.47109618350392,161.20091321471742,157.37184112957814,133.3912402745347,134.12576651986495,204.69318520756423,209.59501959136247
1.6349683016349683,25.045041937561,27.573170305804243,161.43286258635752,157.8880995781249,133.45221124727723,134.68568790839035,204.52436830505,209.46790200071624
1.6683350016683351,25.27688608391632,27.658847557939342,161.88867686811304,158.31972169391454,133.43553606053086,135.29298738048834,204.4467762864947,209.30366057894773
1.7017017017017018,25.46906518471618,27.661635259964545,162.4231506591304,158.67194961385968,133.4184730243738,135.95848761520688,204.4057998247841,209.0932695373539
1.7350684017350684,25.62204945825664,27.57648985789545,162.75831452256946,158.94426308611455,133.43967092655893,136.67144308421757,204.3832539798629,208.84202819026848
1.7684351017684352,25.669544723906167,27.34380436747121,162.95705826899558,159.04649226903,133.48126579917903,137.42891451001293,204.3818691076068,208.55185323516844
1.8018018018018016,25.66465173926576,27.18695659627805,163.46517952031127,159.3713132690313,133.60728548290382,138.22711336473176,204.34196550656267,208.21976005061208
1.8351685018351689,25.67825869840497,26.932010084888176,164.2573048863462,159.54686544691748,133.7396603272034,139.0561861018124,204.3443783724736,207.86037611314933
1.8685352018685355,25.88430453002536,26.52236392240472,164.81931943668474,159.74552392401142,133.86788877707414,139.89817360272878,204.3862482272879,207.4808783049151
1.901901901901902,26.053483826769646,25.943633114962207,165.41238651194092,159.66756880168057,133.93696485361585,140.73201206457415,204.50404324245383,207.08938091614172
1.9352686019352687,26.01039730685183,25.18463294756808,164.70296105566152,159.96017843665024,133.91486438467783,141.54539286577844,204.6943536084817,206.7003687860624
1.968635301968636,25.78323335518045,24.30477151589896,163.4582737332096,159.8530995492456,133.82068624235538,142.32659000939995,204.95062663640505,206.30236587084545
2.002002002002002,25.506959642087025,23.26349105687861,168.63980840799016,160.1718847596173,133.6490115272463,143.0593848116481,205.29529080853064,205.90031293705124
2.035368702035369,25.1595644315949,22.1323197114503,174.10512727445172,160.0581503920422,133.41678881368273,143.7915684564603,205.67988857638383,205.50491169488905
2.0687354020687354,24.54911052169829,20.9561921699502,177.51638898817038,158.83518385601397,133.15530303086635,144.48761996435886,206.08710010559585,205.1184410751905
2.1021021021021022,23.83580578658682,19.77261076323861,178.64691358010714,156.9761740071618,132.8676719190483,145.13437480883698,206.5308869990336,204.7434038020461
2.135468802135469,23.013548953394725,18.605308991017008,178.40054553948838,154.57408367735252,132.52696960698495,145.70948304344978,207.03751677738143,204.3874288309143
2.1688355021688355,22.06530537201811,17.417765808041075,176.76322802251553,151.6411496885694,132.13569421687242,146.22031522597825,207.59261224061603,204.04768972040932
2.2022022022022023,20.79414935331772,16.331430810727973,172.31052193132115,148.15578863290958,131.7079010854377,146.66293101393117,208.1952656652957,203.732784917686
2.235568902235569,19.60433698587481,15.142554656307896,167.6921272333586,144.46699129407963,131.2418764284408,147.06781574965072,208.8361246874161,203.44260104618456
2.2689356022689355,17.840173138889895,13.281846446409691,161.6346048337652,141.03894747090763,130.7143175269149,147.4138956307672,209.5053810134216,203.1849586261024
2.3023023023023024,16.36451497176856,11.563701102733168,155.73600276370607,137.41134711283988,130.16450669105902,147.68489996241397,210.1943554399132,202.9497790002049
2.335669002335669,15.607832206600383,10.206658548288845,153.39462469801722,133.22717302075557,129.62098422136182,147.8527493662706,210.86678362181289,202.7398312308893
2.369035702369036,14.691807775120138,9.317749608069146,147.19938975033668,128.38179042634752,129.11180166387217,147.9894953502011,211.5118254614706,202.54732624167968
2.4024024024024024,13.797782687388642,8.32964755911208,140.88082437327546,123.28197816002042,128.62762803975494,148.0606783205397,212.14277818458163,202.3771184026224
2.4357691024357693,12.920453216991392,7.679497111045412,133.70015431769676,117.67590200481813,128.23108590254486,148.11813008918332,212.69353893433865,202.24053677162564
2.469135802469136,11.103929603749158,7.280785301755657,126.92417242391318,111.61477917184018,127.88835000424244,148.09790724016142,213.203441095141,202.16263120638595
2.5025025025025025,9.368683114363312,7.268309035215902,120.18074666317077,105.57341306923372,127.58191776918666,148.0581355076269,213.68797540493784,202.10792752074832
2.5358692025358693,-0.9125750744836164,7.54922862556108,114.05543535791216,99.57470318761509,127.36593007057591,147.9844724073034,214.14790778072216,202.0727517656392
2.569235902569236,-7.829846295854976,8.13168956888134,108.60232614780406,93.653663198504,127.22597312718594,147.90311330738078,214.55313385343663,202.02424833943303
2.6026026026026026,-2.508302464628024,8.977085425894913,104.17780475725996,87.73246045910673,127.11695918914748,147.79886172695706,214.9018016705244,201.95478705633627
2.6359693026359694,2.9556029167897075,10.03762084187932,100.21133960759138,81.93487337430253,127.03622037946695,147.71213503122289,215.23601850928432,201.8256163833425
2.669336002669336,2.9556029167897075,11.291254767727406,96.02430466309828,76.33714265602885,127.0283496668574,147.62650972259962,215.54194224462225,201.68130694691328
2.702702702702702,2.9556029167897075,12.790517665425144,92.40533460878686,71.19701795147117,127.01537051145088,147.57961302791702,215.8903926843815,201.5376283967981
2.736069402736069,2.9556029167897075,14.480230109579978,89.48616394174928,66.50322834533891,127.018498082514,147.54803405844905,216.2018677786456,201.40778813311653
2.7694361027694363,2.9556029167897075,16.283805180711763,87.78517451365265,61.98703652698679,127.08392929650172,147.54013717416285,216.5097832423402,201.2778069818318
2.802802802802803,-0.0739579256182312,18.17726947766721,86.83264053698987,57.85791505092568,127.1674779898686,147.51841385854453,216.83830228646835,201.1727177006368
2.836169502836169,-0.2531698306323227,20.190951337546387,86.68494622813935,54.31641897144552,127.3628013029346,147.52043718598156,217.0935253437496,201.0551412493918
2.8695362028695364,2.280896530164858,22.32630919978848,87.25601935177227,51.34595717805392,127.63312331015874,147.55706576358617,217.28548771591807,200.91335617922417
2.902902902902903,2.280896530164858,24.58044874204412,89.06329005954107,49.05027122968231,127.93853968291168,147.61947947821892,217.4271543813851,200.748761825914
2.9362696029362696,2.280896530164858,26.93724038015617,92.25150949878464,47.5260865407695,128.26411348015438,147.70482923412894,217.5215710897463,200.57919988636485
2.9696363029696364,2.280896530164858,29.18551382372312,96.1744835356823,46.40289872756326,128.53120982461408,147.80381168050695,217.6488978919721,200.40115210523413
3.003003003003004,2.280896530164858,31.45176843154041,100.8231869912803,46.01646612959859,128.7669535830231,147.92200255649743,217.78710483982417,200.2047257887856
3.0363697030363697,2.280896530164858,33.715528460912296,106.61758857885116,46.10765979442419,128.95620953355365,148.05490492587856,217.94261083194377,199.9831894839989
3.0697364030697365,2.280896530164858,35.97267674407164,113.37729874709468,46.908060904188986,129.11305072561018,148.19922888240063,218.1021293525698,199.72552242964443
3.103103103103104,2.280896530164858,38.22223555661343,122.74782369616752,47.58326236499529,129.25622399194057,148.3486227851147,218.2783844268757,199.42915162493625
3.1364698031364697,2.280896530164858,40.39671946529692,134.6178542481833,48.73604728907367,129.38284055907047,148.52935231735455,218.47093235945312,199.04862498204687
3.169836503169837,2.280896530164858,42.54132588333373,140.28025382636676,49.26344199073414,129.5017573543827,148.71409707678018,218.6514475887904,198.64515114245805
3.2032032032032034,2.280896530164858,44.713772956899405,143.44109045500204,49.78473592627122,129.60230152925772,148.906988598029,218.8355149809688,198.20739838843937
3.2365699032365702,2.280896530164858,46.73155361193913,145.82947289406664,50.89605636063348,129.649287424969,149.07607303192205,219.04233763533125,197.78311478707067
3.2699366032699366,2.280896530164858,48.77933643424043,148.1732491401592,52.45726635638492,129.64064754885766,149.26574855807434,219.26897167434728,197.2987403338265
3.3033033033033035,2.280896530164858,50.50980913088782,149.88058412717902,54.17766597468861,129.5898190896325,149.41140724405696,219.4835987478081,196.8663218885912
3.3366700033366703,2.280896530164858,51.82520853201357,150.94847290121697,55.72360092320623,129.5464102588017,149.589662306745,219.7214755357997,196.41089505232125
3.3700367033700367,2.280896530164858,52.41405962862922,153.41729025416024,57.40467415785133,129.4644827015251,149.7012409610592,219.9579228291186,196.04867851041385
3.4034034034034035,2.280896530164858,44.55429817016877,155.0437536276881,56.09577537922736,129.3255874767798,149.75186805646464,220.25730486405124,195.73562583733343
3.4367701034367704,2.280896530164858,39.94461124234001,157.6455611466778,54.82117179595409,129.1732425682962,149.70412099015113,220.53389072803844,195.5360038585748
3.4701368034701368,2.280896530164858,46.078956438964624,161.34392829741438,57.23213838776106,129.00036416155407,149.60913588743438,220.8237240115096,195.4410123099524
3.503503503503504,2.280896530164858,51.715259424307845,160.1254006615971,59.28788773125035,128.79874392065673,149.4383831780849,221.0583994106881,195.4860345133488
3.5368702035368704,2.280896530164858,56.70160766698614,162.17046100282408,62.15038403448556,128.49737767617472,149.16226856905746,221.3780247968669,195.6757663891268
3.5702369035702373,2.280896530164858,61.10661057860533,163.05103089421308,64.69578371791597,128.17499449939115,148.79401244199255,221.61717995539712,196.0143500841316
3.603603603603604,2.280896530164858,64.70575637933945,158.31096391588252,64.89692289963189,127.83059087437098,148.34654969960593,221.70825677852363,196.51411163449345
3.6369703036369705,2.280896530164858,67.44343255585169,154.33338499824004,65.3165265034237,127.50061301528224,147.85024435613863,221.6594086708286,197.11132894796583
3.670337003670337,2.280896530164858,69.4320443914636,154.09357474911442,64.8755383153368,127.1652528623711,147.31415794399746,221.54641324295176,197.86427424916727
3.703703703703704,2.280896530164858,70.79778162106261,153.61669228404517,64.9781481986907,126.82057078034312,146.7325903146184,221.2877481834614,198.71530459053707
3.737070403737071,2.280896530164858,71.29271500076518,153.54766173556814,65.04937056449506,126.40691474931684,146.24367225055963,221.12053189888843,199.65649312584543
3.770437103770437,2.280896530164858,71.15503819506162,152.814967265775,65.6105877848199,126.08356335941568,145.7263329718218,220.8158336913399,200.6801562695529
3.803803803803804,2.280896530164858,70.26179234656888,152.3292059608686,66.37276946877923,125.95439600066466,145.2145851459354,220.24673754646872,201.8706969405776
3.8371705038371706,2.280896530164858,68.92153390911993,152.57494906289108,67.62812542480917,125.91498312312127,144.5777038967114,219.4328266921593,203.124375422026
3.8705372038705375,2.280896530164858,66.66901561214526,152.22168519244494,68.56137343523899,125.84720265627764,143.83340504455052,218.4207752777233,204.439130944658
3.903903903903904,2.280896530164858,64.11357937655703,151.63329322284272,69.92850806195752,125.86887158919032,143.0251077455738,217.21675470607053,205.7021382807082
3.937270603937271,2.280896530164858,61.28178586363545,151.58697191079864,71.86923305256981,125.9780562472279,142.01915145964733,215.8812717649494,207.0213551901766
