Time,Left Shoulder Angle,Right Shoulder Angle,Left Elbow Angle,Right Elbow Angle,Left Hip Angle,Right Hip Angle,Left Knee Angle,Right Knee Angle
0.0,9.30284416608808,25.83260196038772,159.18401245433395,169.33652274377516,146.52457629792136,151.43001639708282,186.3734389237337,184.26007407423992
0.0333667000333667,8.953310799703988,26.115781895051715,159.17908000574482,169.66405359947498,147.21874047218495,151.87864425706366,186.1067695977164,184.45312926355012
0.0667334000667334,8.67759943378313,26.36341000148017,159.21769499955408,170.02171039916482,147.82000702578978,152.28912681729597,185.9133968546097,184.64334755967823
0.1001001001001001,8.472292572851456,26.576826745098032,159.2990128926131,170.40397180064014,148.33327656784178,152.66368402485497,185.78807358118152,184.8298753827636
0.1334668001334668,8.33397272143492,26.757372591330224,159.42218914177323,170.80531646169646,148.76344970744682,153.00453582681587,185.7255526641996,185.01185915294545
0.1668335001668335,8.259222384059475,26.90638800560169,159.58637920388583,171.22022304012938,149.11542705371087,153.31390217025378,185.7205869904316,185.1884452903635
0.2002002002002002,8.24462406525107,27.02521345333737,159.79073853580226,171.6431701937343,149.39410921573975,153.59400300224394,185.7679294466453,185.35878021515703
0.2335669002335669,8.28676026953566,27.115189399962205,160.03442259437392,172.0686365803069,149.60439680263949,153.84705826986152,185.8623329196086,185.52201034746548
0.2669336002669336,8.382213501439196,27.177656310901124,160.3165868364521,172.49110085764255,149.75119042351588,154.0752879201817,185.9985502960892,185.6772821074284
0.3003003003003003,8.527566265487632,27.21395465157908,160.63638671888822,172.9050416835369,149.83939068747492,154.28091190027968,186.17133446285493,185.82374191518505
0.333667000333667,8.719401066206917,27.225424887420985,160.9929776985336,173.30493771578531,149.87389820362247,154.46615015723063,186.3754383066735,185.96053619087493
0.3670337003670337,8.954300408123007,27.2134074838518,161.3855152322396,173.68526761218342,149.85961358106445,154.63322263810977,186.60561471431268,186.08681135463752
0.4004004004004004,9.228846795761852,27.17924290629645,161.81315477685763,174.04051003052675,149.80143742890678,154.78434928999224,186.8566165725403,186.2017138266122
0.4337671004337671,9.539622733649404,27.12427162017989,162.27505178923897,174.36514362861078,149.70427035625536,154.9217500599532,187.12319676812407,186.3043900269384
0.4671338004671338,9.883210726311615,27.04983409092704,162.77036172623505,174.65364706423108,149.5730129722161,155.04764489506795,187.40010818783185,186.3939863757556
0.5005005005005005,10.25619327827444,26.957270783962848,163.2982400446972,174.9004989951831,149.41256588589494,155.16425374241155,187.6821037184313,186.4696492932032
0.5338672005338673,10.65515289406383,26.847922164712248,163.8578422014768,175.1001780792624,149.22782970639776,155.27379654905926,187.96393624669028,186.5305251994206
0.5672339005672339,11.0766720782058,26.723128698600416,164.44832365342643,175.24716297426605,149.0237050428316,155.37849326208735,188.2403586593782,186.5757605145488
0.6006006006006006,11.525132342967032,26.54022838400133,165.09871822908497,175.25482908260616,148.8514751766262,155.56328124068594,188.43178725934555,186.50995591758425
0.6339673006339673,11.979574019496116,26.333068331402107,165.79582496644252,175.10227322788592,148.6912744575186,155.74549986485647,188.61164678736984,186.4711307160144
0.6673340006673341,12.463922614747696,26.1497201182626,166.53388061852937,174.87383085850547,148.49760108955823,155.89241332116436,188.77360307869324,186.4466770815296
0.7007007007007008,12.970917188325071,25.983827766440697,167.296886583676,174.5922049541692,148.27422718509473,156.0117690503443,188.9054250466736,186.4028797009376
0.7340674007340674,13.47080471780088,25.837018888554915,168.0637378056881,174.2579285224976,148.03824673487208,156.0900467074573,189.04060056040092,186.36828700979973
0.7674341007674341,13.935446359309342,25.68038521672476,168.8265528194554,173.8403347766457,147.82614465053885,156.1770282935798,189.1537302822512,186.300856028094
0.8008008008008008,14.37520163578273,25.52363618507669,169.59688409758212,173.37998788175497,147.65833245240975,156.2904334146068,189.2083571437218,186.1787505756228
0.8341675008341676,14.799946152645331,25.42534991863181,170.38634844112585,173.04109133143908,147.52302170911236,156.4271958965701,189.1926684061677,186.01855042529925
0.8675342008675342,15.197397854256012,25.344753595056734,171.18773905034544,172.7197734771623,147.48052278459656,156.59008662403937,189.05883606734903,185.93342598260497
0.9009009009009008,15.572253400934915,25.2506208289139,171.98923287788207,172.32060583211904,147.54156619773497,156.76783988372136,188.768615302132,185.84154538980468
0.9342676009342676,15.926397986356514,25.182014478186986,172.8113242532461,171.89673205383545,147.68162935261694,156.9500087153045,188.38960294134336,185.7375940608872
0.9676343009676344,16.267199458841507,25.104149121294537,173.61420754550258,171.3695017956465,147.8076155517272,157.15982089516092,188.0256073062409,185.58702918724427
1.001001001001001,16.570051675395842,24.9672820104722,174.3464722774944,170.680317320674,147.92939992537333,157.3929025448423,187.6756155101565,185.39654572709685
1.0343677010343677,16.813620927782118,24.755859591582592,175.00388075268347,169.84293959463977,148.04338319180675,157.65001202360634,187.34307539657172,185.17211166809216
1.0677344010677343,17.013958306189597,24.487354420657727,175.58919742463092,168.90552168861402,148.11125566989233,157.93436108943354,187.06093975726296,184.91380752550788
1.1011011011011012,17.141664173445804,24.16398690782399,176.07160492447798,167.83229318173,148.15556945252072,158.2118906554528,186.84228588037928,184.69974401235177
1.1344678011344678,17.232467035436446,23.835945209114342,176.4313887931757,166.87614731413174,148.1365844477214,158.4845483527343,186.71457438165203,184.5552206919948
1.1678345011678346,17.316300493892864,23.479482933016445,176.67639851538166,165.97321486672783,148.05038394488244,158.73540226273863,186.6694695209661,184.41540105616767
1.2012012012012012,17.3543803761465,23.08609231194121,176.84429189550062,165.1312292776093,147.95916945858988,158.9754493152418,186.6858260935308,184.3283808942072
1.234567901234568,17.35168202107309,22.60865745312177,176.9420539454323,164.2428742213352,147.8776711676935,159.2383878334841,186.75729153408545,184.2697102255252
1.267934601267935,17.377999181890395,22.07953670087971,177.14863939512364,163.42845661770153,147.79925680801196,159.54050248284656,186.881863221655,184.26353625521605
1.3013013013013013,17.31485173382942,21.50201366312541,177.26199800066908,162.6510491349486,147.7450788967025,159.8799320304199,187.04938615244123,184.308458013608
1.334668001334668,17.146483795297716,20.881082098712245,177.3161891150524,161.86469518614845,147.68963435262611,160.24234514805727,187.27566835629707,184.42040521594475
1.3680347013680347,16.904253387183708,20.22973867738177,177.39670006986114,160.9858002192806,147.59915814917468,160.59628921273196,187.58470543356515,184.60079268290573
1.4014014014014016,16.60362144515165,19.55719062688436,177.46660477816823,160.2380920255166,147.41783378492406,160.93648822994348,188.01116587233705,184.8245727419696
1.4347681014347682,16.26498427619147,18.830489560659103,177.56865621897285,159.5781103523059,147.17455101269834,161.2528068665055,188.5131520401195,185.0072850865033
1.4681348014681348,15.899882353093762,18.04171144923275,177.7478567694325,159.02613601842413,146.84792528629413,161.53381298056894,189.1108270579797,185.16350682399383
1.5015015015015016,15.606188347855564,17.206714803508834,178.2026468595066,158.3501813035347,146.46775428522892,161.80396410174166,189.77314208311148,185.30932571282816
1.5348682015348682,15.25993775917152,16.39205290035215,178.74833098464154,157.62154134892344,146.0171490464497,162.03094417531574,190.48693568854145,185.48501962305005
1.5682349015682349,14.780450535039996,15.593139167202992,179.29667400572865,157.06916556362117,145.47792193991614,162.20639246626493,191.25353406592163,185.70097253526464
1.6016016016016017,14.132486539560734,14.820984111050532,179.96924238715656,156.6365855949674,144.866925348675,162.31976757582294,192.05398239762192,185.93777141051447
1.6349683016349683,13.382482830830252,14.058023736248916,180.56085252747192,156.3040303684463,144.27707369154362,162.40238250235137,192.8271373094635,186.17775282477504
1.6683350016683351,12.480210961302324,13.347144875396245,181.2871325365635,155.96554105503458,143.69468536173528,162.46116488884022,193.5678862992724,186.4109346050973
1.7017017017017018,11.476258192003291,12.649376605458276,182.195767382455,155.75491422227947,143.17601174575287,162.4982523679151,194.20948090124185,186.6441832821467
1.7350684017350684,10.492171610897634,11.891686085417636,183.09091262652225,155.8165848323153,142.6811561615649,162.51059290252263,194.7855531328944,186.85333202695824
1.7684351017684352,9.58415082726114,11.16162626742966,183.48891315392532,155.91354880256216,142.15440028076088,162.4899787931014,195.3571289781944,187.0635219662063
1.8018018018018016,8.762271896596872,10.486844261646809,183.5665033069505,155.94395571266412,141.61879492780923,162.42137546161698,195.91698753021467,187.26937892535824
1.8351685018351689,8.001198305929865,9.871607223682512,183.09035585290107,156.00221253917096,141.1397713690389,162.32626820368893,196.41818159411343,187.44969270844163
1.8685352018685355,7.198858990607055,9.375710051110916,182.0617634647622,155.82206700338412,140.71501887643782,162.23533050762023,196.8976482570208,187.5827885853853
1.901901901901902,6.550792520140538,8.897580255524552,181.03918939496856,155.76937355722663,140.35880227673624,162.1546042067914,197.287297698346,187.66285934934643
1.9352686019352687,6.006653628725988,8.527419832200245,180.44738382656013,155.51416360651098,140.0764358042262,162.07620474688233,197.5735932159629,187.71417389664435
1.968635301968636,5.611868698427807,8.2412239570834,179.49825444639148,155.58406335351523,139.84898068520417,161.96964355555647,197.760420530486,187.778501825116
2.002002002002002,5.408218377904878,7.919444505497691,178.30032071544775,155.7572857740319,139.67266981764357,161.8278693901089,197.8742822037416,187.850427116304
2.035368702035369,5.408218377904878,7.584784163437955,177.23034266281283,158.82294748573423,139.52079727021092,161.65445508191343,197.95576792780503,187.83622853396167
2.0687354020687354,5.408218377904878,7.236995990498738,175.87797934109403,161.16475394180077,139.3472853308084,161.47878439565386,198.1140479809016,187.7815514815513
2.1021021021021022,5.408218377904878,6.895171074915764,174.5660496351409,162.47109561336185,139.12434575121156,161.31073570367087,198.36649265063443,187.7186136943919
2.135468802135469,5.408218377904878,6.501086035528331,173.2691420313712,163.04742809327274,138.91935389238384,161.1534543753395,198.64210064972605,187.64945783193525
2.1688355021688355,5.408218377904878,6.063304523290078,172.21275653976224,162.81459168662064,138.70365699732258,161.0132604088491,198.9587148214648,187.593201460818
2.2022022022022023,5.408218377904878,5.6596948493616015,171.27319837466732,161.86840515047288,138.47538668872224,160.87942654882715,199.31531576050145,187.5525454084764
2.235568902235569,5.408218377904878,5.2456078511821325,170.55982352048642,160.2963451607542,138.2690899692927,160.7555723981624,199.6931377286678,187.5198677983497
2.2689356022689355,5.408218377904878,4.961730123399873,170.16998582984033,158.10901738155138,138.0981640262804,160.66152162753687,200.0887004868068,187.48002171381367
2.3023023023023024,5.408218377904878,4.492318013958895,170.05233637927802,155.16885491896713,138.01252372608295,160.65267744949722,200.46723023386164,187.39742733686657
2.335669002335669,5.408218377904878,3.9814228201054327,172.64805999043668,151.70357840932206,138.05803249421282,160.73818885690656,200.7995930719204,187.32581880875068
2.369035702369036,5.408218377904878,3.9814228201054327,174.92453286741494,147.8199557906318,138.1694424320172,160.9013040551025,201.110504496674,187.2734277645416
2.4024024024024024,5.408218377904878,3.9814228201054327,176.80331633462646,143.50678744495823,138.33889549263395,161.10368152487573,201.40671549375864,187.2459132460744
2.4357691024357693,5.408218377904878,3.9814228201054327,178.34297078126366,138.8171620105853,138.54037004671363,161.32134290548368,201.69065103819747,187.22129155519613
2.469135802469136,5.408218377904878,3.9814228201054327,179.57271129174111,133.69567575025542,138.7593479658164,161.52703049563223,201.96752694702835,187.20958869125565
2.5025025025025025,5.408218377904878,3.9814228201054327,180.74690146276643,128.1938248568539,138.97600286726424,161.70198708579346,202.2551986864102,187.195945999951
2.5358692025358693,5.408218377904878,3.9814228201054327,181.5879892111965,122.60274592696956,139.1874369096642,161.85974010501536,202.54109398481148,187.17153645875163
2.569235902569236,5.408218377904878,3.9814228201054327,182.27729224083987,116.87082116600828,139.4040713797452,162.0070103585399,202.8263054729992,187.1352004527995
2.6026026026026026,5.408218377904878,3.9814228201054327,182.74788407987148,111.04120971460664,139.61859015835296,162.1296755676824,203.10732239331912,187.10144573447485
2.6359693026359694,5.408218377904878,3.9814228201054327,182.9977680956158,105.55596530914248,139.8460891902241,162.23690031364944,203.3406136238325,187.0755174637029
2.669336002669336,5.408218377904878,3.9814228201054327,182.953960884859,99.875261113053,140.05027282853365,162.29888161575207,203.52879612971176,187.08538141266155
2.702702702702702,5.408218377904878,3.9814228201054327,182.7468882993291,94.4673531550002,140.2504158288901,162.34418828940375,203.6757954313207,187.0992943274757
2.736069402736069,5.408218377904878,3.9814228201054327,182.33882648662257,89.33062959022534,140.46499860999188,162.36655652369132,203.76971167822947,187.12119875372105
2.7694361027694363,5.408218377904878,3.9814228201054327,181.60185029874293,83.47504009718999,140.68662470553903,162.36700644415524,203.8221413751438,187.1297299146705
2.802802802802803,5.408218377904878,3.9814228201054327,180.7094827198735,80.97876674639167,140.91603725462147,162.34137411228343,203.8488050931097,187.1469636627164
2.836169502836169,5.408218377904878,3.9814228201054327,179.3483059736886,78.1597505797244,141.14002583185643,162.3147504215631,203.84470632778545,187.1517378735191
2.8695362028695364,5.408218377904878,3.9814228201054327,177.30698847359236,74.83803468619107,141.30830031214177,162.25510510851635,203.86200152943923,187.14479029547
2.902902902902903,5.408218377904878,3.9814228201054327,174.6230243004151,69.50638684829227,141.44814379780792,162.16156330547494,203.9114145019366,187.15759115289669
2.9362696029362696,5.408218377904878,3.9814228201054327,171.8348726455204,64.58616641152206,141.59013945373425,162.044941227734,203.948193227028,187.1798899989688
2.9696363029696364,5.408218377904878,3.9814228201054327,168.7560998115217,60.96896728550144,141.73067128409,161.9269430721126,203.94107555869604,187.1665925521361
3.003003003003004,5.408218377904878,3.9814228201054327,165.86225850593632,57.06966493108924,141.838045959736,161.81897536713663,203.93740167194724,187.1216878906088
3.0363697030363697,5.408218377904878,3.9814228201054327,163.48295481108454,54.1396188690434,141.92985593900116,161.70707203632597,203.9071502457824,187.0753315973069
3.0697364030697365,5.408218377904878,3.9814228201054327,161.07814243401262,52.30531300947698,142.01511203118707,161.6026300720935,203.87153951324885,187.045001664512
3.103103103103104,5.408218377904878,3.9814228201054327,158.12329408494008,51.838923627944666,142.09525378708767,161.4925149856145,203.83077628523344,187.02035949695767
3.1364698031364697,5.408218377904878,3.9814228201054327,155.35613884395437,52.23871698014349,142.16630087191555,161.36323843665625,203.80072760603252,187.01504581230373
3.169836503169837,5.408218377904878,3.9814228201054327,152.83990613730893,53.65143138118265,142.22938420880047,161.21378992321576,203.78043497541967,187.0158606495852
3.2032032032032034,5.408218377904878,3.9814228201054327,150.39786902381388,52.26901582425504,142.29635449057565,161.0964214054331,203.76180815238416,187.01856599904008
3.2365699032365702,5.408218377904878,3.9814228201054327,148.5811344321254,50.93045373239666,142.35772389961255,160.99602144397568,203.7431697457497,187.01511049905835
3.2699366032699366,5.408218377904878,3.9814228201054327,147.22370493458408,49.98573903837463,142.408002047716,160.91117902688526,203.7298092874224,187.0172475899685
3.3033033033033035,5.408218377904878,3.9814228201054327,146.45345859272467,49.15293112056524,142.4620758572646,160.846374555361,203.70394905167336,187.02002688210789
3.3366700033366703,5.408218377904878,3.9814228201054327,146.1951063654486,48.54573048732944,142.5057017488924,160.8042659954407,203.68476403093612,187.0087118016692
3.3700367033700367,5.408218377904878,3.9814228201054327,146.57171790777892,48.12370888091121,142.53467233405522,160.79235640294868,203.6835328856503,186.96441625057344
3.4034034034034035,5.408218377904878,3.9814228201054327,147.59686955290215,47.83407412508933,142.568008458096,160.84179510160155,203.6899870662389,186.8607427651941
3.4367701034367704,5.408218377904878,3.9814228201054327,149.24039981619163,47.756680520633466,142.5806026811213,160.92714396403574,203.7071072485515,186.72525980748728
3.4701368034701368,5.408218377904878,3.9814228201054327,151.677199627085,48.02823362468043,142.58403904407905,161.0275511403983,203.74303370118545,186.5602304256802
3.503503503503504,5.408218377904878,3.9814228201054327,151.77815178552166,48.46116241342591,142.58059052447337,161.14789185508616,203.79672466366105,186.3558377104355
3.5368702035368704,5.408218377904878,3.9814228201054327,151.8340557601576,48.91207999520893,142.5862484325196,161.26971016443775,203.8622520704344,186.1623049661665
3.5702369035702373,5.408218377904878,3.9814228201054327,151.97595137478305,49.532929922157855,142.60402271204828,161.39783823873114,203.92712601109628,185.9787580242637
3.603603603603604,5.408218377904878,3.9814228201054327,151.96974218461065,50.275791671644384,142.64236175779436,161.55278856692993,203.99831152053991,185.7619137669861
3.6369703036369705,5.408218377904878,3.9814228201054327,152.08521120073445,51.5233675895031,142.68377067994527,161.7191371581795,204.08089668105487,185.5547170890161
3.670337003670337,5.408218377904878,3.9814228201054327,151.95495348273494,53.24033332684862,142.71900775928015,161.90849030304176,204.14552929266705,185.3399407302066
3.703703703703704,5.408218377904878,3.9814228201054327,151.98928155204885,55.21877248334342,142.7457141447413,162.07416530732985,204.21529489268428,185.1368757856245
3.737070403737071,5.408218377904878,3.9814228201054327,153.13009329166337,57.10438168180009,142.7974107960983,162.27084444891983,204.278675178318,184.8941895866875
3.770437103770437,5.408218377904878,3.9814228201054327,153.6892382408324,58.85553833327712,142.84500305823624,162.41077785190288,204.32716522916616,184.74100489602392
3.803803803803804,5.408218377904878,3.9814228201054327,154.5364107856565,59.4662816443034,142.8947338314716,162.52427994215464,204.35102441513047,184.6491418614218
3.8371705038371706,5.408218377904878,3.9814228201054327,154.4254201205992,56.27785474151326,142.95466788716357,162.59182112420805,204.3619408767213,184.67695686392568
3.8705372038705375,5.408218377904878,3.9814228201054327,153.99732478786143,58.48965982673512,143.00770871994473,162.63150653366557,204.36704971286048,184.7656247599055
3.903903903903904,5.408218377904878,3.9814228201054327,153.38282200955933,60.37926632785688,143.04922815168564,162.662442455888,204.33772934167283,184.94329924726424
3.937270603937271,5.408218377904878,3.9814228201054327,152.40795216110925,63.23561148090102,143.0934630636378,162.65148349161885,204.3044606757716,185.1715503224223
