Time,Left Shoulder Angle,Right Shoulder Angle,Left Elbow Angle,Right Elbow Angle,Left Hip Angle,Right Hip Angle,Left Knee Angle,Right Knee Angle
0.0,7.078839348299711,25.23242331117944,126.2708100693602,125.2829511837286,129.15975230852885,135.21168776578014,191.2554141617412,195.01563137551253
0.0333667000333667,7.646237279607623,26.025725891787964,128.46249084694918,129.188100873295,129.79575759331448,135.41077021795988,191.03350572795404,195.24582579314904
0.0667334000667334,8.096854749799537,26.79982481991648,130.37021665176184,132.75576444979927,130.29958075723604,135.60684438264386,190.887972842801,195.39114205575245
0.1001001001001001,8.440982951138736,27.552400499247543,132.01285466475886,135.99897920500896,130.68161480288938,135.79956660516012,190.8112377791961,195.4577311699001
0.1334668001334668,8.68891307588851,28.28113333346374,133.4092720669009,138.93078243069152,130.95225273287028,135.9885932308368,190.7957228100536,195.4517441421697
0.1668335001668335,8.850936316312145,28.983703726247622,134.57833603914867,141.56421141861446,131.12188754977458,136.17358060500206,190.8338502082874,195.37933197913856
0.2002002002002002,8.937343864672929,29.657792081281777,135.5389137624628,143.91230346054527,131.20091225619814,136.35418507298394,190.91804224681164,195.24664568738424
0.2335669002335669,8.958426913234153,30.301078802248743,136.30987241780397,145.98809584825142,131.19971985473674,136.53006298011056,191.04072119854035,195.0598362734842
0.2669336002669336,8.924476654259097,30.91124429283112,136.91007918613283,147.8046258735004,131.12870334798626,136.70087067171008,191.19430933638768,194.82505474401592
0.3003003003003003,8.845784280011054,31.48596895671144,137.35840124841005,149.37493082805972,130.99825573854247,136.86626449311055,191.3712289332676,194.5484521055569
0.333667000333667,8.73264098275331,32.0229331975723,137.67370578559633,150.71204800369685,130.81877002900123,137.0259007896401,191.5639022620943,194.23617936468457
0.3670337003670337,8.595337954749153,32.51981741909624,137.87485997865232,151.82901469217927,130.60063922195835,137.17943590662688,191.76475159578172,193.8943875279765
0.4004004004004004,8.44416638826187,32.97430202496585,137.98073100853867,152.7388681852745,130.35425632000968,137.32652618939895,191.96619920724413,193.5292276020101
0.4337671004337671,8.289417475554746,33.384067418863694,138.01018605621607,153.45464577475,130.09001432575104,137.46682798328442,192.1606673693954,193.1468505933629
0.4671338004671338,8.141382408891074,33.74679400447233,137.9820923026452,153.98938475237327,129.81830624177826,137.59999763361142,192.3405783551497,192.7534075086124
0.5005005005005005,8.010352380534135,34.060162185474326,137.9153169287867,154.35612240991176,129.54952507068714,137.72569148570807,192.4983544374212,192.355049354336
0.5338672005338673,7.906618582747219,34.321852365552246,137.82872711560125,154.56789603913302,129.29406381507354,137.84356588490246,192.62641788912373,191.95792713711123
0.5672339005672339,7.84047220779364,34.52954494838893,137.7411900440505,154.63774293180563,129.06231547753424,137.95327717652384,192.7171909831731,191.56819186351728
0.6006006006006006,8.09088098273237,34.620078317148256,138.0630125793636,154.71464148415055,128.8100938370832,138.08457143426975,193.0492444478807,191.2587211180589
0.6339673006339673,8.170091519122467,34.60923438038363,138.10287357745585,154.55690636351264,128.8730303875107,138.15830544985852,192.9760133764516,190.98663499014305
0.6673340006673341,8.445024836803883,34.507625795585504,138.34307712500117,154.03223563499125,129.08300874187734,138.1999210541498,192.74302122224336,190.75667345296992
0.7007007007007008,8.742221628482225,34.254218041473735,138.29233990617203,153.1159030278654,129.29877310396952,138.2217583266012,192.3669078380941,190.55542525495096
0.7340674007340674,9.1771973401177,34.02313059451877,138.50805476065966,152.5691017790756,129.60701746009826,138.24381800899778,191.86420192646605,190.4062437393841
0.7674341007674341,9.774818722530243,33.81619723515373,139.04980102257142,152.16441768397488,130.05506700285497,138.2769070789301,191.23550784086967,190.2969075454428
0.8008008008008008,10.179538356329257,33.539083076680704,139.57106526150184,151.8109843207982,130.53612391034986,138.32599958494922,190.53796752753783,190.213661798046
0.8341675008341676,10.756794387601516,33.231647863124095,140.11384265969176,151.52286002547447,131.05346225458652,138.36014228241993,189.7354386749652,190.1342729059038
0.8675342008675342,11.627404930011766,32.884440357496445,141.1407369137352,151.25066668949023,131.6105920211278,138.42326571857086,188.8235138754922,190.06425622225493
0.9009009009009008,12.631368283967271,32.58100005679861,142.30629980088628,151.10719769316836,132.1646100683937,138.4914269236398,187.83256728235523,190.00264360762384
0.9342676009342676,13.844528412926152,32.241754574146405,143.8000742820566,150.98320776500017,132.59705248736714,138.58694761311088,187.1355660312705,189.97588419206025
0.9676343009676344,15.303845384730591,31.91452972321721,145.63194660119274,150.95294652444787,133.03229322021528,138.6443119412979,186.3866805648787,190.0060657699518
1.001001001001001,16.897108473627153,31.51079464573388,147.72092002121303,150.85559913773687,133.47520709220137,138.66085528366617,185.69240703076105,190.1061683640282
1.0343677010343677,18.622157285071165,31.0906294112272,150.15130639611846,150.56997955776225,133.99415766545783,138.62733685014817,184.88354641297343,190.2740771595249
1.0677344010677343,20.41480841394004,30.633352113087145,152.7103468170358,150.19329480110355,134.49242786038653,138.60063823106253,184.20105260119243,190.4782572758708
1.1011011011011012,22.2411179928699,30.17278434702041,155.39293017460446,149.8293801836337,134.94737311519208,138.53679732368406,183.90208361307563,190.8214413487985
1.1344678011344678,23.933334028712,29.71052378949982,158.00242787559446,149.47822546257638,135.47128633709752,138.53702351299455,183.5454066626677,191.1224998731249
1.1678345011678346,25.612098876894063,29.25549918350667,160.5804015100629,149.1128750292986,135.97639928311955,138.66449718048375,183.10390021117283,191.3014887031205
1.2012012012012012,27.28454558627212,28.728585817676542,163.15116971667263,148.66910861225534,136.47583771842557,138.88272402588734,182.57247223928383,191.34917067554863
1.234567901234568,28.84585573577615,28.239230287077227,165.58417231070513,148.4254230607409,136.8224015097006,139.131627359367,181.5688066301028,191.4254298906648
1.267934601267935,30.300460652910026,27.688662430622983,167.82705277578916,148.0865813233353,137.15478279149798,139.37509452003093,180.28682632428283,191.5618290287865
1.3013013013013013,31.66149641770573,27.302182657489755,169.9320183957987,147.7337790454841,137.43257085607377,139.52982274918006,180.78949878887693,191.76112284615536
1.334668001334668,32.94233237465684,26.901849412047607,171.8426885987317,147.365116414791,137.6165147128682,139.65762466781305,181.54451972267944,191.94191565546527
1.3680347013680347,34.16125859609704,26.520369693046728,173.6411631419706,146.956177246787,137.76057390038503,139.7011192911711,182.51340770962983,192.1581213702215
1.4014014014014016,35.274108627150994,26.114297475925703,175.2496173801708,146.44996487447077,137.91205456172636,139.69338916395142,183.4992803728092,192.38193055718745
1.4347681014347682,36.28048875265168,25.71337937611765,176.52831047956946,145.94604497139173,137.99120913121192,139.64161199547326,184.60791030095584,192.6139032594938
1.4681348014681348,37.06702192071184,25.21503815666601,177.53278530037494,145.34441071727088,138.09314154340015,139.58993944586587,185.6863242137571,192.8540227373016
1.5015015015015016,37.64297747117282,24.735176539782763,178.259609367452,144.7746966737121,138.1327145373808,139.54616340900685,186.53644688052492,193.1323301728028
1.5348682015348682,37.610406565920215,24.197388890419145,178.9242316447823,144.10577594880954,138.08020372588905,139.53323460508773,187.2425785469605,193.3946416998049
1.5682349015682349,37.2122023669264,23.6702409231293,179.05801138199823,143.39819042783958,137.86098144161133,139.51026927729023,187.92019498510416,193.5877607786205
1.6016016016016017,37.04347727598708,23.04235444653626,178.74656395711455,142.4885464778409,137.80442837255197,139.53998845758895,188.45551998328352,193.7063248046764
1.6349683016349683,36.773921321091024,22.37298879493961,178.0130030719668,141.60181022505557,137.8004855779382,139.62692454639813,188.9495876609964,193.81593167730568
1.6683350016683351,36.6467930784659,21.47718178803456,177.82368549660993,140.51663690424363,137.97944668711762,139.7729669079135,189.16842422938325,193.9301749660696
1.7017017017017018,36.57390248524428,20.46110407788281,177.84282752242075,139.50066071464934,138.25169840653425,139.92094769330757,189.3109567957385,194.02957478508503
1.7350684017350684,36.43464467722128,19.337555360792656,178.03766456063832,138.40365632445278,138.55489253893688,140.1342407147185,189.34242212393087,194.0380557513432
1.7684351017684352,36.37906942853435,18.13877507147322,176.77822995575167,137.35731373662244,138.9552168737258,140.37366522983498,189.10223640536057,193.98433355144428
1.8018018018018016,36.35977668526071,16.878190641181096,176.17925047942416,136.2373146053732,139.3924998594848,140.69383436863043,188.56004002166205,193.87989056864447
1.8351685018351689,36.26171706141703,15.576365057985877,176.12346871204144,134.94244455101114,139.8711461229046,141.06006545166724,187.75551144842703,193.72307421117137
1.8685352018685355,36.260114526545664,14.32535573052666,177.2992980497629,133.54558107633113,140.41773847078352,141.48149497834507,186.82440321185467,193.5220878669475
1.901901901901902,36.30042610276961,13.066183909260843,179.0965084157382,132.69168680388228,140.81511725157588,141.9714416185649,185.9633303083244,193.2441582408004
1.9352686019352687,36.28174442891908,11.856194549046103,181.36807801169053,131.707511811532,141.00536038853565,142.52414330498695,185.170380176486,192.8768319050192
1.968635301968636,36.7611157843279,10.63417045598434,184.4045139412472,130.77644892903328,141.07855948921986,143.0879326216517,184.33967456312843,192.4339167765796
2.002002002002002,37.09821726312052,9.493241995848232,187.68820258242675,129.45988408344604,141.00570785969433,143.69883168159856,183.5373464493157,191.920590711874
2.035368702035369,36.15232931731497,8.247903651955314,190.21571041099617,127.55086604719683,140.7109412739076,144.30888975826508,182.8649342419657,191.33658812908075
2.0687354020687354,35.03617005078036,7.055345376669217,193.0982063586733,125.42491304030736,140.43639515125537,144.92861142700556,182.1058470238181,190.71296449543445
2.1021021021021022,33.81494329788794,6.207284482872926,195.97713809696543,123.58071518772611,140.10408097897206,145.54127147423208,181.3612259810189,190.03513962737205
2.135468802135469,32.59723171722584,5.552036710617231,199.28961353762656,121.2236998808586,139.72626502938445,146.19707248030272,180.8552972187032,189.3156379978696
2.1688355021688355,31.52047143499898,4.757839978819511,202.6809910080422,118.49331749394791,139.3295382236033,146.9089449484676,180.433213948178,188.5589414859592
2.2022022022022023,30.52725008161304,4.171288367678058,206.65936972917336,115.7267087750778,138.82499087308548,147.72859614914418,180.4066440336774,187.7463374036072
2.235568902235569,29.63191216709016,3.9798397725532366,219.7458789726545,113.1510048983533,138.14231864824472,148.591920971048,180.677249841596,186.92065701750496
2.2689356022689355,28.810849425803863,3.9798397725532366,231.297439209576,110.32023854256516,137.35766161748705,149.53302619397158,180.98341809826167,185.9772988468133
2.3023023023023024,28.234785840529263,3.9798397725532366,240.1207275725201,107.66075547409244,136.51085228851596,150.52289122659698,181.47361197961152,185.0208352461554
2.335669002335669,27.75254212152912,3.9798397725532366,246.0069394977512,104.66105423789593,135.68432635671564,151.43784380594775,182.2292364457132,184.1510665317036
2.369035702369036,27.555516059444013,3.9798397725532366,248.6245787542012,101.25374834547456,134.90051444479272,152.24730891674827,183.22672762906248,183.48269065697988
2.4024024024024024,27.632295300187923,3.9798397725532366,249.0031469876287,97.31434449545006,134.31589630700375,152.95860557328876,185.15849777864327,182.93283414105755
2.4357691024357693,27.772094265606484,3.9798397725532366,247.50674958511243,93.37610231976905,133.82086515418214,153.5787727630065,188.27858522854925,182.5178951535676
2.469135802469136,28.02900645159584,3.9798397725532366,244.16581189849296,88.92746063713822,133.4935526962736,154.13911947285155,190.25139941430533,182.2063247567341
2.5025025025025025,28.41466522501003,3.9798397725532366,239.3678451807371,84.68677385194779,133.35648330453495,154.62632754726593,192.1644766864591,182.01321222297204
2.5358692025358693,28.863662763539,3.9798397725532366,233.05231404338824,79.86803517395656,133.41038569312485,155.11102499045913,193.8791962090901,181.87937615231965
2.569235902569236,29.35952686719557,3.9798397725532366,225.2342644270553,74.8196665502201,133.55880977446304,155.56663144843347,195.61517434376367,181.82394728634492
2.6026026026026026,29.953869623650668,3.9798397725532366,216.162877134458,69.67046468721854,133.77767296694194,155.98088283922596,197.22251918435893,181.83136781542217
2.6359693026359694,30.600343180659657,3.9798397725532366,205.97669685445183,64.60199359983248,134.12439320846212,156.37848579152038,198.6202107908161,181.8781704362977
2.669336002669336,31.576668662108407,3.9798397725532366,194.5324362038765,59.49821499486326,134.42246101718672,156.7121754873302,200.18970673652024,181.9376815889079
2.702702702702702,32.75605831702862,3.9798397725532366,182.67133785651336,54.50861828624102,134.76048036690446,156.9515785566841,201.7505681411648,181.9939476159626
2.736069402736069,33.98978018600324,3.9798397725532366,170.37945046873728,49.725584227883,135.1990638225408,157.14429815511943,203.1920095514848,182.1166434181974
2.7694361027694363,35.39577700489705,3.9798397725532366,156.86073380015517,44.74926909055143,135.8610568531033,157.28223914306116,204.38610460837165,182.35208781733985
2.802802802802803,36.69589649692991,3.9798397725532366,144.1815420861018,39.6063293267618,136.6232025412954,157.3308140611918,205.3569374472981,182.6369931396086
2.836169502836169,37.80462585057866,3.9798397725532366,121.17803402234544,34.88766701022542,137.36316246809702,157.2884448058049,206.3106556417087,182.98056082011348
2.8695362028695364,38.69247151312851,3.9798397725532366,100.6429245013568,30.63252864125966,138.0280816831991,157.1830043932797,207.05963657192453,183.38442736406384
2.902902902902903,39.318473341646765,3.9798397725532366,82.8224278447109,25.977899959446265,138.64982805454093,157.02899388000824,207.6256877998479,183.69689144842
2.9362696029362696,39.67806033356671,3.9798397725532366,69.02670214768531,21.94762313316477,139.1245946251369,156.7827113939712,208.17753609309423,184.12525539204816
2.9696363029696364,40.329746936032734,3.9798397725532366,58.97687512363643,18.49866409988032,139.33605416208096,156.52749803202795,208.92826232046804,184.5987206495184
3.003003003003004,40.73563892231315,3.9798397725532366,51.502250432923496,16.20200090268841,139.33374908752643,156.219263517324,209.75638961641368,185.16257757570696
3.0363697030363697,40.57925575557978,3.9798397725532366,47.47944473115846,13.793727477338615,139.25178298285584,155.97466706645605,210.52096721891257,185.5265274223217
3.0697364030697365,40.0205121380322,3.9798397725532366,45.72346653025416,12.04569466999589,139.1649971245148,155.66867845797032,211.0230520124577,185.9316960374944
3.103103103103104,39.27656341176915,3.9798397725532366,46.741009546290265,11.507742570328588,139.1171999084098,155.33662117595514,211.08975216394452,186.31614202842388
3.1364698031364697,37.6529488867778,3.9798397725532366,49.1831679388426,11.78714618813007,139.0116756677944,154.92368499160887,210.94507032541847,186.7997919966772
3.169836503169837,35.45333115737617,3.9798397725532366,53.67327804271574,12.980704586399044,138.35705897171994,154.57593909755388,211.54335313927123,187.23211615263932
3.2032032032032034,34.17437577300376,3.9798397725532366,61.127052873432014,15.691241538188285,137.73071810165254,154.08056128484924,211.9379125732293,187.884348188624
3.2365699032365702,33.09305249066765,3.9798397725532366,70.91093922031952,19.00776567918672,137.19195514615797,153.5205314883508,211.3961289642882,188.57985726981136
3.2699366032699366,32.26916123861874,3.9798397725532366,83.45833468075533,22.49843682113607,136.75038528262868,152.8087801041013,210.5998328811773,189.54292990602187
3.3033033033033035,31.63128014069005,3.9798397725532366,99.07862870372716,28.06108322545828,136.2517149014819,151.9406690924289,210.20074592703068,190.9573389472952
3.3366700033366703,31.39168805510744,3.9798397725532366,117.11179013074376,34.30088441548145,135.6335242918669,150.89938168199183,209.9316506273073,192.6597339516282
3.3700367033700367,31.30945783315326,3.9798397725532366,136.96028401060596,40.95512489363202,134.9239914065664,149.69101613479907,209.6686967078424,194.60620204048007
3.4034034034034035,31.67094104418845,3.9798397725532366,147.38101361453505,47.60499937644055,134.29553148356695,148.3704904052366,209.3447400454461,196.6975566456184
3.4367701034367704,32.379744864718134,3.9798397725532366,156.75361936443832,54.33498709675439,133.66192787748997,146.94129214373902,209.1086944395497,199.0820000284728
3.4701368034701368,33.191981326149374,3.9798397725532366,165.79480033651595,60.52398482870836,133.08607028797948,145.4373720645901,208.81315639637947,201.48632544241173
3.503503503503504,34.06664864687621,3.9798397725532366,174.42109170134185,65.87267347559981,132.60939424025406,143.71768514945026,208.2746276895089,204.28733035121184
3.5368702035368704,34.80648170536442,3.9798397725532366,183.128512112015,71.28263156210589,132.2145211702518,141.9355918990542,207.70514878784863,207.0660319967792
3.5702369035702373,36.06659620811145,3.9798397725532366,192.09589289428337,75.85727048358174,131.98109963506414,140.28417681475105,207.08003772334604,209.58770931157923
3.603603603603604,37.29017820841825,3.9798397725532366,199.89532287513728,80.1426344804654,131.87884523123418,138.64307661258525,206.49268071399632,211.82367241445024
3.6369703036369705,38.47727748597912,3.9798397725532366,210.12493581606304,87.85936340090475,132.03529133652026,137.72369452338705,205.75905410015167,213.7654254043885
3.670337003670337,39.36068599219936,3.9798397725532366,218.5173474886435,94.52098619049106,132.07058656771633,136.84551736686993,205.23141332948845,215.3783484180778
3.703703703703704,40.4632804786328,3.9798397725532366,224.2641297765474,96.24881485380963,132.03556246511198,135.85015030686262,205.02570052311333,216.74621952984137
3.737070403737071,41.21408659047424,3.9798397725532366,227.68681169915249,96.9835216917368,132.01326611116207,134.67697304791238,204.9681872123261,217.864551509374
3.770437103770437,42.93345758990212,3.9798397725532366,229.0367629911265,104.72922390050456,132.14624474824544,133.3302206962941,204.8714896315836,218.6978852035042
3.803803803803804,44.36720745768514,3.9798397725532366,228.0137039358188,111.20993395092692,132.12670887935036,131.90066746110915,204.7771599286383,219.27798203774245
3.8371705038371706,44.6512065226296,3.9798397725532366,225.6707765194877,115.9764348044623,132.0350105941137,130.50997093444636,204.4733373621206,219.2508570124319
3.8705372038705375,44.60704208513131,3.9798397725532366,219.57293091353907,119.31712480344564,131.93163103653376,129.2748001701434,203.9855176957126,218.87729652969807
3.903903903903904,44.8918349412305,3.9798397725532366,209.54626052062432,119.49820623639395,131.95430063376557,127.793696589495,203.5365440774968,218.5789746014617
3.937270603937271,44.43142015525177,3.9798397725532366,197.957428891668,118.72136354930062,131.71577725420693,126.05887440944151,203.3577972530815,218.2668432012433
