Time,Left Shoulder Angle,Right Shoulder Angle,Left Elbow Angle,Right Elbow Angle,Left Hip Angle,Right Hip Angle,Left Knee Angle,Right Knee Angle
0.0,24.91256734112249,37.11303459529476,153.6629656039478,172.54064267220778,142.0730666718536,140.92256280906682,194.87515856720609,200.91207491322052
0.0333667000333667,23.9651765241903,35.55410199946621,152.68481644200233,169.87261715841936,143.04899451097234,141.54969582891528,194.7949500109856,200.5503841543856
0.0667334000667334,23.132523174288288,34.199683394505506,151.79018543214542,167.54332568477383,143.87424176732762,142.09927860207625,194.7368473684545,200.2287807189869
0.1001001001001001,22.40967925937677,33.03912498776503,150.97854365716,165.5348582191886,144.5578123290363,142.57483373888883,194.69913311659545,199.94543300293964
0.1334668001334668,21.791716747416057,32.06177298659714,150.24936219982914,163.82930472958114,145.10871008421523,142.97988384969202,194.680089732391,199.69850940215872
0.1668335001668335,21.27370760636649,31.256973598354232,149.60211214293577,162.4087551838688,145.53593892098124,143.3179515448249,194.67799969282376,199.4861783125592
0.2002002002002002,20.850723804188387,30.614073030388667,149.0362645692629,161.25529954996907,145.84850272745118,143.59255943462645,194.69114547487632,199.30660813005616
0.2335669002335669,20.517837308842072,30.12241749005283,148.55129056159353,160.35102779579933,146.05540539174189,143.8072301294358,194.7178095555313,199.15796725056447
0.2669336002669336,20.27012008828787,29.771353184699088,148.14666120271067,159.67802988927698,146.1656508019702,143.9654862395919,194.7562744117712,199.03842406999948
0.3003003003003003,20.102644110486104,29.550226321679823,147.82184757539727,159.21839579831948,146.18824284625296,144.0708503754339,194.80482252057868,198.946146984276
0.333667000333667,20.010481343397096,29.448383108347407,147.57632076243635,158.95421549084423,146.132185412707,144.12684514730077,194.86173635893635,198.879304389309
0.3670337003670337,19.988703754981174,29.45516975205421,147.40955184661092,158.86757893476866,146.0064823894492,144.1369931655316,194.9252984038268,198.83606468101365
0.4004004004004004,20.03238331319866,29.559932460152623,147.32101191070393,158.94057609801018,145.8201376645963,144.1048170404654,194.99379113223245,198.8145962553049
0.4337671004337671,20.13659198600988,29.75201743999501,147.3101720374984,159.1552969484862,145.58215512626526,144.03383938244124,195.06549702113608,198.81306750809787
0.4671338004671338,20.29640174137515,30.020770898933748,147.37650330977732,159.4938314541142,145.30153866257282,143.92758280179814,195.13869854752025,198.8296468353076
0.5005005005005005,20.5068845472548,30.35553904432121,147.51947681032368,159.9382695828115,144.9872921616359,143.78956990887517,195.2116781883676,198.86250263284893
0.5338672005338673,20.76311237160916,30.745668083509784,147.73856362192046,160.4707013024956,144.6484195115713,143.62332331401134,195.2827184206605,198.9098032966371
0.5672339005672339,21.06015718239872,31.18050422385209,148.0332348273519,161.07321658108523,144.29392460049712,143.4323656275469,195.3501017213833,198.9697172225887
0.6006006006006006,21.38810022201683,31.418702410311067,148.48466504544774,161.41238510936773,144.00319304346314,143.21551944546363,195.30101632530992,199.0118495127786
0.6339673006339673,21.83195342433802,31.78483035866684,149.13059297270766,161.93616188595965,143.7072925141022,142.95690666853665,195.32398282800312,199.0784310552559
0.6673340006673341,22.333685943599868,32.305366321735555,149.96164422789232,162.73386854088588,143.44728274705028,142.6913610037891,195.3557913239834,199.16436190571545
0.7007007007007008,22.868444021359227,32.84908455447245,150.83803320612074,163.53267003574328,143.15402867572885,142.39325160224072,195.4141615636649,199.2773122262651
0.7340674007340674,23.36653997982925,33.37894588893133,151.70064720202495,164.26977383610784,142.90425593987925,142.09573945455406,195.4529768520332,199.3910095482505
0.7674341007674341,23.82603952081721,33.94439895453113,152.6025001082855,165.0249552022331,142.72276835170004,141.78157546716628,195.4842790786808,199.51922469405912
0.8008008008008008,24.227712460418783,34.40804458899114,153.4337173188205,165.50810086720307,142.5636275511256,141.50683371797697,195.5562785490822,199.6265854747589
0.8341675008341676,24.478854195460823,34.835692944997376,154.0103464054148,165.82545437832903,142.46046575822947,141.26653283009935,195.59348751364385,199.70493981660047
0.8675342008675342,24.684619312095457,35.146532396703805,154.5478779292673,166.0206956515304,142.4060528621101,141.06157392596518,195.60054226144857,199.76974983268423
0.9009009009009008,24.889567988305405,35.40177661426124,155.16392178423376,166.16653171959794,142.42087757732622,140.85594317929463,195.5542806684936,199.82647363930093
0.9342676009342676,25.12473427531728,35.565212011598256,155.9088760469852,166.18586059476047,142.5263627242609,140.69312363086146,195.45455690956703,199.8686577983114
0.9676343009676344,25.331942291466635,35.64390190061853,156.65549798162996,166.09208096969493,142.70254468036472,140.58263129079057,195.3025084705808,199.89278097529188
1.001001001001001,25.5744791838565,35.66855497344157,157.52245971332167,165.95947230140416,142.93862954005394,140.55327574574474,195.1070920500736,199.90117889661337
1.0343677010343677,25.870590733205507,35.72030162178253,158.4970837130776,165.905130270738,143.17747440775514,140.55480966248984,194.90083685626425,199.907589710014
1.0677344010677343,26.218689049194072,35.8017343710066,159.52975003151914,165.98840509465174,143.37728888015644,140.63041158449343,194.71160981087365,199.90565803519587
1.1011011011011012,26.538124006810744,35.87108057499388,160.5142976009612,166.09714866200144,143.6154894100696,140.81429760399465,194.4633386099758,199.87073263944856
1.1344678011344678,26.82866697666643,35.906605296821944,161.49438756726374,166.2486816803494,143.88418845406085,141.08424631733635,194.18791594216736,199.82436154072144
1.1678345011678346,27.08918566030153,35.901399441204624,162.34101639774514,166.4148601426688,144.16445334778763,141.41367234664125,193.8951938586222,199.776904833312
1.2012012012012012,27.3318197931058,35.86134646916071,163.16493597825004,166.5753748891387,144.4486689052549,141.79549985036996,193.59698777953585,199.7291528347199
1.234567901234568,27.587472824187017,35.91039888815291,164.02551870561413,166.9372226417632,144.7137140048175,142.19601222118231,193.34278929636884,199.70358207780112
1.267934601267935,27.875936886364777,35.95577669355632,164.93722799871767,167.25308292026165,144.92655350301018,142.63523087398045,193.14780712071297,199.6725840322273
1.3013013013013013,28.157667337257365,36.09287246493956,165.87694973403305,167.6065757804582,145.1199293023941,143.1034518782743,192.9995316197658,199.6329769196324
1.334668001334668,28.40298091288444,36.20625730322282,166.7538460617559,167.89087312868335,145.2651594228225,143.5882501496043,192.87858847829528,199.5960399162668
1.3680347013680347,28.67640963066819,36.48833689850409,167.24730563175928,168.5243494700845,145.42114849353308,144.0902795851918,192.72160994517463,199.55796493523212
1.4014014014014016,28.94798579551377,36.77561348385358,167.74532528602205,169.1421941510214,145.56483985893442,144.60919936261212,192.54807349519243,199.5241158686956
1.4347681014347682,29.203056338187384,37.2293042404075,168.10695196737888,169.89867973796152,145.67915476339238,145.1576845219676,192.4080455661555,199.44860192156423
1.4681348014681348,29.405929752610888,37.46581241588234,168.5074382974297,170.24949257584893,145.7971009122756,145.71957452590337,192.2411033840292,199.3823760240609
1.5015015015015016,29.490242946094963,37.420466782843086,168.93793249176613,170.12101076090195,145.88100032412194,146.25329051638874,192.10106780486137,199.36019012926903
1.5348682015348682,29.47301185207281,36.80578583241618,169.40984461457185,169.21749464886443,145.8911148757191,146.78797797227077,192.0287693097068,199.36824342095235
1.5682349015682349,29.4212606422712,35.64507763758837,169.65211100296878,167.63260357908558,145.80719218568368,147.31478597204622,192.03383574170235,199.38480436544816
1.6016016016016017,29.42313024009575,34.319452279160586,170.24652846795306,165.90577378558316,145.66356217446008,147.80902847240773,192.09378157428665,199.4038969084264
1.6349683016349683,29.469841280779583,32.88067191672022,170.69122583196784,163.83585080530497,145.45519749815097,148.2687959006786,192.17640987180667,199.4201338060695
1.6683350016683351,29.48554202550578,31.33434953769391,171.36559677461307,161.50043874306036,145.19095586740642,148.67612610434315,192.2912267073298,199.4406235708064
1.7017017017017018,29.50700203683652,29.23745240502632,173.3980613312517,158.8213030312105,144.8549967406117,149.02288754847623,192.4550393731353,199.4693013322704
1.7350684017350684,29.424865307344994,27.026713255292005,175.92244314699977,155.941172314101,144.5004142404677,149.34941445007877,192.6401743572877,199.50231573236903
1.7684351017684352,29.3291067746332,25.14669362794058,177.99180639647696,153.09784333665158,144.1088623455516,149.64669088417102,192.8922076947668,199.54635364317068
1.8018018018018016,29.16975937763077,23.485622813702296,179.58891326528342,150.26894299922014,143.7075719034437,149.9051951227902,193.1872978062719,199.5860252959416
1.8351685018351689,29.101745573314663,21.90807111821206,181.9153106663276,148.3960418691347,143.25754180374815,150.10668184724315,193.5501906801813,199.6249499167003
1.8685352018685355,28.895588638397143,20.54693548721781,184.40169266986075,146.46271489593192,142.87212865854448,150.29468394756782,193.92499099683968,199.6431149749212
1.901901901901902,27.056423522550528,19.31950630736912,186.9341750673291,144.05960690221298,142.48899188100685,150.46059672897374,194.33219953494407,199.66640940427715
1.9352686019352687,25.49251227063341,18.298623281077848,188.56757267027547,141.305243280361,142.08724550819127,150.6200079577401,194.7727771186603,199.6826541140653
1.968635301968636,24.167968241848182,17.525523600334186,188.5750328044096,138.81606442841468,141.7105931011218,150.7358986859969,195.09718375300773,199.7330707206173
2.002002002002002,23.099822193241287,16.944736674679625,188.7147932210454,136.23635814727837,141.3843394072547,150.80122336799568,195.41291820596737,199.81088545712527
2.035368702035369,23.02372170375921,17.10704336268662,192.2556581855756,133.9636005885559,141.1080546793682,150.8407139090458,195.65904521405,199.8636767539536
2.0687354020687354,22.804448460142783,17.06405969622451,190.67077335342884,131.5750544724506,140.86705275577646,150.90181392168572,195.8961033486372,199.87523835991365
2.1021021021021022,22.40752563627169,17.1840924654107,193.7675223819716,129.00221512781908,140.6309467507176,150.96982537146667,196.14533199722464,199.8496912528408
2.135468802135469,21.934081959153787,17.657002403988933,196.023641230563,126.66251143727888,140.47915910233803,151.03665831651907,196.4183817296298,199.7803691611441
2.1688355021688355,21.3471834264231,17.84298727076059,198.55966358327063,126.5254918819972,140.42910576424563,151.0818401374617,196.7291891700181,199.6681514246765
2.2022022022022023,21.10234526171376,18.013253557666687,199.5984241762532,126.03624690439548,140.5292194107475,151.1819560559181,197.0315946626871,199.48994136473857
2.235568902235569,20.42125840682155,9.788418983377174,199.20988692793065,125.82403050265223,140.78349936921597,151.30235362618305,197.3150199411837,199.2691248311872
2.2689356022689355,19.887536209875783,4.715040100004074,198.10009663239023,124.95074225077612,141.07124203372413,151.40344695479476,197.65712119079785,199.0387145928388
2.3023023023023024,18.17441963747355,4.715040100004074,194.89706388802605,123.11550175523833,141.374746415932,151.4707847525148,198.0350678457787,198.82207566230423
2.335669002335669,16.271206947516934,4.715040100004074,190.9776391600144,120.91597903641131,141.7282978841091,151.53024654163576,198.46623529386807,198.6131080527611
2.369035702369036,6.793090785031243,4.715040100004074,186.0180207306252,118.32853212218228,142.01559328673827,151.5801533094391,198.9669643744745,198.4068898781215
2.4024024024024024,0.4661375645739465,4.715040100004074,181.26467981189785,115.17138638985304,142.35887501178044,151.66464244781724,199.48565808733272,198.18489674023004
2.4357691024357693,-3.305762488738138,10.64423556735106,177.0564780214037,111.41883394302393,142.74865614315283,151.77120812381983,200.0229822232373,197.9270024460793
2.469135802469136,-4.447073942754536,16.896712640659416,172.90762020918544,106.30590695367115,143.16602234103405,151.91193192426746,200.54409872954216,197.64803396721
2.5025025025025025,-3.036812420221631,23.3945457008521,168.74416547437414,103.58806218711952,143.61448422832603,152.06857850189468,201.04620305619812,197.3564057689973
2.5358692025358693,0.7004403698865991,30.24566352035439,164.91069249310996,98.15902360171332,144.0175187285775,152.24304714379136,201.5842102741074,197.05330268877748
2.569235902569236,0.7004403698865991,27.883070815733035,161.2755932848851,94.83610227013848,144.40739520763685,152.43019673989147,202.1688279453568,196.74577643900892
2.6026026026026026,0.7004403698865991,28.37231377099726,157.8506000479485,91.26241063591632,144.75922358799005,152.62445378021349,202.7415469251015,196.4864222614946
2.6359693026359694,0.7004403698865991,30.735510050024946,154.53573934186073,87.65526628779925,145.03282046756672,152.80842278695954,203.34966697195017,196.25645509671696
2.669336002669336,0.7004403698865991,35.56149724344723,151.48588181798576,84.14575186526969,145.250162933396,153.0010899985915,203.9545790753052,196.01431103901183
2.702702702702702,0.7004403698865991,49.00479387224059,148.7688468932178,80.43683648528277,145.41774629855317,153.21343919733476,204.5516775205651,195.7613673712596
2.736069402736069,0.7004403698865991,61.38075297136733,146.74198958740865,76.99216252608744,145.5643562336965,153.44712615755995,205.1158597448112,195.51336622605345
2.7694361027694363,0.7004403698865991,72.86390368061372,145.4056081119688,73.89795825027592,145.68507050435355,153.69735799634188,205.63657885016184,195.27383803305943
2.802802802802803,0.7004403698865991,83.31186872874852,145.1446558991119,71.18582812840185,145.76649096611496,153.94963288682922,206.14684376612456,195.0503185788699
2.836169502836169,0.7004403698865991,92.5926779688043,145.81150649709986,68.81443166978251,145.7858625097419,154.192062167194,206.6369369179936,194.84951497180955
2.8695362028695364,0.7004403698865991,100.94966345304326,145.94031794850022,67.07424846231898,145.77304821095822,154.4281731860896,207.09366273476616,194.6685672794948
2.902902902902903,0.7004403698865991,108.30190618870436,145.86351915260204,65.98319220540874,145.70874983787442,154.65123412939286,207.53755318498088,194.5189689142812
2.9362696029362696,0.7004403698865991,114.57453979094012,146.53668656767618,65.44685506955557,145.60374377482327,154.87178956434073,207.9333789934768,194.3982262453996
2.9696363029696364,0.7004403698865991,119.68225673354507,148.16415522751709,65.49482478775074,145.45641588820055,155.0871867090323,208.27900490343808,194.3049131666167
3.003003003003004,0.7004403698865991,124.34709857815426,149.4517015117148,64.83469611058379,145.2974646670789,155.3042109816097,208.53987040255063,194.23794847045536
3.0363697030363697,0.7004403698865991,128.39954782300725,150.6709351464318,64.32842698167417,145.1125050181899,155.50842709004328,208.73042155663688,194.2119776389148
3.0697364030697365,0.7004403698865991,131.45804670563246,151.63186228463138,64.48749551047214,144.9421686920415,155.67720783913933,208.8396900411936,194.21977311963715
3.103103103103104,0.7004403698865991,133.5422297919708,153.22918719922873,65.3383499609607,144.7962397727252,155.81747354390512,208.8491424361237,194.2548099985188
3.1364698031364697,0.7004403698865991,134.7136225300328,156.76404745795452,66.34990195271853,144.69677582570066,155.94317060939375,208.84969288763943,194.25831961455737
3.169836503169837,0.7004403698865991,134.85969379463006,161.18513116448634,67.85566822171481,144.6123318462063,156.08194693879068,208.80297614939352,194.21490189529607
3.2032032032032034,0.7004403698865991,134.11463399201176,162.12915683200907,69.51489072076906,144.5498145781515,156.21715681234278,208.8024802745584,194.1551223840044
3.2365699032365702,0.7004403698865991,132.39965005847347,168.31324067217454,71.74547677876853,144.5377544899073,156.3475423672236,208.7895497545568,194.0836246630163
3.2699366032699366,0.7004403698865991,129.67752346652307,169.909916016225,74.75013473661765,144.6269650878725,156.4710535336186,208.7397986602486,193.99271706256863
3.3033033033033035,0.7004403698865991,125.93534846048902,171.1702812068709,78.28835286547205,144.7783013745754,156.58605468396885,208.65568361723524,193.89999710217344
3.3366700033366703,0.7004403698865991,120.50625934666536,170.56786285513317,79.69626529268052,144.94304226384267,156.70003111923768,208.5503191009672,193.8127611823965
3.3700367033700367,0.7004403698865991,114.29303837663896,169.55580343835194,80.75873241800045,145.11466334626604,156.78978563829892,208.44251503829017,193.75813042089297
3.4034034034034035,0.7004403698865991,106.98665020566386,168.29460531884482,80.55577781240089,145.2216988072537,156.85460326908586,208.3801450114097,193.7369875084823
3.4367701034367704,0.7004403698865991,98.36551329665488,166.10671028172118,79.95006556152295,145.32048157486372,156.91813191508334,208.35044190270503,193.67928829741945
3.4701368034701368,0.7004403698865991,89.1261909880438,164.92853713839443,79.39377345401317,145.4075368367464,156.9709018091746,208.38836332823792,193.6258661892317
3.503503503503504,6.607567619218325,79.11421838710815,164.08402571301426,78.35146356603752,145.46291533705923,157.01489072984313,208.47674200504508,193.60311831824765
3.5368702035368704,14.511807350738192,79.67161851050321,164.50871420171688,77.07845384408094,145.55024033245166,157.0378424187055,208.63251378084,193.6212042851508
3.5702369035702373,24.29090248752621,82.1808561193246,165.08950984845788,75.7713182796415,145.6564682839196,157.05575678549835,208.78541500862897,193.59953890775097
3.603603603603604,35.63206685214366,75.99388035188211,165.27177643651535,74.8906091466182,145.73652690907713,157.02984626044667,208.957834300088,193.63121304938488
3.6369703036369705,48.40309353034593,68.9698195357503,165.3828149094716,73.89611762187585,145.78526142669537,157.02874619273706,209.15892117247552,193.6613253867787
3.670337003670337,62.28703498522305,61.02600850189856,165.44980721576883,71.14637514936621,145.76759167803493,156.98436991769438,209.41473337386503,193.7652087077305
3.703703703703704,77.09898430866258,51.72544184284625,165.44196061838372,76.46126589559393,145.69430684869243,156.86558929141742,209.7304804520112,193.9520861606952
3.737070403737071,92.54365812614763,53.444670737588766,165.60497909950374,79.81307142586645,145.5330397150185,156.6879488475926,210.09055555089907,194.21634758499445
3.770437103770437,108.56678459788036,49.26983681580352,165.7009037002846,81.50810364249514,145.2627586576013,156.53974325421913,210.5020750554772,194.3607221337517
3.803803803803804,124.87691515384736,50.24546706796404,166.27176112613486,82.25475862684051,144.9150164591056,156.34680912003046,210.9503525157136,194.5599193242573
3.8371705038371706,141.33394521034066,54.883865026483456,164.36615712092984,80.79534192586905,144.42468389705206,156.10020309597027,211.4124503277289,194.73494013114225
3.8705372038705375,157.63269920324157,54.38206595584929,164.64382025492853,79.20120920147734,143.83371087008038,155.73443283122884,211.96511917743567,195.0567575905803
3.903903903903904,173.57060327674398,55.40212369873921,166.4260179613053,77.56083597462181,143.05638193512476,155.25108744491786,212.6138871421849,195.4857105390215
3.937270603937271,188.71435350283585,57.89421388841843,167.57864898536255,75.86360007928036,142.2374622264293,154.68131741636168,213.26876391006405,196.04568631790812
