Time,Left Shoulder Angle,Right Shoulder Angle,Left Elbow Angle,Right Elbow Angle,Left Hip Angle,Right Hip Angle,Left Knee Angle,Right Knee Angle
0.0,57.737462690573686,57.613492057514925,177.97424501902407,177.14437333315388,173.08076714624718,208.06770796275305,177.23891625317412,168.27223418446212
0.0333667000333667,28.681260805082857,31.07436338346156,189.95002895727504,165.33748187907017,171.90295744309472,209.4372146672887,177.61527502343247,170.58641711200244
0.0667334000667334,5.569513264764609,9.674658944913638,199.4314684879148,155.2771958222208,171.2698731472837,210.32793870400675,177.88201300053765,172.46950016472923
0.1001001001001001,-12.002296921206929,-6.930236742913344,206.587548090592,146.86194725707236,171.13841696414266,210.77560674867937,178.04880708000658,173.95248309601433
0.1334668001334668,-24.43868674365762,-6.930236742913344,211.5872522449552,139.99016827809152,171.4654915990002,210.81594547707888,178.1253341573564,175.0663656592296
0.1668335001668335,-32.14417319341332,-6.930236742913344,214.59956543065303,134.5602909797449,172.20799975718484,210.4846815649776,178.12127112810418,175.84214760774688
0.2002002002002002,-35.5232732612999,-6.930236742913344,215.7934721273342,130.47074745649925,173.3228441440252,209.8175416881476,178.04629488776695,176.31082869493798
0.2335669002335669,-34.98050393814325,-6.930236742913344,215.3379568146472,127.61996980282106,174.76692746484983,208.8502525223612,177.91008233186173,176.5034086741748
0.2669336002669336,-30.920382214769184,-19.08493916480389,213.40200397224075,125.90639011317704,176.4971524249873,207.6185407433907,177.72231035590562,176.45088729882917
0.3003003003003003,-23.747425082003623,-27.13406380554249,210.15459807976345,125.22844048203376,178.47042172976617,206.15813302700835,177.49265585541562,176.18426432227295
0.333667000333667,-13.86614953067241,-31.42222614991368,205.76472361686385,125.48455300385794,180.643638084515,204.5047560489864,177.23079572590885,175.73453949787793
0.3670337003670337,-1.6810725516013818,-32.29404168270192,200.4013650631906,126.5731597731162,182.9737041945624,202.6941364850971,176.9464068629023,175.13271257901602
0.4004004004004004,12.40328886438359,-30.09412588869176,194.2335068983924,128.3926928842751,185.41752276523687,200.76200101111263,176.6491661619131,174.40978331905902
0.4337671004337671,27.98241772645653,-25.16709425266768,187.4301336021178,130.84158443180138,187.9319965018671,198.7440763028054,176.34875051845822,173.5967514713788
0.4671338004671338,44.65179704379171,-17.85756225941413,180.1602296540154,133.81826651016164,190.4740281097816,196.6760890359476,176.05483682805476,172.7246167893472
0.5005005005005005,62.00690982556327,-8.510145393715682,172.59277953373388,137.22117121382252,193.0005202943088,194.59376588631133,175.77710198621975,171.8243790263361
0.5338672005338673,79.64323908094525,2.5305408596431604,164.89676772092182,140.9487306372506,195.46837576077743,192.53283352966903,175.52522288847027,170.9270379357173
0.5672339005672339,97.15626781911254,14.919881015877934,157.24117869522897,144.89937687491403,197.83449721451765,190.5290186417945,175.30887643032474,170.06359327086392
0.6006006006006006,108.09904245314809,28.31325959020409,153.3245920156105,146.03739250993357,198.62757459051747,189.61633317867825,175.19687698543413,170.29926760658478
0.6339673006339673,117.52415782516312,42.36606109783712,148.689109518686,149.57810166967553,199.05732889105587,188.90974623384048,175.6339966194323,170.31154648898513
0.6673340006673341,125.63725884347254,56.733670053992576,144.9207946782965,153.18056844842488,199.4400747389893,188.0632039675189,176.1087584502833,170.37611092805764
0.7007007007007008,131.13994927031362,71.07147097388705,140.48631983665004,159.90876347317243,201.58315782953804,185.8224394047524,176.43289909627583,170.4958468387872
0.7340674007340674,134.94466438484642,79.22216199977035,138.3770099004198,164.80153092021317,203.19873423099148,184.24363177068028,176.79566249052584,170.45233636743623
0.7674341007674341,137.8533368656507,86.48627568280955,136.19346875862945,170.96642518573202,203.5859279402348,184.0777328180152,176.78689280480717,170.782447460621
0.8008008008008008,141.0806958428541,92.49061220209607,137.88632424091912,170.30832229339762,204.14018673545675,183.570885290352,178.42980878069315,170.46399641884332
0.8341675008341676,138.74651610156593,97.92733244518476,139.45273578722598,169.42301166286146,204.6648077391349,182.6737215946426,178.70396997921517,170.94685466891858
0.8675342008675342,136.44295534423503,101.64794288442832,137.60437157461368,169.4972870022764,204.75908875341813,182.3862945992409,178.9307616187146,171.5025719508207
0.9009009009009008,133.07463583149513,102.89993110897716,136.5244477430036,166.6684603359014,204.48025470006056,182.57745243614377,179.14985657617353,172.1099675359256
0.9342676009342676,129.19746907961616,103.38625004946424,135.6162345264348,163.60863847495344,203.78685581186696,183.19797241931136,179.37923938990645,172.80303632853165
0.9676343009676344,124.41452141394502,103.2456655839988,137.18050532100906,164.53161491555852,202.7906545461922,184.208827831042,179.49925753564457,173.6311098812507
1.001001001001001,122.48194498373778,103.17026937737772,132.3672447306261,161.01109117690592,201.5109328508219,185.8262670939444,179.4470272247361,174.47806831744845
1.0343677010343677,118.87719741764028,99.7947868029353,133.87577065923335,161.51068938679828,201.5658223314223,186.5901104400722,179.29377688466477,175.18345993089105
1.0677344010677343,113.33594348311816,96.80273515190213,137.06102585388214,162.43294226889242,200.87093485730452,187.876823276394,179.0690071804509,176.0578314169291
1.1011011011011012,106.4476813471908,93.68329782595306,140.13407071793387,156.97025795912205,199.59889799788664,190.02284900762675,178.68729210493473,177.04058075585723
1.1344678011344678,96.87134487391964,90.65873598457998,142.736955026833,158.4083920212292,199.24819517509133,191.00366637078383,178.31404396822347,177.91775262296002
1.1678345011678346,86.09617852026746,86.9853442692814,148.03794132039366,159.3681863020931,198.792457696306,192.4193866357737,177.8679484942179,178.4596544156075
1.2012012012012012,72.55221772691317,83.27344792809654,154.8813571165756,161.50012079299538,197.91430266587625,193.80151537669545,178.30945239725182,179.52396324192918
1.234567901234568,57.80113866654252,79.97426774885663,154.67783780116972,165.15111639712214,195.76052530664805,196.02757690931327,178.12363190120163,180.1956101442416
1.267934601267935,52.76190026732343,75.39804364914455,158.92019997028413,166.57383778593743,194.7174256705101,197.52540328549452,177.89069972353008,180.7135203021589
1.3013013013013013,48.69628562213469,70.04246960508542,161.60919504184483,172.4014986256236,193.88283491431267,198.992526833507,177.59438681943516,181.1474462557136
1.334668001334668,44.91251486259748,64.43233168747122,164.17900923995452,173.66547680913106,192.9999716843212,200.43792967931643,177.2562667369526,181.5372866184644
1.3680347013680347,42.02677621334918,58.06355257394254,169.4784479511802,176.77618112466985,192.1007998688948,201.80446098989955,176.83658846394843,181.9305000953048
1.4014014014014016,39.75157193813229,50.56791474657758,175.554063651485,179.43869279550108,191.2247581657521,203.0064922351304,176.3782825254806,182.22137967414204
1.4347681014347682,38.615329248414,42.02465799801392,179.96048985813096,182.5918515512604,190.3395613553816,204.0738466082538,175.84234955965584,182.4939952653415
1.4681348014681348,37.8986218231657,47.862341430839,184.81626056359585,185.98705072136968,189.5587670229397,204.87719464700533,175.25886795367967,182.8194221129252
1.5015015015015016,40.43837102257881,53.47069309956639,186.8843715989713,189.903295536452,188.9236856359381,205.55861328386013,174.56326345195117,183.18264120940728
1.5348682015348682,40.10532015874516,61.709812464745,188.9505222866333,194.4773020094948,188.4043240210644,206.00257212655475,173.8474540748463,183.8335201944548
1.5682349015682349,39.73362061839319,70.68005415582091,190.6038613989372,199.0747755896035,187.92666913878955,206.3320003727512,173.15550785871645,184.52385789740907
1.6016016016016017,39.253846452946206,81.26441321185969,191.8061508245383,203.64286236428444,187.4888659726056,206.55010560975268,172.50065983231656,185.2513444886885
1.6349683016349683,38.59657171382814,93.11126333068194,192.51915245209332,208.1287084210454,187.0890595060059,206.66009542486387,171.89614502440298,186.0136701387125
1.6683350016683351,37.69237045246295,103.16976370955533,192.7046281702592,212.4794598473941,186.72539472248425,206.6651774053894,171.355198463732,186.80852501790088
1.7017017017017018,36.47181672027452,112.95520221055938,192.32433986769243,216.6422627308383,186.39601660553413,206.56855913863404,170.89105517905995,187.6335992966732
1.7350684017350684,34.8654845686868,122.25074090661158,191.34004943304984,220.56426315888567,186.09907013864915,206.37344821190243,170.51695019914317,188.4865831454491
1.7684351017684352,32.80394804912366,130.83954187062992,189.7135187549881,224.192607219044,185.83270030532287,206.08305221249927,170.24611855273798,189.36516673464823
1.8018018018018016,30.217781213009133,138.50476717553244,187.4065097221641,227.47444099882105,185.5950520890489,205.70057872772924,170.0917952686007,190.26704023469023
1.8351685018351689,27.03755811176705,145.02957889423732,184.3807842232344,230.35691058572445,185.38427047332075,205.22923534489703,170.06721537548768,191.1898938159948
1.8685352018685355,23.19385279682139,150.19713909966256,180.59810414685583,232.787162067262,185.198500441632,204.67222965130736,170.18561390215518,192.13141764898143
1.901901901901902,18.617239319596,153.79060986472643,176.0202313816851,234.71234153094144,185.03588697747625,204.0327692342649,170.46022587735962,193.08930190406988
1.9352686019352687,13.238291731514948,155.5931532623468,170.608927816379,236.0795950642705,184.89457506434707,203.31406168107424,170.90428632985723,194.0612367516798
1.968635301968636,6.987584084002009,155.38793136544194,164.32595533959417,236.83606875475687,184.77270968573805,202.51931457904027,171.5310302884044,195.0449123622308
2.002002002002002,-0.2043095715188343,152.9581062469299,157.13307583998744,236.92890868990835,184.66843582514275,201.65173551546752,172.35369278175745,196.03801890614244
2.035368702035369,-8.40681518362365,148.08683997972884,148.9920512062155,236.3052609572326,184.5798984660548,200.7145320776608,173.38550883867265,197.03824655383443
2.0687354020687354,-17.68935870088852,140.55729463675678,139.86464332693504,234.91227164423736,184.5052425919676,199.71091185292465,174.63971348790642,198.0432854757265
