Time,Left Shoulder Angle,Right Shoulder Angle,Left Elbow Angle,Right Elbow Angle,Left Hip Angle,Right Hip Angle,Left Knee Angle,Right Knee Angle
0.0,20.53312006928932,25.112689568185942,177.52975646781286,123.20264744037031,156.1141740113066,185.35468733176924,189.2392788660884,184.25179320169264
0.0333667000333667,15.190129166720808,14.268632239543171,181.5887706524712,136.79876726229827,154.99217506889468,187.2548658248517,188.8977130030036,184.6407254043543
0.0667334000667334,10.795389617820206,5.56254364808964,185.0206361624272,148.2773750478185,154.0307035584439,188.8625801418696,188.63490812501684,184.8890336900581
0.1001001001001001,7.296861350043329,-1.1328529325391266,187.86865912380063,157.77104402575506,153.22208847532966,190.1968580446432,188.44613425447696,185.0082349814401
0.1334668001334668,4.642504290845992,-1.1328529325391266,190.17614566271143,165.41234742493177,152.55865881492738,191.2767272949925,188.3266614137327,185.0098462011364
0.1668335001668335,2.7802783676840086,-1.1328529325391266,191.9864019052796,171.33385847417264,152.0327435726125,192.12121565473785,188.2717596251327,184.90538427178285
0.2002002002002002,1.6581435080132003,-1.1328529325391266,193.3427339776247,175.66815040230156,151.63667174376044,192.74935088569927,188.27669891102576,184.7063661160157
0.2335669002335669,1.2240596392893792,-1.1328529325391266,194.2884480058668,178.5477964381425,151.3627723237466,193.18016074969705,188.33674929376056,184.4243086564709
0.2669336002669336,1.2240596392893792,-5.9448342287076095,194.8668501161256,180.10536981051942,151.20337430794646,193.43267300855123,188.44718079568585,184.0707288157846
0.3003003003003003,1.2240596392893792,-9.00067696678028,195.12124643452103,180.47344374825624,151.1508066917354,193.5259154240821,188.6032634391504,183.65714351659275
0.333667000333667,1.2240596392893792,-10.427657873121614,195.0949430871729,179.7845914801768,151.19739847048885,193.47891575810965,188.8002672465028,183.1950696815313
0.3670337003670337,1.2240596392893792,-10.353053674096085,194.83124620020115,178.17138623510516,151.33547863958222,193.3107017724542,189.03346224009192,182.69602423323656
0.4004004004004004,1.2240596392893792,-8.904141096068184,194.3734618997256,175.76640124186525,151.55737619439097,193.04030122893585,189.29811844226643,182.1715240943444
0.4337671004337671,1.2240596392893792,-6.208196865402368,193.7648963118659,172.70220972928098,151.85542013029047,192.6867418893748,189.58950587537507,181.6330861874908
0.4671338004671338,1.2240596392893792,-2.3924977084631465,193.0488555627421,169.1113849261763,152.2219394426562,192.26905151559112,189.9028945617665,181.092227435312
0.5005005005005005,1.2240596392893792,2.415679648385048,192.26864577847408,165.1265000613751,152.64926312686353,191.80625786940504,190.2335545237896,180.56046476044384
0.5338672005338673,1.2240596392893792,2.415679648385048,191.4675730851816,160.88012836370137,153.12972017828793,191.3173887126368,190.57675578379292,180.04931508552255
0.5672339005672339,1.2240596392893792,2.415679648385048,190.68894360898605,156.5048430619803,153.655639592306,190.821471807108,190.92776836412693,179.5702953331855
0.6006006006006006,1.2240596392893792,2.415679648385048,191.60438581720828,155.44986486766535,154.37105864740164,190.75209730247755,191.16390122878047,178.78706162751703
0.6339673006339673,1.2240596392893792,2.415679648385048,192.51195449324223,154.3718512287191,154.59152132491633,190.67492735265705,191.688651527514,178.23655723041944
0.6673340006673341,1.425986688968358,2.415679648385048,194.6064072937862,153.60266015716837,154.92673172035944,190.6633044561392,192.41129948828703,177.76454693407754
0.7007007007007008,2.211884584505956,2.415679648385048,196.00248977362523,153.0357519004234,155.14074445370767,190.66128673937968,193.0711781602737,177.38883189167248
0.7340674007340674,3.5297132533579862,8.089058478777705,197.54553572161,151.2896946187588,155.3985184693494,190.87893035415507,193.647151779678,177.07718575633064
0.7674341007674341,5.327432622980268,14.500362056350369,198.3029778857368,149.60033164815974,155.73318486864764,191.17229271467184,193.6499690792244,177.2175805512514
0.8008008008008008,7.5530026208286,21.522313654738564,196.9538856500193,145.74049717626872,159.27924526967504,191.5142083900143,194.6145473872332,177.469965354172
0.8341675008341676,10.154383174358813,29.027636547577764,196.3428362579585,143.79023835289837,159.47538173115703,192.20609148951783,194.6286843945623,177.73824545937396
0.8675342008675342,13.079534211026733,36.889054008503535,195.5585405365817,142.4514913825305,161.75549107966157,193.0712581314017,191.76828860181308,178.63359784230076
0.9009009009009008,16.276415658288155,44.97928931115156,194.96617751943825,141.3267066375487,161.520150409748,193.4207283991842,191.5767821072052,180.3307311765414
0.9342676009342676,19.69298744359889,54.92924568923347,194.52019422995863,140.98751116482975,167.0274782867241,193.19586621088044,192.20487159544143,182.49526257899248
0.9676343009676344,23.27720949441475,63.41718712324929,193.12604539837025,140.98561665333395,168.93219154196936,192.861776267873,196.1962732157387,184.6111432541032
1.001001001001001,27.978912846202235,70.65745128540853,191.960996716378,141.77342119781298,171.75430320363282,192.45484775913047,196.43275560507533,186.68103318321977
1.0343677010343677,32.183271950387585,76.1265926269512,191.2886446659644,142.74971120876685,168.32860416320312,191.9087221422193,198.0905817619093,188.8016419759267
1.0677344010677343,35.50613754295375,79.64433194430705,190.9086338014822,144.35600788473894,163.84003911481113,191.1744277337476,195.9599757879892,191.06630633490155
1.1011011011011012,38.1447739550746,81.94461082561207,190.77058571856188,146.83102772572568,159.63302437024132,190.27218898580617,193.4792852967997,193.42217952645288
1.1344678011344678,40.211465370383046,82.9336056480601,190.71528605868005,150.06395245902775,156.07893746765322,189.27813526218253,195.63467839057324,195.82631474762889
1.1678345011678346,41.55991672013831,83.60761338772127,190.792182335702,154.80239327007797,152.4428719031081,188.2523980697225,191.0936762685693,198.23387037259764
1.2012012012012012,42.9721379519429,83.02537218672599,190.6481229001309,159.92439970671256,149.19922385399886,187.2049611592373,186.545570068414,200.59032167410493
1.234567901234568,43.65896387617246,82.72137483117126,188.7295301307484,164.2427058969073,144.99846580319328,185.62423001235376,183.94221564727133,203.620531404172
1.267934601267935,42.40143642415524,82.30474627150397,186.7349815795943,168.53687205760082,140.9065803990059,184.01057146699503,181.1745055376909,206.56457996277047
1.3013013013013013,42.70468088713572,82.63162213372468,184.70661662749453,172.73774571898514,137.03072650503637,182.39269586688772,178.2638944128956,209.37186890559352
1.334668001334668,43.57742052882276,83.3903326743449,182.6865746552768,176.7761744112536,133.47806298488564,180.79931355576,175.23183694611004,211.9917997883354
1.3680347013680347,44.5489960260774,84.76418071452012,180.7169950437685,180.5830056645993,130.3557487021546,179.2591348773397,172.09978781055875,214.3737741666908
1.4014014014014016,45.98103266530444,86.64864439953413,178.84001717379732,184.0890870092157,127.77094252044412,177.8008701753551,168.88920167946628,216.4671935963539
1.4347681014347682,47.88996799674824,89.16527904639382,177.09778042619087,187.225265975296,125.83080330335504,176.45322979353426,165.6215332260572,218.2214596330194
1.4681348014681348,50.38244024287219,92.13633970743776,175.53242418177666,189.9223900930333,124.64248991448832,175.24492407560527,162.31823712355612,219.58597383238163
1.5015015015015016,53.373349856022514,95.23525926489252,174.18608782138233,192.11130689262097,124.31316121744484,174.20466336529623,159.00076804518747,220.51013775013524
1.5348682015348682,57.20618053912477,98.9452909872694,173.1009107258354,193.72286390425228,124.9499760758255,173.3611580063352,155.69058066417594,220.94335294197447
1.5682349015682349,61.68601936637814,100.43242418772658,172.3190322759635,194.6879086581205,126.66009335323108,172.7431183424503,152.40912965374602,220.835020963594
1.6016016016016017,66.92089745982398,102.39003574253424,171.8825918525942,194.9372886844188,129.5506719132626,172.37925471736963,149.17786968712227,220.13454337068825
1.6349683016349683,71.29679926155293,104.91635834169362,171.83372883655508,194.4018515133405,133.72887061952093,172.29827747482125,146.01825543752926,218.7913217189516
1.6683350016683351,76.08339142866528,108.10962467520628,172.21458260867374,193.0124446750788,139.3018483356069,172.52889695853327,142.95174157819156,216.7547575640785
1.7017017017017018,81.30097185323733,112.06806743307386,173.06729254977773,190.69991569982696,146.37676392512137,173.0998235122338,139.9997827823337,213.9742524617635
1.7350684017350684,86.96983842734545,116.88991930529797,174.43399804069466,187.39511211777835,155.0607762516653,174.0397674796509,137.18383372318027,210.3992079677011
1.7684351017684352,93.110289043066,122.67341298188012,176.3568384622521,183.02888145912604,165.46104417883956,175.37743920451268,134.52534907395574,205.9790256375857
