Time,Left Shoulder Angle,Right Shoulder Angle,Left Elbow Angle,Right Elbow Angle,Left Hip Angle,Right Hip Angle,Left Knee Angle,Right Knee Angle
0.0,1.8955313429176543,5.743016179703636,190.8927337207096,182.4602715747264,160.51880150800903,199.7641122743547,184.49011366413453,178.6840693222367
0.0333667000333667,1.7540637566421031,5.614725752329375,186.82948279671075,181.1410881193709,160.73712406429664,200.2671111037876,184.58351196188144,178.6443758250861
0.0667334000667334,1.608438629256839,5.520689940386463,183.5278598236587,180.1503535644204,160.96956188604838,200.71754719404612,184.64270680367804,178.60985076545515
0.1001001001001001,1.4616503485252834,5.458510605189269,180.92741330830964,179.45931563033648,161.21392075948214,201.11813836112168,184.6699033057073,178.57897807486844
0.1334668001334668,1.3166933022108585,5.425789608052164,178.9676917574198,179.03922203758106,161.46800647081574,201.4716024210055,184.66730658415224,178.55024168485053
0.1668335001668335,1.176561878076985,5.420128810289521,177.58824367774537,178.86132050661578,161.7296248062671,201.78065718968887,184.6371217551958,178.52212552692595
0.2002002002002002,1.0442504638870855,5.420128810289521,176.7286175760426,178.89685875790246,161.9965815520541,202.04802048316336,184.58155393502105,178.49311353261928
0.2335669002335669,0.9227534474045812,5.420128810289521,176.32836195906768,179.11708451190276,162.26668249439456,202.2764101174201,184.50280823981083,178.46168963345508
0.2669336002669336,0.8150652163928938,5.420128810289521,176.32702533357687,179.49324548907845,162.53773341950637,202.46854390845056,184.40308978574825,178.4263377609579
0.3003003003003003,0.7241801586154446,5.420128810289521,176.66415620632637,179.99658940989124,162.8075401136074,202.627139672246,184.28460368901617,178.38554184665227
0.333667000333667,0.6530926618356554,5.420128810289521,177.27930308407238,180.5983639948029,163.0739083629155,202.7549152247977,184.14955506579764,178.33778582206278
0.3670337003670337,0.6047971138169481,5.420128810289521,178.11201447357115,181.26981696427512,163.33464395364854,202.85458838209712,184.0001490322757,178.281553618714
0.4004004004004004,0.5822879023227441,5.420128810289521,179.10183888157889,181.9821960387697,163.5875526720244,202.9288769601356,183.8385907046332,178.2153291681305
0.4337671004337671,0.5822879023227441,5.420128810289521,180.18832481485185,182.70674893874832,163.83044030426095,202.9804987749043,183.6670851990532,178.1375964018368
0.4671338004671338,0.5822879023227441,5.420128810289521,181.3110207801462,183.41472338467275,164.06111263657607,203.01217164239475,183.4878376317185,178.04683925135743
0.5005005005005005,0.5822879023227441,5.420128810289521,182.4094752842182,184.07736709700472,164.2773754551876,203.02661337859823,183.3030531188124,177.94154164821703
0.5338672005338673,0.5822879023227441,5.420128810289521,183.42323683382403,184.66592779620595,164.47703454631343,203.02654179950608,183.1149367765177,177.82018752394015
0.5672339005672339,0.5822879023227441,5.420128810289521,184.2918539357217,185.15165320273985,164.65789569617272,203.01467472111128,182.9256937210188,177.68126081005275
0.6006006006006006,0.5885594151164648,5.420128810289521,181.94305544494333,183.93148510048124,164.8469581983823,203.09176889857565,182.7186961503227,177.42987692319224
0.6339673006339673,0.6266060399615323,5.420128810289521,179.63735740015176,182.83810893011085,165.0114665403456,203.11577018305624,182.52290355368592,177.16283500286843
0.6673340006673341,0.6994221646213674,5.420128810289521,177.51004591086183,181.7059928898849,165.0892377420051,203.07728714682256,182.36985870507405,176.89093267631986
0.7007007007007008,0.6994221646213674,5.420128810289521,175.58092743849275,180.54024278509007,165.06934231160795,202.97824581865933,182.25424052422568,176.6731778599698
0.7340674007340674,0.6994221646213674,5.420128810289521,173.8168261737462,179.4837571274175,165.00892827781217,202.9208246055483,182.14413648569712,176.45019980190548
0.7674341007674341,0.8100021768593928,5.420128810289521,172.19192048716434,178.47032900269792,164.9339855464908,202.9245804346727,182.0405489809692,176.16620108804156
0.8008008008008008,0.8100021768593928,5.420128810289521,170.7621809047986,177.5690600048497,164.87077998727366,202.9614353493076,181.91041824216964,175.84073392717627
0.8341675008341676,0.8100021768593928,5.420128810289521,169.59918416280297,176.8296237040776,164.7961424484091,203.010033243508,181.7701131727748,175.47618508208
0.8675342008675342,0.8100021768593928,5.420128810289521,168.5891286281253,176.3005517839419,164.69578971648662,203.0687888247405,181.65100804736943,175.091982228391
0.9009009009009008,0.9613404644390164,5.420128810289521,167.63124121413324,175.87396014937434,164.55618573955223,203.1157010572481,181.56271080955167,174.70069188195262
0.9342676009342676,0.9613404644390164,5.420128810289521,166.8591212552593,175.5777559335382,164.38560308079494,203.1568637506085,181.52188021156184,174.31482610177073
0.9676343009676344,0.9613404644390164,5.420128810289521,166.33869486210477,175.39317556117456,164.19626742723398,203.1814672918713,181.52365187439312,173.93996729048496
1.001001001001001,0.9613404644390164,5.420128810289521,166.0732808620874,175.24675965612164,164.0022335152705,203.2045614912983,181.55929749606827,173.5675052537688
1.0343677010343677,0.9613404644390164,5.420128810289521,166.1802447737629,175.29154989557136,163.791060253224,203.20780634481545,181.62366745875744,173.2224321959402
1.0677344010677343,1.1658289750694464,5.420128810289521,166.48705932558417,175.4139890984691,163.58934015841206,203.193693211226,181.69865824024336,172.91846931771988
1.1011011011011012,1.1658289750694464,5.420128810289521,166.76308749952287,175.17666078720822,163.40387237249743,203.18559994586485,181.7729515940109,172.637892917503
1.1344678011344678,1.1658289750694464,5.420128810289521,166.8614609467404,174.91441999732228,163.2332800763013,203.18764097314607,181.85301467614644,172.3914525995736
1.1678345011678346,1.1658289750694464,5.420128810289521,170.65634055236947,178.48206467701073,163.0614242170757,203.20944517825663,181.9580806821365,172.1900739732955
1.2012012012012012,1.1658289750694464,5.420128810289521,174.18974532600615,181.35405051441745,162.9246612461083,203.24970701947643,182.05271752194392,172.0279685826575
1.234567901234568,1.1658289750694464,5.420128810289521,175.94517014462525,183.14192279556727,162.80096192569636,203.32196128743195,182.13324541978804,171.8972730854576
1.267934601267935,1.1658289750694464,5.420128810289521,177.05872327494697,184.09767082699747,162.69317352761462,203.41403402035667,182.2013727889088,171.7455396959067
1.3013013013013013,1.1658289750694464,5.420128810289521,177.39547097654463,183.49237828000315,162.6223486498092,203.5595064247802,182.2464112743968,171.59613381717804
1.334668001334668,1.1658289750694464,5.420128810289521,177.33920198372573,181.9655994731245,162.6018209356457,203.7065468618596,182.27097919704497,171.46155288978906
1.3680347013680347,1.5331134493655407,5.420128810289521,173.75335300588745,179.48071165290406,162.65037286989678,203.8405628236225,182.25831497234392,171.34925663509668
1.4014014014014016,1.5331134493655407,5.420128810289521,171.2715093493044,174.70284553734865,162.75488796828566,203.9302317294465,182.2189331709328,171.2547906085114
1.4347681014347682,1.5331134493655407,5.420128810289521,169.68239962158987,168.8816689701806,162.89831090699275,203.9939419994372,182.1646417950076,171.18813713957178
1.4681348014681348,1.5331134493655407,5.420128810289521,168.73660466149093,164.37205494450797,163.09979429283916,204.0145110381286,182.07316485871385,171.1613146997319
1.5015015015015016,1.5331134493655407,5.420128810289521,167.93903326503667,161.11437511923808,163.3740334344262,203.9999639303417,181.92507871855537,171.1735722831452
1.5348682015348682,1.5331134493655407,5.420128810289521,167.70680041943774,158.80110336119782,163.70416164281255,203.96571335970805,181.75118611756253,171.2037552401055
1.5682349015682349,1.5331134493655407,5.420128810289521,168.51899396528466,162.24279977154154,164.0333981833656,203.938887653344,181.60346119685303,171.2626441967004
1.6016016016016017,1.5331134493655407,5.420128810289521,169.81479029250804,165.4121598341014,164.3966245601325,203.9157190876225,181.42879750494177,171.33753802008184
1.6349683016349683,1.5331134493655407,5.420128810289521,171.61940091056124,167.89268231210949,164.79068348945717,203.9150120907527,181.2169391084188,171.42460016539465
1.6683350016683351,1.5331134493655407,5.420128810289521,168.25996168184895,166.84367644258091,165.20650248040943,203.95013113202657,180.979621753532,171.4012182842782
1.7017017017017018,1.5331134493655407,5.420128810289521,167.1042187062688,163.82445314487006,165.66407240007317,203.97853829932808,180.70350568795607,171.32441809682456
1.7350684017350684,1.5331134493655407,5.420128810289521,170.0521804254261,163.20887454765852,166.15943577437045,203.9758407352833,180.39132750717505,171.28440965725756
1.7684351017684352,1.5331134493655407,5.420128810289521,171.10079338214072,161.3182799411031,166.68666691704155,203.98419080226927,180.04827280459577,171.25860400649796
1.8018018018018016,2.01631049236761,5.420128810289521,171.45498647534248,158.60989669097808,167.21215572937228,203.98892566977955,179.68818714089338,171.2356756404624
1.8351685018351689,2.01631049236761,5.420128810289521,171.36056676567455,155.05895279968067,167.7308212448708,203.950773712434,179.32747266042526,171.2495237556015
1.8685352018685355,2.01631049236761,5.420128810289521,167.6681984658211,151.28396431708236,168.26697155473306,203.92243244236656,178.9487509330542,171.19786461135203
1.901901901901902,2.01631049236761,5.420128810289521,166.92522489343796,146.2315323429265,168.8209829903159,203.87198238890844,178.55144533820751,171.10577984496572
1.9352686019352687,2.01631049236761,5.420128810289521,166.41361211683474,141.43762673290976,169.3722160752497,203.7404711395432,178.13544243641033,171.0364702470974
1.968635301968636,2.01631049236761,5.420128810289521,165.69787607825205,137.17896493572582,169.90643310103192,203.5780043510029,177.6989094455371,170.9754700410304
2.002002002002002,2.01631049236761,5.420128810289521,164.77636414063724,133.26310277405298,170.4307062692569,203.40165221282268,177.24949514764575,170.9154836092111
2.035368702035369,2.01631049236761,5.420128810289521,165.0903771816511,129.4424609971991,170.93291413068823,203.1683856788005,176.78999966814297,170.85894481071105
2.0687354020687354,2.01631049236761,5.420128810289521,165.67593124409166,126.20374656745402,171.42521034617678,202.9065868252435,176.34690058539516,170.79211221705208
2.1021021021021022,2.01631049236761,5.420128810289521,166.3697659568516,123.4944715865146,171.9000675314078,202.6158516292648,175.91550183508164,170.7135412263589
2.135468802135469,2.01631049236761,5.420128810289521,167.39900996384665,121.44130420992605,172.35175499549658,202.311885529974,175.50672412709363,170.62213721784082
2.1688355021688355,2.01631049236761,5.420128810289521,168.0146760774692,120.18473722066727,172.7971054684803,201.98396217172004,175.15991243579515,170.53023517570148
2.2022022022022023,2.01631049236761,5.420128810289521,168.4167486431368,119.49112185311624,173.211744808475,201.69585387141936,174.8630401915504,170.40080628383078
2.235568902235569,2.01631049236761,5.420128810289521,168.8927452894034,119.43479623314276,173.55120978395183,201.43194456294412,174.62415207597192,170.26229763244095
2.2689356022689355,2.520959428592084,5.420128810289521,169.45779042119867,120.59778815526008,173.8250155544177,201.19841807504432,174.4165316946917,170.10668018460373
2.3023023023023024,2.520959428592084,5.420128810289521,172.59473903142288,123.39027045385212,174.02915197163676,200.9919406787846,174.22847253757794,169.944745590363
2.335669002335669,2.520959428592084,5.420128810289521,167.28842500230482,122.32425410595424,174.20082996749258,200.8040442498109,174.00272701372273,169.77735419326737
2.369035702369036,2.520959428592084,5.420128810289521,160.79269781753422,120.4779099357368,174.23153638924288,200.61160556571312,173.76452635094776,169.66378522835362
2.4024024024024024,2.520959428592084,5.420128810289521,153.66326684248187,118.1332090622205,174.265975631297,200.4183400334888,173.5019826154656,169.5713965296856
2.4357691024357693,2.520959428592084,5.420128810289521,144.2500691978529,117.03829201049564,174.22054505092527,200.39520985099955,173.2272636626191,169.46483064893383
2.469135802469136,2.520959428592084,5.420128810289521,134.91090317757715,115.15867887973118,174.19761995643384,200.36074102761248,172.9265280581231,169.3313870782003
2.5025025025025025,2.520959428592084,5.420128810289521,125.8429885229974,113.36036831140302,174.28112478699802,200.2910952506932,172.61414187614247,169.1721283943199
2.5358692025358693,2.520959428592084,5.420128810289521,120.22609240988788,111.15455559065128,174.4651429609361,200.2251949340352,172.31044126144323,168.98812018852848
2.569235902569236,2.520959428592084,5.420128810289521,117.62736681298028,111.4196321145096,174.58705664848642,200.18936062994013,171.9962768365823,168.7728288716414
2.6026026026026026,2.520959428592084,5.420128810289521,113.5469560881419,115.96409638961508,174.69575603258403,200.1947951318774,171.6829448097745,168.5192177306536
2.6359693026359694,2.520959428592084,5.420128810289521,109.97147774337824,117.2992660598822,174.79899791303035,200.30515993988408,171.39776639191328,168.26201027055748
2.669336002669336,2.520959428592084,5.420128810289521,107.59514067809828,120.02411942090082,174.8666713830295,200.4287654125941,171.12449137481343,168.00488520325007
2.702702702702702,2.520959428592084,5.420128810289521,106.20269672482355,124.81934856617372,174.98766960641754,200.5089521928434,170.8515213025574,167.73220141228157
2.736069402736069,2.520959428592084,5.420128810289521,105.36343830280352,125.8183791378552,175.17665868193183,200.54708829459207,170.51966474580382,167.43114489884348
2.7694361027694363,2.520959428592084,5.420128810289521,105.82187625906468,128.24040948138986,175.4075759032184,200.578381126198,170.15719111541756,167.10391641914754
2.802802802802803,3.064021001766063,5.420128810289521,106.10158087808924,130.8998839889278,175.74724801704087,200.46145123197303,169.86830898939186,166.6255161996686
2.836169502836169,3.064021001766063,5.420128810289521,107.40511589117187,133.6556492738566,176.08787031547632,200.39836566385904,169.546749563261,166.16074713434045
2.8695362028695364,3.064021001766063,5.420128810289521,104.59378610436072,135.34967624093233,176.42882672849845,200.38382502235524,169.18004109502624,165.71403920029476
2.902902902902903,3.064021001766063,5.420128810289521,101.28251386177342,136.2473341553664,176.75137562586448,200.4031557239392,168.76289014154185,165.3049615460484
2.9362696029362696,3.064021001766063,5.420128810289521,100.0362066737612,137.30717703440664,177.05225892915558,200.4242765392168,168.30161748191236,164.93956407825334
2.9696363029696364,3.064021001766063,5.420128810289521,99.55395646449306,138.1387164164752,177.3301576973284,200.44983382177665,167.79742668360322,164.62326501370745
3.003003003003004,3.064021001766063,5.420128810289521,99.02578318578878,138.81203236414686,177.60893314372586,200.4855437769688,167.22596520075768,164.33289215792405
3.0363697030363697,3.064021001766063,5.420128810289521,103.4204870324062,139.07627589997725,177.87112476233142,200.50104911762892,166.61170368223648,164.09037715662208
3.0697364030697365,3.064021001766063,5.420128810289521,106.0012584321774,140.41159497045282,178.11137802356686,200.50943640231625,165.9625114547018,163.9098347655515
3.103103103103104,3.064021001766063,5.420128810289521,109.03390078782058,141.66328858539984,178.32474759399068,200.51932628138863,165.303286459027,163.77630668473972
3.1364698031364697,3.064021001766063,5.420128810289521,113.60762966774108,142.7893117996811,178.5223687233262,200.51858958597208,164.6538543823986,163.6637552659643
3.169836503169837,3.064021001766063,5.420128810289521,118.98750704591473,143.9945432836549,178.71908538361993,200.4812167267294,163.99954505983,163.59529614071883
3.2032032032032034,3.064021001766063,5.420128810289521,123.8905626489006,145.83705926030856,178.89169793160104,200.4659522684485,163.3579391906893,163.58131434910186
3.2365699032365702,3.064021001766063,5.420128810289521,128.90145983742144,147.75472571300332,179.0328211253424,200.4479550618824,162.71965751318456,163.61003086380904
3.2699366032699366,3.064021001766063,5.420128810289521,133.82516728518618,149.42138311700447,179.14382608867672,200.3682172214803,162.0948898600469,163.70756931866964
3.3033033033033035,3.064021001766063,5.420128810289521,138.59189967588827,151.12023532111056,179.2305470605646,200.2671668851694,161.47958278915758,163.85521166203205
3.3366700033366703,3.596763464939184,5.420128810289521,149.4981075237329,153.22638206288988,179.2570612817401,200.1827819035099,160.84045503817188,164.04091681157294
3.4034034034034035,3.596763464939184,5.420128810289521,157.39412400390643,155.22847763523802,179.21851938609862,200.08074628340304,160.19249100388987,164.28911520073984
3.4367701034367704,3.596763464939184,5.420128810289521,164.20831351323147,158.42020244911953,179.17377856142247,199.9730541518337,159.50813876207403,164.56647959111825
3.4701368034701368,3.596763464939184,5.420128810289521,168.61391624418783,159.82671057640746,179.10357294511985,199.83228726348497,158.8171972976347,164.8996634525129
3.503503503503504,3.596763464939184,5.420128810289521,165.70979354347944,160.13358517212075,179.001198906326,199.68872132680443,158.08223475214658,165.32000941975318
3.5368702035368704,3.596763464939184,5.420128810289521,165.0198242795269,159.25814144386308,178.85963598862295,199.5209822202052,157.34620773393985,165.78558416646993
3.5702369035702373,3.596763464939184,5.420128810289521,161.03985208805747,158.0286865395129,178.79273240850117,199.4253134623209,156.61345392802497,166.1964052643595
3.603603603603604,3.596763464939184,5.420128810289521,157.5997598880408,156.48039237214107,178.7512832235178,199.4129006973231,155.89909668086904,166.5453577974678
3.6369703036369705,3.596763464939184,5.420128810289521,156.51106915912845,152.43422817572144,178.85706774977598,199.2465910752404,155.20798871302696,166.8712915276783
3.670337003670337,3.596763464939184,5.420128810289521,156.01174302063828,149.43825524342805,179.02966470509543,199.054382637242,154.57372834831537,167.15419886676176
3.703703703703704,3.596763464939184,5.420128810289521,155.32267402045284,144.36824082217328,179.14767047029915,198.88591107860407,154.0052671140658,167.38536080180867
3.737070403737071,3.596763464939184,5.420128810289521,155.70817183947122,139.88976847084209,179.1771228207868,198.7711276171284,153.5015278474296,167.54797884814556
3.770437103770437,3.596763464939184,5.420128810289521,153.69606110752838,139.9358473069707,179.2222454314732,198.7507768330157,153.08118843857142,167.62667968842086
3.803803803803804,3.596763464939184,5.420128810289521,152.7059988993716,135.6612226022812,179.3283535637628,198.7319543980623,152.75814493716035,167.6540518814003
3.8371705038371706,3.596763464939184,5.420128810289521,153.80104270007226,133.37711705077317,179.5811614598849,198.5733147419704,152.48086025922996,167.59633201784067
3.8705372038705375,3.596763464939184,5.420128810289521,155.2287372933072,132.47683511991815,179.93610931771914,198.3539716061141,152.30960331544523,167.45462531933782
3.903903903903904,4.159236600606631,5.420128810289521,155.4661109202155,132.86222006726308,180.2900357473468,198.1436224398896,152.1361946498412,167.17341547257482
3.937270603937271,4.159236600606631,5.420128810289521,153.881274104319,133.7089747868516,180.61201180133145,197.9557599245516,152.10713485638536,166.80873668364424
3.9706373039706375,4.159236600606631,5.420128810289521,145.00785730799544,132.92639191081597,180.9100450344848,197.68442021797256,152.1251015226276,166.42979400814755
