Time,Left Shoulder Angle,Right Shoulder Angle,Left Elbow Angle,Right Elbow Angle,Left Hip Angle,Right Hip Angle,Left Knee Angle,Right Knee Angle
0.0,68.36182624158573,36.86626445099826,185.36865585654544,170.7700352757599,139.43377539199597,136.60649396012792,198.8861131363376,202.2607467693085
0.0333667000333667,61.2431683466499,36.72452962518663,181.32463407297988,170.61614005574552,139.56891102256267,136.87148536074028,198.83820233625696,202.29362993329164
0.0667334000667334,54.88698486987817,36.5750382408266,177.68962896565375,170.45862100999227,139.6680512194712,137.11286152778115,198.8311782411081,202.31552277920773
0.1001001001001001,49.25271974041,36.41867873656952,174.4441887109988,170.2984890435257,139.73393838325475,137.33160849833024,198.86180837100025,202.3273530887985
0.1334668001334668,44.29981688738485,36.256339551066766,171.56886148544672,170.13675506137122,139.76931491444645,137.5287123094673,198.9268602460424,202.3300486438055
0.1668335001668335,39.98772023994219,36.088909122969696,169.04419546542923,169.9744299685543,139.77692321357944,137.705158998272,199.0231013863439,202.3245372259704
0.2002002002002002,36.27587372722151,35.91727589092968,166.85073882737817,169.8125246701004,139.7595056811869,137.86193460182406,199.14729931201384,202.3117466170348
0.2335669002335669,33.12372127836224,35.742328293598085,164.9690397477251,169.652050071035,139.71980471780205,138.0000251572032,199.29622154316132,202.29260459874027
0.2669336002669336,30.49070682250388,35.56495476962628,163.37964640290187,169.4940170763836,139.660562723958,138.12041670148915,199.4666355998957,202.26803895282853
0.3003003003003003,28.336274288785862,35.38604375766562,162.06310696934014,169.3394365911716,139.5845221001879,138.22409527176157,199.655309002326,202.2389774610412
0.333667000333667,26.619867606347704,35.20648369636748,160.99996962347166,169.18931952042445,139.49442524702496,138.31204690510026,199.85900927056133,202.2063479051199
0.3670337003670337,25.300930704328827,35.02716302438322,160.17078254172816,169.0446767691677,139.39301456500232,138.38525763858485,200.074503924711,202.17107806680625
0.4004004004004004,24.33890751186873,34.84897018036421,159.55609390054138,168.90651924242673,139.28303245465312,138.44471350929507,200.2985604848841,202.13409572784184
0.4337671004337671,23.69324195810685,34.67279360296182,159.13645187634302,168.77585784522705,139.1672213165106,138.49140055431067,200.5279464711898,202.0963286699684
0.4671338004671338,23.32337797218267,34.499521730827404,158.89240464556482,168.65370348259412,139.0483235511078,138.52630481071134,200.75942940373733,202.0587046749274
0.5005005005005005,23.188759483235657,34.33004300261234,158.80450038463852,168.5410670595534,138.92908155897803,138.55041231557678,200.98977680263576,202.02215152446064
0.5338672005338673,23.24883042040529,34.165245856967985,158.85328726999583,168.43895948113033,138.81223774065433,138.5647091059867,201.2157561879944,201.98759700030965
0.5672339005672339,23.4630347128314,34.00601873254599,159.01931347806985,168.34839165235186,138.70053449667105,138.57018121902203,201.4341350799238,201.9559688842177
0.6006006006006006,25.97439675585513,33.87724461804759,160.45423906731077,168.3455729585288,138.5798532823746,138.54579341807036,201.582318506816,201.9483048223437
0.6339673006339673,25.194775589199388,33.74019080741255,160.66752214493934,168.29587058184896,138.5145825631798,138.51183483688263,201.7018145736678,201.9457976654532
0.6673340006673341,24.24229721052553,33.61350408910591,160.9543661043033,168.243431264866,138.4821581765588,138.48293242927437,201.8123461244745,201.95716093178245
0.7007007007007008,23.29330854561496,33.4901654859077,161.29703148579165,168.18567819356306,138.4694604162672,138.4413261089395,201.90294132185684,201.97252206286865
0.7340674007340674,22.30304460660354,33.37555010887698,161.88053132159928,168.15036521224047,138.48817022403674,138.40140192203418,201.9745257308095,201.98919261716367
0.7674341007674341,22.426177850845253,33.254186618963146,159.6770802831375,168.0980588905854,138.53937844615834,138.35931038222404,202.03117019732807,202.0081308308168
0.8008008008008008,22.251631220219817,33.139178209372126,159.88435699447473,168.0558570242356,138.6152415760043,138.3228471117722,202.0712956514128,202.03159962587932
0.8341675008341676,21.98409413808135,33.037825573152475,160.3197977513988,168.03497272009315,138.70837428759205,138.29821593261974,202.09698287205848,202.0584906494146
0.8675342008675342,21.542588501225566,32.948438301954816,160.26421402601792,168.03861580319744,138.81869836085536,138.2911913199708,202.0957338665289,202.08571073650663
0.9009009009009008,21.30469423558264,32.87602071709681,160.5579625917041,168.09946760309614,138.94167554955186,138.3210418840525,202.05346493411017,202.1086286105128
0.9342676009342676,20.998969806501385,32.837400714733846,160.6699024053318,168.24360089324043,139.06336527182907,138.3818992319522,202.00333533166875,202.1285001564606
0.9676343009676344,20.75669753547352,32.82326706363936,160.77869327093634,168.4563990728625,139.17953149273396,138.46455398301185,201.9530292319208,202.15371388089483
1.001001001001001,20.59076503170437,32.838434782795666,161.03449124965368,168.72724077007865,139.2891978629981,138.5669141996939,201.89773138462928,202.17659344313512
1.0343677010343677,20.53009735378975,32.89069112580091,161.49327557327908,169.07594792978415,139.40098745121227,138.68529851178383,201.8387704395472,202.1952422479026
1.0677344010677343,20.43099283371252,32.97229852600227,161.82065149717047,169.49860468857307,139.4908691814402,138.81103925613465,201.80636672652145,202.2147547483769
1.1011011011011012,20.43692482786006,33.09165720839903,162.2780465977128,169.98759040773126,139.57520731102878,138.92967807582718,201.8131697690003,202.22928045419152
1.1344678011344678,20.5330063417568,33.20215698133674,162.81222250499093,170.48759495951697,139.60674055951537,139.05595948974886,201.87264306369013,202.2447920978765
1.1678345011678346,20.729668134531167,33.27857846139651,163.41151535479514,170.9543419424265,139.5996890310997,139.20693782141817,201.95423179395857,202.25304465312303
1.2012012012012012,21.02938179133356,33.34287162510715,164.08237592543568,171.42460502670454,139.55927267645063,139.37183641214838,202.0498393932212,202.255486122568
1.234567901234568,21.40513905025457,33.40313663318477,164.76820697498104,171.89410840543627,139.49661339837385,139.5541628705053,202.16620339128195,202.24615917711225
1.267934601267935,21.856904331617653,33.4719322271636,165.4705083126088,172.40416703554212,139.42983348525064,139.7496079565175,202.30518719837417,202.2169673600133
1.3013013013013013,22.30665462206693,33.523152491486904,166.0361079681042,172.8920998121156,139.32777413504147,139.9542601347624,202.4638230282282,202.182579308061
1.334668001334668,22.75672085224352,33.57763017924809,166.4823672050693,173.40355668622897,139.2047892744529,140.16664197126028,202.6539222760024,202.13934980596235
1.3680347013680347,23.215453817655423,33.60480159954182,166.80258185520177,173.83094257756824,139.08692903384264,140.37756544108734,202.85306549902472,202.08068662481944
1.4014014014014016,23.67911765668125,33.607905922629946,166.99764156604363,174.228595506065,138.9362278755752,140.5892562556794,203.0762599688925,202.0114449531196
1.4347681014347682,24.158587095932862,33.57345438152193,167.07220737125857,174.5915314653286,138.7528770768852,140.8067468044367,203.3023061022037,201.9355179657203
1.4681348014681348,24.646014681568044,33.50410275168043,167.39407998320263,174.91034528959628,138.51335404976015,141.01376397259892,203.5548370484477,201.86882933063853
1.5015015015015016,25.078479501988475,33.44798549389576,167.74805987512585,175.15497369845826,138.27562876548436,141.18009175046802,203.8072868817848,201.81157045896464
1.5348682015348682,25.225088223258744,33.31135689233243,167.8554587332195,175.25300017135652,138.01834182335722,141.34029328807094,204.0647840673463,201.76394201791567
1.5682349015682349,25.298466148846373,33.11652142750273,167.70747812084312,175.27526829984282,137.73216343393685,141.478126292566,204.30611920707324,201.7323313485333
1.6016016016016017,25.37967110269232,32.84149175019419,167.46027934986208,175.18217471053845,137.44803404540272,141.60514950679266,204.4661026806993,201.71728288999623
1.6349683016349683,25.469105265595267,32.50539309745393,167.1370168500134,174.99543873130114,137.14487468361358,141.72823199104005,204.59488053352928,201.71996059369425
1.6683350016683351,25.591732884976736,32.13680227371381,166.82429947129933,174.79019961023988,136.8265790289548,141.85175903837538,204.6742096872944,201.72984111449904
1.7017017017017018,25.62724807501328,31.719892850500763,166.93571637581425,174.5027059752026,136.53388521055533,141.97786000428286,204.6470157834452,201.74460896295983
1.7350684017350684,25.611122322876163,31.2564104472997,167.08647874516316,174.1405645271225,136.31361130591654,142.12340577673305,204.46373461239688,201.74421507279507
1.7684351017684352,25.51080643217437,30.761376843645788,166.96915716306634,173.65472189700426,136.07611279470942,142.2702213291429,204.3031434625302,201.74419463542105
1.8018018018018016,25.4122645900339,30.22748678797142,166.83415523019326,173.03798355128157,135.81338616176322,142.41271184458552,204.1623121048277,201.74352505181227
1.8351685018351689,25.3600700080768,29.642981960785274,166.69802851476535,172.27973939248196,135.56316122091593,142.5481422721164,204.036706756298,201.7475698779368
1.8685352018685355,25.401381057330667,29.02317428970374,166.66855358480856,171.43631177038725,135.32171160813942,142.68199659127106,203.9523750127917,201.75710834285323
1.901901901901902,25.50320483182456,28.427062357700105,166.6877866965454,170.64177097079835,135.09075868898594,142.8092641699934,203.8655446211441,201.78653423226
1.9352686019352687,25.62300000544188,27.86996178149837,166.70206643792147,169.97974684882075,134.85254344890657,142.94169500050344,203.81491212347672,201.83087887007883
1.968635301968636,25.75793533495704,27.256601868132808,166.75131160451,169.21677112380686,134.68767223785667,143.07278792484283,203.670374151142,201.88149057074733
2.002002002002002,25.904562200895032,26.649698454784712,166.84963353625923,168.45714655984406,134.53721514908975,143.20831420706034,203.53344607793505,201.9234688503168
2.035368702035369,26.025106797973617,25.99897913007949,167.02875085096082,167.604760387091,134.44200688129632,143.35221208147752,203.35111247876665,201.9622575700526
2.0687354020687354,26.13451889741573,25.34667392990509,167.29272611549877,166.70024618284123,134.36994504478326,143.46644072934896,203.2137991512737,202.01408721892773
2.1021021021021022,26.264315517001208,24.734973338898843,167.6475377079756,165.8294199264365,134.30119201088883,143.55532687694642,203.120055515904,202.06029441720315
2.135468802135469,26.39391047820764,24.13700503017359,168.05849282092694,164.9591734848496,134.2350994527775,143.6530980113511,203.0319864042152,202.08494063939764
2.1688355021688355,26.55778316614784,23.51055052257973,168.56834880211235,164.0769967742993,134.2014005274271,143.7587138464043,202.94001151702005,202.1028334627109
2.2022022022022023,26.737033224192068,22.876476774581093,169.19692763607654,163.23711499591923,134.20255111831497,143.88318430945674,202.84497890879064,202.11261844178657
2.235568902235569,26.91867652657949,22.23004811501509,169.94172399551047,162.40702844207837,134.26584628228838,144.01588756848585,202.77309163486865,202.10216584587337
2.2689356022689355,27.02983506788621,21.484229301845005,170.63766071377108,161.44851401839236,134.3767904716535,144.21404238050712,202.674131196874,202.05451003677288
2.3023023023023024,27.06358670982808,20.68996113029741,171.3313680553223,160.36412828325967,134.51911967184878,144.43127615125272,202.6084966475428,202.0016197132701
2.335669002335669,27.01582361030837,19.91819179931525,172.04404600252576,159.25847859008513,134.70496456417723,144.6562328993667,202.5942500396065,201.93525107261263
2.369035702369036,26.87118972032172,19.163762493438966,172.6949482104022,158.10682444947852,134.92534633694413,144.8775893461922,202.6454236060625,201.8466434597439
2.4024024024024024,26.83718000253639,18.382533640074616,173.56774423757747,156.97834594113007,135.20376923981095,145.08912978962536,202.7186507626676,201.7403830945105
2.4357691024357693,26.60745861788413,17.562495914907366,174.392807892397,155.9005525800082,135.48014087147567,145.2914237732748,202.83678663687576,201.61919395234167
2.469135802469136,26.41336548950945,16.80619983554594,175.32300177452674,154.9145012809528,135.790383906287,145.4813294421132,202.98558953862528,201.4963359817119
2.5025025025025025,26.030049230759893,16.00171707485716,176.0395815059985,153.821960176133,136.0791585636295,145.66102955452735,203.1870866799293,201.36160823088773
2.5358692025358693,25.40307194299906,15.231259642058234,176.04341176934594,152.78430358433664,136.2911369779639,145.83819995485294,203.45775650644333,201.22891608131505
2.569235902569236,24.83416341961516,14.441681529097837,176.43480157188853,151.67759033098054,136.45472017846976,146.0119356385121,203.7651603494396,201.09887223893443
2.6026026026026026,24.075680196743846,13.674821089706615,176.42834799120686,150.71903527244203,136.5528146601901,146.16911523593538,204.1326296536785,200.9745461284688
2.6359693026359694,23.0900096010929,12.893508580995183,176.07921604957497,149.81591284094966,136.640854329761,146.3122877718125,204.5143075593324,200.8491067667932
2.669336002669336,22.13796865562935,12.05493333576105,176.10802230341187,148.99828615690123,136.64430147428635,146.47831221744397,204.9189019784972,200.71863977945247
2.702702702702702,21.170398707005283,11.126819149784628,176.2526561089714,148.25484828505245,136.5854424021714,146.6354068427367,205.33156420439383,200.58877422906824
2.736069402736069,20.264311627983847,10.21396786441882,176.75574081526128,147.53253532243647,136.47196190818454,146.80600498815645,205.7367208543397,200.4486278774852
2.7694361027694363,15.072410614346678,9.3182449329463,178.2361957434616,146.99111019843025,136.30326162736856,146.9871311159856,206.1402666034796,200.28663457511988
2.802802802802803,11.145180073893895,8.362660458149632,180.54712089612005,146.40871590459955,136.0754902153023,147.17419266967295,206.5310210417857,200.1030267807656
2.836169502836169,8.534154435124684,7.5054498399445615,182.4768871048059,145.41139015358314,135.78903738120292,147.36233994501845,206.9164100451605,199.90381832883585
2.8695362028695364,7.219626365464789,6.372062151036004,183.63489672978247,144.7999371811898,135.4169617705754,147.5524458539987,207.3584877350721,199.68760611515447
2.902902902902903,6.997170205531769,5.506921686937909,184.5924528928182,144.218525627508,134.92293560478578,147.70956309368873,207.9672705085337,199.47250007043093
2.9362696029362696,6.997170205531769,4.630099166415993,185.60771884741007,143.6855285408739,134.4245019695611,147.86127016694476,208.54665087289263,199.2418287319038
2.9696363029696364,6.997170205531769,3.872101021155319,186.72826789222336,143.54090752757733,133.93540481798618,148.00056921107287,209.0935861984493,199.0044884298917
3.003003003003004,6.997170205531769,3.4101546048707894,187.7133415121432,144.23579841751862,133.42181903971206,148.12805284077322,209.6526290404613,198.7655611349927
3.0363697030363697,6.997170205531769,3.190623197700564,188.69375193071176,144.47188706560007,132.96011233799055,148.24618278552657,210.1743996521556,198.52856138061043
3.0697364030697365,7.839535000364162,3.190623197700564,189.3983182904501,144.4478963649769,132.57689734305535,148.35983847783092,210.66225078704352,198.2842599292593
3.103103103103104,9.694170356970725,3.190623197700564,188.99446313719352,144.36775091072045,132.19827437008104,148.4776530124955,211.02799655408964,198.02117235245697
3.1364698031364697,12.446277102405638,3.190623197700564,189.93962711023545,143.77163704057344,131.85338856590553,148.58540464211666,211.42082511561784,197.7521837301873
3.169836503169837,15.84963860113827,3.190623197700564,190.0776837705416,140.48100237902904,131.61328259426375,148.677840712834,211.73849092303715,197.49627239214624
3.2032032032032034,19.95586010267624,3.190623197700564,190.48347928208327,137.0589880500307,131.41049811543573,148.74064192533407,212.0830704120935,197.2593059208156
3.2365699032365702,24.860019259989087,3.190623197700564,190.8725066895444,132.30565874232664,131.24919961639895,148.80264058625767,212.39683716733225,197.021405166325
3.2699366032699366,30.518859876316007,3.02248286532182,190.5835168638205,128.52077740258335,131.16071400129567,148.86145572355855,212.6369292785535,196.7912096389589
3.3033033033033035,36.018797184577444,2.7951314111411447,190.1249622242787,124.9176635437603,131.18761147268185,148.8943065907624,212.8282845175669,196.5809481702136
3.3366700033366703,41.90344645360424,2.8975334103571404,189.63843902092032,122.42855703312254,131.29389498355278,148.93564145358036,213.0086428312077,196.38843864760457
3.3700367033700367,48.40785034365335,3.17994897923742,189.10314495242625,120.04145919976168,131.50223967533452,148.98140428791558,213.1853068308158,196.21346543619504
3.4034034034034035,54.45730065558025,3.582892096061338,188.48194168019867,118.25186352065975,131.75231275040906,149.04391586421724,213.3519542551186,196.0592089595039
3.4367701034367704,60.5229438950396,3.582892096061338,187.8397385378865,117.43411480935124,132.01807046485806,149.0778771070402,213.53906276952296,195.949918630371
3.4701368034701368,66.63529201533929,3.582892096061338,187.1807356904559,117.35982948530324,132.3282000696519,149.09532308935553,213.71740680587632,195.8611369332823
3.503503503503504,72.72280980090162,3.582892096061338,186.2776142525736,118.549178461703,132.5421986940771,149.13734689232382,213.8465938464835,195.7925637747312
3.5368702035368704,78.72771992750035,3.582892096061338,185.3886841158356,119.44786672766882,132.86309763242255,149.14921452985078,213.9620968437335,195.7517460460693
3.5702369035702373,84.62607720136111,3.582892096061338,184.50888261536883,118.6477558165269,133.24024194162843,149.1249000405434,214.11910788565265,195.73831219911267
3.603603603603604,90.35405031179502,3.582892096061338,183.4778278460645,117.93092070400802,133.6732323889506,149.10859273945763,214.3090513260302,195.77109868222405
3.6369703036369705,89.80201531569607,3.582892096061338,182.1166601451618,118.42747160601787,134.09402767707255,149.11210274868142,214.5542631831136,195.8254834559048
3.670337003670337,96.64581089429852,3.582892096061338,180.8286473535262,119.04897175801466,134.51783255916126,149.11601893702772,214.82527241188671,195.91381890906283
3.703703703703704,102.72270161400463,3.582892096061338,180.39620141998228,118.14402094047946,134.94938643810215,149.0986878593092,215.10897495456047,196.0270926337832
3.737070403737071,108.26862906736255,3.582892096061338,179.59810076889906,118.1231421716866,135.38376283864497,149.04875374498425,215.41335432685176,196.15738970926628
3.770437103770437,112.98325361189524,3.582892096061338,179.17988824957638,118.84598853601972,135.83596332371025,148.96514758428518,215.72829566694847,196.29676207586272
3.803803803803804,116.92763579101936,3.961871500436657,179.32895245334106,119.88786171023244,136.25696721819614,148.88598047762136,216.0506302456296,196.4404448559889
3.8371705038371706,120.12111040957616,3.961871500436657,179.6257350091126,121.11000593014232,136.6597758719685,148.80243653836783,216.36716288228425,196.5933074103513
3.8705372038705375,122.16676970698283,3.961871500436657,179.7972288969521,122.63912064627482,136.98774702779278,148.71471051726414,216.6718620935708,196.7379331393528
3.903903903903904,123.22797251486924,3.961871500436657,180.4887507229812,124.44560921638876,137.2363732162908,148.6409100651129,216.97239058638573,196.88069932970305
3.937270603937271,123.31866491192584,3.961871500436657,180.66755540364,125.89100620741308,137.41161950231813,148.57461819232006,217.27821538575608,197.01403933279497
