Time,Left Shoulder Angle,Right Shoulder Angle,Left Elbow Angle,Right Elbow Angle,Left Hip Angle,Right Hip Angle,Left Knee Angle,Right Knee Angle
0.0,81.03797953973812,63.29674264179089,130.27744665937212,142.39124153882543,154.39051914330554,137.6156512649106,209.4070744954612,204.3960630069796
0.0333667000333667,53.35412315189665,49.60668202996565,138.26605292722317,153.01773122050088,151.1811583193291,138.47214235356665,203.4145213791741,204.3800077665988
0.0667334000667334,30.765659680339013,38.15806584457981,145.15015908021425,161.05395254183227,148.3853772993815,139.34264159577924,198.5911874040337,204.286455591044
0.1001001001001001,12.939593119438271,28.80867770756999,150.9947899480648,166.68240614587475,145.97459627786208,140.22066798789305,194.8515551248233,204.12376818481133
0.1334668001334668,-0.4570725364325056,21.416301240872848,155.86497036049417,170.0855926756834,143.92023544917024,141.09974052625284,192.1101070963261,203.90030725239768
0.1668335001668335,-0.4570725364325056,15.838720066425005,159.82572514722176,171.44601277431323,142.1937150077054,141.97337820720327,190.28132587332524,203.62443449829937
0.2002002002002002,-0.4570725364325056,11.933717806163097,162.94207913796697,170.94616708481936,140.76645514786696,142.83510002708908,189.27969401060403,203.3045116270129
0.2335669002335669,-0.4570725364325056,9.559078082023769,165.2790571624492,168.7685562502569,139.60987606405433,143.67842498225494,189.0196940629457,202.94890034303492
0.2669336002669336,-0.4570725364325056,8.572584515943625,166.9016840503878,165.09568091368084,138.6953979506669,144.4968720690456,189.41580858513336,202.56596235086192
0.3003003003003003,-9.757333292900285,8.832020729859344,167.8749846315022,160.1100417181463,137.99444100210408,145.28396028380573,190.3825201319504,202.16405935499031
0.333667000333667,-15.29418515559199,10.195170345707531,168.26398373551177,153.9941393067084,137.4784254127653,146.03320862288004,191.8343112581799,201.7515530599167
0.3670337003670337,-17.40062413013456,12.519816985424818,168.13370619213595,146.9304743224222,137.1187713770499,146.73813608261324,193.6856645186052,201.33680517013755
0.4004004004004004,-16.409646222154933,15.663744270947872,167.54917683109403,139.10154740834267,136.88689908935734,147.39226165935003,195.8510624680094,200.92817739014944
0.4337671004337671,-12.654247437280064,19.484735824213296,166.5754204821055,130.68985920752502,136.75422874408702,147.9891043494352,198.24498766117583,200.53403142444884
0.4671338004671338,-6.467423781136873,23.84057526715776,165.2774619748897,121.87791036302424,136.6921805356383,148.5221831492133,200.7819226528877,200.16272897753228
0.5005005005005005,1.8178287406476985,28.58904622171785,163.72032613916605,112.84820151789548,136.67217465841065,148.98501705502918,203.37634999792817,199.82263175389627
0.5338672005338673,11.868514122446696,33.587932309830244,161.96903780465388,103.78323331519373,136.6656313068034,149.37112506322742,205.9427522510805,199.52210145803733
0.5672339005672339,23.351636358633115,38.69501715343195,160.08862180107383,94.86550639797478,136.64397067521725,149.674026170154,208.3956119671298,199.2694997944537
0.6006006006006006,35.93419944358015,40.69786357867132,160.44755327402595,88.01629138487746,134.77378797372089,149.66149837401525,208.0047635453581,199.49482445388
0.6339673006339673,49.28320737166071,43.288418628234304,161.88111282178062,80.53729332764448,132.91917203332133,149.86655922487506,206.43519371122247,199.755139520068
0.6673340006673341,63.06566413724802,45.86214169449611,159.8829962391844,77.4090479194613,131.43049768229008,149.46423560987645,205.8773126438493,200.293630462318
0.7007007007007008,76.94857373471547,47.71833019103784,158.64782641584978,74.08310082141507,130.3959271381136,148.5593839647308,205.7472803831027,201.3712637040447
0.7340674007340674,85.69858732473143,49.49927990400106,162.02659458848257,73.47815926922021,128.95008655476775,148.2500277612317,205.80641103320525,202.037694062178
0.7674341007674341,93.67798631538857,50.71169189641202,163.3790334948311,73.34596089537033,127.83865946735028,147.8936461181609,205.57903986382567,202.3519377803528
0.8008008008008008,100.65491558704348,52.02362809352271,163.72413338660078,73.88839239151955,127.00176642353492,147.45209445533857,205.2520916639496,202.4429652742609
0.8341675008341676,106.12018598005844,52.281348938492,160.6766863852173,73.96069881360175,126.16598151278664,146.84079789113892,204.88364698504168,202.4582360863141
0.8675342008675342,109.11053266424778,42.58040615233575,156.7919739604592,73.52194924582501,126.0596762189941,146.23305478058674,203.6170867530472,202.23532404631013
0.9009009009009008,110.62153417584489,35.27120554947139,153.04542285889704,75.01195546023597,126.35712777407149,145.48281913096017,202.01115499624404,201.9283423348107
0.9342676009342676,102.9897296100946,30.94926771118793,149.3201283408297,77.61933671733398,126.8523669175076,144.7487769202251,200.285780190286,201.5212100049989
0.9676343009676344,97.43327380050404,28.345306628147203,145.41660031219374,81.02216071570724,127.64148291248064,143.90718679745444,198.56407660952604,201.09044636454607
1.001001001001001,93.92417488793431,37.20558452563382,141.58450534369027,84.64847188177929,128.54753451091582,143.1486628938347,196.8474351686132,200.54132626523767
1.0343677010343677,92.40722703160878,45.07167377257839,137.64449630668148,88.31967733111989,129.77367560818257,142.49155145058322,195.13285859237,199.7819395309634
1.0677344010677343,92.44638836462504,51.611700487216496,133.76585570508286,92.33896227026824,131.1290872453852,142.0380129726033,193.29113205178209,198.6744221090869
1.1011011011011012,93.67512720100922,57.69227885765257,130.3368219038865,96.73183360950206,132.55523596831492,141.71697521061412,191.32806118001525,197.5047406555725
1.1344678011344678,104.1551111179386,62.7566105935764,127.65980955581776,101.03427681651954,134.10278202554318,141.48202887520677,189.29828347779548,196.340318211371
1.1678345011678346,112.8227390424176,66.09923782488505,121.70207337392424,104.3936238269419,135.78663059384508,141.25332660335323,187.47701306175264,195.07024348442795
1.2012012012012012,119.73444544666334,69.61675181120756,114.81303380739467,109.19283668781472,137.4290537109069,141.10333795139536,185.7383285652016,193.60027654264312
1.234567901234568,124.41757476568274,72.33414198690211,108.11053896747552,111.94384365771916,139.02432369256613,141.08130714771772,184.07978708520457,191.919920897599
1.267934601267935,126.89725697504988,74.10875852122751,101.0779371428332,115.98686417425552,140.62253528462747,141.2046060071506,182.60007380595204,190.12518153841955
1.3013013013013013,128.19098768397404,76.02770196116126,94.01672697243202,122.36566176279904,142.34226457653347,141.44818978137152,181.19494811632745,188.1489502915168
1.334668001334668,127.97193072656334,77.47192197428816,87.29025996901052,123.9651274881724,144.06374097385464,141.84299740618687,179.935103528017,186.07119494660057
1.3680347013680347,126.11288181167664,79.4744519896498,79.88137167859988,123.31157836177648,145.7713761906907,142.41222873898434,178.84813728438647,183.95354095709027
1.4014014014014016,122.78884959689108,80.43390869930826,73.19549250071114,121.53060482051012,147.43480292666806,143.14433228314164,177.97297701510115,181.7378603350905
1.4347681014347682,110.16659251337067,92.64693816994716,66.93996129369758,119.01959355275608,149.0330946995171,144.00754003081667,177.3681966156289,179.50921628245044
1.4681348014681348,98.19001587903183,96.5772065267952,61.16317517377415,118.1085849779822,150.53974096149932,145.06296920809888,177.1169465037718,177.24069304831232
1.5015015015015016,87.08475677436178,100.01281233321822,55.49930280263623,116.80108119590352,151.9153169564386,146.1224308426881,177.1851427809038,175.1549200537213
1.5348682015348682,89.24955151262523,103.65065996503172,50.542550567828734,113.81686002557056,153.3503843869119,147.2796204638777,177.63990958512272,173.14443579843424
1.5682349015682349,95.17404750166578,105.85219765762557,45.98607662150174,108.26110013570204,154.6322092507908,148.14199572559582,178.42881668829943,171.93049933637764
1.6016016016016017,104.671324091727,106.3113148089019,44.95088117561984,103.75329236042194,156.0831733158244,148.99862107381574,179.12930763714095,171.17686311234556
1.6349683016349683,118.2916414460107,105.72608023946408,43.74419396917573,100.31274688021868,157.96230606313168,150.09193385530153,179.80543692722893,170.58029041172563
1.6683350016683351,135.4822350689293,101.01362938948276,44.56033769681869,98.8817982854282,158.3110402800412,151.14737898935942,179.47345075960976,170.061997771922
1.7017017017017018,151.805259354294,95.83689529535704,45.86034339335504,97.7093995747058,158.56432222805466,152.19558391930465,179.11249306749028,169.6487515290183
1.7350684017350684,164.56495890809623,90.35900995718067,47.56370427913171,96.81582309113438,158.74630913676148,153.2263320822433,178.7294773028859,169.32959170139952
1.7684351017684352,175.6213586063345,84.74310537504803,49.58991357449637,96.22134117779764,158.88115823575217,154.22940691528245,178.33131691781355,169.093558307452
1.8018018018018016,179.75781391097547,79.15231354905319,51.85846449979661,95.94622617777932,158.99302675461718,155.19459185552938,177.9249253642902,168.92969136556218
1.8351685018351689,183.2622647811276,73.74976647929054,54.28885027538013,96.01075043416324,159.10607192294705,156.11167034009122,177.51721609433275,168.8270308941165
1.8685352018685355,186.144628668794,68.69859616585435,56.80056412159465,96.43518629003306,159.2444509703323,156.97042580607518,177.11510255995816,168.77461691150137
1.901901901901902,188.4148230259785,64.16193460883866,59.31309925878783,97.2398060884726,159.43232112636343,157.76064169058844,176.72549821318333,168.7614894361032
1.9352686019352687,190.08276530468527,60.302913808338026,61.74594890730722,98.44488217256556,159.6938396206309,158.47210143073818,176.35531650602522,168.77668848630842
1.968635301968636,191.158372956918,57.28466576444647,64.01860628750048,100.07068688539572,160.05316368272526,159.09458846363157,176.01147089050076,168.80925408050342
2.002002002002002,191.6515634346809,55.27032247725851,66.05056461971553,102.13749257004682,160.534450542237,159.6178862263758,175.70087481862683,168.8482262370747
2.035368702035369,191.57225418997768,54.42301594686813,67.76131712429978,104.6655715696026,161.16185742875666,160.03177815607805,175.43044174242044,168.88264497440858
2.0687354020687354,190.93036267481244,54.90587817336965,69.07035702160097,107.6751962271468,161.9595415718747,160.3260476898455,175.2070851138985,168.90155031089154
2.1021021021021022,189.73580634118903,56.88204115685736,69.89717753196666,111.18663888576322,162.95166020118165,160.4904782647853,175.0377183850779,168.89398226491
2.135468802135469,187.99850264111143,60.514636897425625,70.16127187574475,115.22017188853556,164.16237054626802,160.5148533180047,174.92925500797566,168.8489808548503
2.1688355021688355,185.7283690265837,65.96679739516858,69.78213327328277,119.79606757854756,165.6158298367243,160.38895628661083,174.8886084346086,168.755586099099
2.2022022022022023,182.93532294960968,73.40165465018046,68.67925494492827,124.93459829888302,167.336195302141,160.10257060771087,174.92269211699374,168.6028380160424
