Time,Left Shoulder Angle,Right Shoulder Angle,Left Elbow Angle,Right Elbow Angle,Left Hip Angle,Right Hip Angle,Left Knee Angle,Right Knee Angle
0.0,33.72106146534583,36.46733397618943,178.50205953573058,165.40420327526124,136.90567039236618,135.9798631416165,193.9717959414596,207.1726087705145
0.0333667000333667,32.790426303321524,36.43027565540893,176.18564219311332,164.90040527341375,136.71078664253662,135.6448250649994,194.1773808942177,207.33177195132512
0.0667334000667334,32.015309658445965,36.33557295886229,174.25123112784192,164.4202534936551,136.49624307091105,135.3875131470205,194.4374925963012,207.46662400224363
0.1001001001001001,31.38412098910084,36.18277816139664,172.67877647668683,163.96048328084683,136.2612856000315,135.2047685141206,194.7501424394101,207.5764537027284
0.1334668001334668,30.88526975366782,35.97144353785904,171.44822837641857,163.51782997985035,136.00516015243997,135.09343229274032,195.11334181524413,207.6605498322377
0.1668335001668335,30.50716541052862,35.70112136309662,170.53953696380762,163.08902893552715,135.72711265067846,135.05034560932037,195.52510211550307,207.71820117023
0.2002002002002002,30.238217418064927,35.37136391195646,169.93265237562443,162.67081549273863,135.42638901728895,135.07234959030149,195.98343473188675,207.7486964961636
0.2335669002335669,30.06683523465843,34.98172345928567,169.6075247486395,162.2599249963464,135.1022351748135,135.15628536212435,196.48635105609492,207.7513245894968
0.2669336002669336,29.981428318690824,34.53175227993135,169.54410421962328,161.85309279121176,134.75389704579408,135.29899405122967,197.0318624798276,207.725374229688
0.3003003003003003,29.9704061285438,34.021002648740584,169.72234092534632,161.4470542221963,134.38062055277263,135.49731678405814,197.6179803947843,207.6701341961956
0.333667000333667,30.022178122599044,33.449026840560485,170.12218500257904,161.0385446341614,133.9816516182913,135.7480946870505,198.24271619266497,207.58489326847783
0.3670337003670337,30.12515375923825,32.81537713023815,170.72358658809193,160.6242993719686,133.556236164892,136.04816888664735,198.90408126516945,207.46894022599315
0.4004004004004004,30.267742496843127,32.11960579262067,171.50649581865548,160.20105378047933,133.1036201151167,136.39438050928956,199.60008700399743,207.3215638481999
0.4337671004337671,30.438353793795343,31.361265102555144,172.45086283104018,159.76554320455503,132.62304939150752,136.78357068141767,200.3287448008488,207.1420529145564
0.4671338004671338,30.625397108476605,30.53990733488868,173.53663776201654,159.3145029890572,132.11376991660637,137.21258052947246,201.08806604742333,206.929696204521
0.5005005005005005,30.8172818992686,29.655084764468377,174.74377074835496,158.8446684788473,131.57502761295527,137.67825117989463,201.8760621354209,206.6837824975521
0.5338672005338673,31.00241762455301,28.706349666141328,176.05221192682598,158.3527750187868,131.00606840309624,138.17742375912485,202.69074445654127,206.403600573108
0.5672339005672339,31.16921374271184,27.693254314754927,177.4419114342015,157.83555795373854,130.4061382095724,138.70693939360493,203.53012440248568,206.0884392106488
0.6006006006006006,31.35003718389229,26.316411336096067,178.70996040457914,157.15206743137884,129.67149945319906,139.17769691009408,204.4532121121873,205.74897632875152
0.6339673006339673,31.537969771512746,24.856839795668964,180.20573124751525,156.42370978293985,128.8280606781999,139.6805499696192,205.46936386222947,205.3414103696201
0.6673340006673341,31.822412726638408,23.276863278998807,181.7785311461809,155.60658151971194,127.95813263224385,140.19963671593038,206.46736108175503,204.86197647880115
0.7007007007007008,31.917346820182026,21.69291264322021,183.3309061464469,154.7856684101733,127.08426235974804,140.75350183936666,207.4464650224981,204.32769434295915
0.7340674007340674,31.73108964900324,19.938755120670702,184.57623030402465,153.94991390920347,126.17198654699294,141.28816924856088,208.39482763674863,203.77390096862177
0.7674341007674341,31.26019887380588,18.217142713219165,185.7717845814522,153.0763290939759,125.25983931884748,141.8650454741591,209.32298521983543,203.1933072946206
0.8008008008008008,30.33661819741594,16.568538663695445,186.4598942424672,151.84752477844182,124.42812989770064,142.54009790663147,210.1535438503992,202.54124709822688
0.8341675008341676,29.264131785757986,15.082920539874545,187.2304717048094,150.65525658970233,123.62146930407629,143.29188411438784,211.01075270462977,201.82055914966355
0.8675342008675342,27.84779234514056,13.713903212759304,187.7607995658973,152.5806797023076,122.87127681365511,144.0929788070264,211.8151127483312,201.0551658541788
0.9009009009009008,26.389244399687428,12.538811534604568,188.4724493790966,154.1970689811655,122.14841600407232,144.93567558368977,212.6109475442352,200.27655602050964
0.9342676009342676,24.69175598684876,11.248305188365716,191.610030810038,152.82885475685308,121.40911978318174,145.8128499687338,213.42840302558625,199.5149132330976
0.9676343009676344,22.970076452012847,10.154380659596324,193.83888749849712,149.65209630101265,120.68001593170688,146.7004228554178,214.26437998623885,198.78383303055483
1.001001001001001,21.314395704196947,9.325717165251122,195.771650253324,144.85493467756808,119.98342457715334,147.5789253620033,215.13645683912,198.0818953108612
1.0343677010343677,19.78357273159289,8.768745602427325,196.906788535072,141.1670414150339,119.26472138910474,148.4666278383407,216.09437658444088,197.39239321359864
1.0677344010677343,18.096834222847257,8.232629107934137,197.01827216176235,138.83342594733756,118.56959144970158,149.34975260339203,217.0390461962977,196.7275077150603
1.1011011011011012,16.692488856627406,8.04219096741075,196.6383326990432,137.42425219460426,117.94642473996798,150.23576383794742,217.88536637103024,196.0815644782747
1.1344678011344678,15.524306957622594,8.20751009716851,195.82933095116587,139.47822066423612,117.41640328806577,151.08742686896974,218.61650074070693,195.47086748784216
1.1678345011678346,14.833183962723618,8.680054041527407,194.7657435489385,141.01771994589515,116.89956543718483,151.85486103896193,219.25481404253443,194.9246243979869
1.2012012012012012,5.09226144588737,9.374999099235511,192.94079448271324,143.70601584130793,116.45172349427014,152.522835171821,219.77915162967724,194.4504653361357
1.234567901234568,-1.2116934609973224,10.353786354347278,190.96621735196533,145.6120877796157,116.15232951925124,153.09573173862103,220.28752224888265,194.01037123057603
1.267934601267935,-1.2116934609973224,11.402287466379152,188.75499558998143,147.26692156104784,115.96847014094378,153.5964908030328,220.7365359150784,193.64851908949203
1.3013013013013013,-1.2116934609973224,12.77110352581398,186.46731366960643,148.39298207529433,115.7344878544358,154.1225472279355,221.465974443766,193.3162111258584
1.334668001334668,-1.2116934609973224,14.498011359993178,184.2343947579045,149.13238319430246,115.52750815533786,154.55997356240223,222.20911653878568,193.0542202105744
1.3680347013680347,-1.2116934609973224,16.54275472428866,182.06765424576813,149.33921805780878,115.38430306205623,154.95863993900178,222.77657801872047,192.8207126822475
1.4014014014014016,-4.0965639827361535,18.89202402373977,180.3332493186838,149.39101441019818,115.37749056691638,155.303605747545,223.24117245767167,192.614926260931
1.4347681014347682,-4.28794681272982,21.41031244988663,178.54280964402574,148.90291250835847,115.39640116760694,155.63219929629412,223.6607075796369,192.4170096773532
1.4681348014681348,-1.863919964448142,24.17206070481647,176.53750726387725,147.89537109875616,115.47841239891298,155.9168568221463,223.98079656801292,192.24769789255487
1.5015015015015016,3.012410951594781,27.08760983178627,174.57967872437817,146.42163036061868,115.5657745879557,156.1254290314183,224.33494973542992,192.1326684537699
1.5348682015348682,3.012410951594781,30.0853770663554,172.57509629201832,144.37951891397253,115.69718514775616,156.26237091950657,224.68429699256808,192.08631961011085
1.5682349015682349,3.012410951594781,33.01616673978393,170.6213366148117,141.9015283261604,115.90019449265804,156.37451232778022,224.97161921951587,192.020317310538
1.6016016016016017,3.012410951594781,35.98941468280849,168.7753671310425,139.20200839453318,116.17307314523433,156.4275735480723,225.1604793844501,191.96521622035
1.6349683016349683,3.012410951594781,38.80982573857872,167.10279449979257,135.99622081073224,116.4569352612988,156.45705155844735,225.33929500498107,191.81308588427888
1.6683350016683351,3.012410951594781,41.55801586162412,165.3304943231941,132.464638013511,116.79233091571328,156.44003056401965,225.4536302153421,191.62245791947493
1.7017017017017018,3.012410951594781,43.99967540991847,163.7224700314558,128.5654889348071,117.0013726815228,156.37796031349717,225.6756557551305,191.4476013661656
1.7350684017350684,3.012410951594781,46.3440574415604,162.21501505075491,124.31398142842816,117.04956265768725,156.2464505357021,225.99590704209945,191.2906144633243
1.7684351017684352,3.012410951594781,48.68276177499527,160.70689921203964,119.79332603696578,117.17533761062565,156.15839698878622,226.20120457910883,191.08537761224696
1.8018018018018016,10.115931407614116,51.10874733734416,159.20140132661933,115.40491946067512,117.3667870185283,156.0949323053554,226.3199994168418,190.7650984470748
1.8351685018351689,19.12808702764859,53.34715407306968,157.66981753308718,110.92284675142564,117.55984598179576,156.04226919054636,226.41103016670613,190.46444718836852
1.8685352018685355,29.966013780260106,55.582320521593466,156.12097898389328,106.664804024042,117.79630172597967,155.9799885626952,226.4719381816345,190.12332768667352
1.901901901901902,42.37759359918054,57.64950312383598,155.0475106081147,102.32578054478958,118.08091563033548,155.97145678841417,226.5106739401644,189.79097441506536
1.9352686019352687,56.19529286234393,59.50007192051888,154.3513000301284,98.11580880252232,118.3448155718442,156.07904913390527,226.571046446024,189.39093974522203
1.968635301968636,71.20275997144769,60.94109392692387,154.80723341729092,94.31127418773096,118.5560199417861,156.18797171018176,226.68876059247867,189.0957134437701
2.002002002002002,87.25045970461822,62.707423656868,155.70320785099852,90.10692459714582,118.70378099503894,156.3929042937552,226.76069819975453,188.780772065127
2.035368702035369,104.06170304063724,64.16148666803866,157.635840448713,81.87002382956227,118.80914045707269,156.57725615902976,226.84419993696812,188.63660446039697
2.0687354020687354,121.4435306024454,64.73101346537707,157.7171513178429,72.63405074025452,118.85319739153196,156.73507620937264,226.89937546555936,188.60870726224653
2.1021021021021022,139.06539351096654,64.85133763044,155.8225204225396,65.62534973507029,119.02333743653344,156.81171532490134,226.8836990469274,188.78006344980292
2.135468802135469,156.80227225560537,64.32716525634679,155.05158204991756,59.9716958694955,119.36953081934293,156.82699758835074,226.9210941165504,189.05505081644048
2.1688355021688355,174.1678658052352,63.06209642315783,154.42679194944571,58.26181162816395,119.79675986046644,156.74786361390724,226.8614269435585,189.5478150783959
2.2022022022022023,191.0462718082384,61.06613697288935,154.5343050626577,56.25584690598683,120.1472991095038,156.5929289900441,226.82646319710065,190.171225263771
2.235568902235569,207.09362050144284,58.80154962970055,155.06863953343714,55.80651384775667,120.46850470125746,156.3274433993862,226.72072721557123,191.00964284365924
2.2689356022689355,222.0911191687285,56.1000280620716,156.7245309322645,57.45083260567158,120.75628110918686,156.01072290261862,226.52086009334528,192.0522164913085
2.3023023023023024,236.2056809695186,53.05235589188994,158.33214889106526,57.43757047963455,121.08681263192734,155.6473516084774,226.1559791659437,193.28792437787945
2.335669002335669,249.0663666011327,50.12308850779723,159.65774758155916,58.284046514077886,121.38448003194269,155.3347188940239,225.61407737576235,194.63417035809812
2.369035702369036,270.2016365608092,46.90180129355977,161.55406940421398,58.498957914222935,121.8227801391545,154.9819070478775,224.92677106816512,196.1248333090474
2.4024024024024024,287.68707932282706,43.25410322312312,163.7941099151116,59.38268569307024,122.51552720339365,154.71422132099522,224.0834294342381,197.69490016191665
2.4357691024357693,301.3770622546965,39.6340820795246,166.41916562713425,60.4439662713744,123.30001932855993,154.3352504932884,223.1382010822455,199.3132018283719
2.469135802469136,311.5203426991941,35.886437153853464,169.17052534164236,62.00934449861777,124.0139569015394,153.88559587909,222.12580263628408,200.9673506649965
2.5025025025025025,317.79261048718377,32.17514470162547,171.9413006058343,64.14507586047625,124.80646353224118,153.3714790227174,221.03771175773213,202.6347620792816
2.5358692025358693,320.3022085598608,28.35688886028094,174.67093581291405,67.03297539862707,125.50361670358302,152.68889533001732,220.014241455152,204.35327859614435
2.569235902569236,318.525336587384,24.67092621517928,177.14547162133945,70.14597544793762,126.28438754601493,151.91311264095862,218.9129071266672,206.05728824111424
2.6026026026026026,311.84498044662627,21.016676129452737,181.35772750970355,73.74540461514259,127.15993524930548,150.94866351865082,217.71074743270896,207.81449038529607
2.6359693026359694,301.17971542992234,17.637548076221883,184.8282733678912,77.86485304718812,128.22402030107554,149.98921890592482,216.42854999270003,209.47982910831104
2.669336002669336,286.35768597319725,14.330505023739782,188.2426928107861,83.34451334303061,129.43440411707408,149.24584834150758,215.0428373097224,211.0652658122222
2.702702702702702,267.5602170383437,11.543625881572222,190.7949578614424,89.535544379414,130.65748801671288,148.52416438707544,213.64736972734235,212.49007835727053
2.736069402736069,244.38634754078083,9.289271860996624,193.0111507622649,97.3822247385596,131.82934519811272,147.92797542215663,212.2067890956384,213.74497720940715
2.7694361027694363,229.81756357631704,7.523584568618612,194.1851926750593,104.60394787283003,132.9736957451318,147.33010545466135,210.8052680331853,214.80513496021072
2.802802802802803,214.38869343356515,5.5273165069006645,194.55264792209155,112.17714754874562,134.1389060953206,146.9292941649897,209.4198363706465,215.66740589596324
2.836169502836169,198.1683803058127,4.296740816772079,193.885319026118,118.3093920066206,135.19425280053446,146.46913227658507,208.1628481176805,216.29533985705297
2.8695362028695364,181.65575701278425,2.2204667076739057,192.09878250041936,119.05153549416414,136.09827878492277,146.01510577072654,207.02404160405567,216.63224021803583
2.902902902902903,164.96401971070964,1.3403344292468926,189.31453794354948,119.91010014473316,137.0076174815022,145.55972252068867,205.9541736230075,216.69926077743816
2.9362696029362696,148.318320176482,2.6002522783605024,186.237385872594,125.2403580216706,137.82637405340944,144.9588412465503,205.08518189890225,216.5731671267745
2.9696363029696364,131.966136720717,2.6002522783605024,182.4305356209807,128.66237444927907,138.53239511011566,144.29286687109484,204.3502112151791,216.3287466656529
3.003003003003004,116.85222918850926,2.6002522783605024,175.47249658221244,122.25752508251789,139.05083426279094,143.63530535561202,203.78749863931705,215.90912529862285
3.0363697030363697,102.07633008361024,2.6002522783605024,168.56494331314136,116.980543606375,139.4276969221965,142.99945304891594,203.3070800555097,215.3641816051237
3.0697364030697365,87.46934738411706,2.6002522783605024,164.30113957924516,119.6224066978312,139.69349485623104,142.38765239494538,202.97280345076243,214.6199914976972
3.103103103103104,73.3429148306861,2.6002522783605024,159.62901030278792,121.05357395337616,139.92273090269464,141.7912838171014,202.6770284353896,213.7833746665328
3.1364698031364697,59.69443657133628,2.6002522783605024,155.44596494201016,120.52526750113856,140.07801527271252,141.2383302187451,202.4628454439138,212.80885083160973
3.169836503169837,46.950885477015554,2.6002522783605024,149.01529648434246,119.23296692897765,140.2656500963042,140.63474270325833,202.27997254115172,211.8983616671164
3.2032032032032034,35.56753515918045,2.6002522783605024,140.1203795222716,113.24137313196256,140.43787117476015,139.99877307614867,202.1970393546707,210.9562774689731
3.2365699032365702,25.55946975504012,2.6002522783605024,133.750660738269,107.45876348402297,140.70073649397568,139.4201537395227,202.1609847192213,210.0400270132465
3.2699366032699366,16.619437574558816,2.6002522783605024,126.90882033038874,101.09355469921758,140.94181523238444,138.92403923625733,202.15510550991968,209.0760898305525
3.3033033033033035,9.415137319351723,2.6002522783605024,120.0792849565456,96.12823184488865,141.05421976596412,138.51438890860112,202.02356077740163,208.1755009074928
3.3366700033366703,4.141853742093468,2.6002522783605024,114.49065827292873,90.57525425175989,141.04313315526278,138.18221258197792,201.9154380677183,207.32420860739416
3.3700367033700367,1.1941544174230885,2.6002522783605024,109.286409221611,87.61846504367341,141.1092653227761,137.98285088114707,201.60344009385693,206.56188800209264
3.4034034034034035,1.3159155975717194,2.6002522783605024,104.7921387502304,85.53725797765165,141.20156962993556,137.9374527875593,201.19947666400327,205.8432491333756
3.4367701034367704,4.264364104872795,2.6002522783605024,100.1126181074886,85.5530186743872,141.4253390687128,138.05926073035798,200.6489240126,205.12427764865464
3.4701368034701368,4.264364104872795,2.6002522783605024,95.97339687767408,84.24059748913552,141.6896929303142,138.29362256068265,200.07390081214217,204.4655343104426
3.503503503503504,4.264364104872795,2.6002522783605024,92.94340495956853,84.09679724896934,142.17407444038074,138.58277737785176,199.4544195703401,203.8119997066651
3.5368702035368704,4.264364104872795,2.6002522783605024,90.6628925864718,85.02167327758457,142.727243870072,138.99321117956836,198.79006213867532,203.1400483138438
3.5702369035702373,4.264364104872795,2.6002522783605024,89.16491639031982,87.10289839866823,143.16368452876975,139.36894354495493,198.1133033520548,202.4830401513386
3.603603603603604,4.264364104872795,2.6002522783605024,88.25180076290755,90.55307073479598,143.62638137485018,139.72352951486835,197.39171480437489,201.83412155375612
3.6369703036369705,4.264364104872795,2.6002522783605024,88.47376050382167,95.24253258111088,144.2527171672297,140.08850479019893,196.6030987603262,201.20887117482383
3.670337003670337,4.264364104872795,2.6002522783605024,89.6855062301191,100.89119848887864,144.86685447448227,140.44108673503763,195.83284761380247,200.6784862108229
3.703703703703704,4.264364104872795,2.6002522783605024,92.22739583048212,107.4396373915672,145.7106209170264,140.97515807270946,194.8828079128293,200.13475909768823
3.737070403737071,9.454477045530815,2.6002522783605024,95.61891127397752,115.01876525069274,146.63407527271127,141.67067647630645,193.86852976663707,199.61628975261823
3.770437103770437,18.020832015506507,2.6002522783605024,97.82162039341662,123.47387250708086,147.64524294030585,142.71773275066712,192.81631962180683,198.9398947854302
3.803803803803804,16.027128927498723,4.944953782596824,100.51549764444454,132.71079678095046,148.61437862236642,143.96250373635948,191.7135096528555,198.2144158132471
3.8371705038371706,7.656740717863097,4.944953782596824,102.93618874648055,141.22069075244178,149.49872832866507,145.16754031615602,190.68105449694752,197.4258031027165
3.8705372038705375,1.7113866517569276,4.944953782596824,105.74646054184004,149.45954870842613,150.34459009048976,146.4796911979978,189.63942221647164,196.6240358753945
3.903903903903904,-2.121166881551045,4.944953782596824,107.987074267841,155.5850863306491,151.2186723914102,147.75722782036053,188.7046952140243,195.78042780200417
3.937270603937271,-2.580397910570809,9.42266490536853,110.19215385090033,160.72163403267385,152.09688905625907,149.06604573294138,187.87489944457343,194.89512731114547
