Time,Left Shoulder Angle,Right Shoulder Angle,Left Elbow Angle,Right Elbow Angle,Left Hip Angle,Right Hip Angle,Left Knee Angle,Right Knee Angle
0.0,75.25515412187993,44.492051772692506,144.42699108553109,138.59857510890083,134.98425033802707,133.90065690812963,201.64339667483105,204.48332278811367
0.0333667000333667,53.78266755938431,38.064938036478026,153.502870410706,151.14657447801017,136.67795679103125,133.5406532277578,198.85309795543,204.5581681087166
0.0667334000667334,36.01968962959393,32.46886444400882,161.19313462601997,161.04791320344594,137.87748293270246,133.35577798574917,196.7635333314985,204.50829902803065
0.1001001001001001,21.73511091366938,27.6579767234151,167.58108336312287,168.47434352032448,138.61825243957003,133.32849283201173,195.32610482478492,204.3485094646549
0.1334668001334668,10.697821992771296,23.586420602827065,172.75001625366465,173.59761766376198,138.9356889881633,133.44125941645342,194.4922144570375,204.09359333718845
0.1668335001668335,2.6767134480602977,20.20834181037492,176.7832329292951,176.58948786887476,138.8652162550116,133.67653938898223,194.2132642500044,203.7583445642304
0.2002002002002002,-2.5593241393030013,17.47788607418888,179.76403302166423,177.6217063707791,138.44225791664434,134.01679439950607,194.44065622543383,203.3575570643798
0.2335669002335669,-5.241400188157982,15.349199122399147,181.7757161624219,176.8660254045912,137.7022376495908,134.44448609793292,195.1257924050741,202.90602475623567
0.2669336002669336,-5.60062411734404,13.776426683135927,182.901581983218,174.49419720542733,136.68057913038035,134.94207613417072,196.2200748106734,202.41854155839732
0.3003003003003003,-3.868105345700528,12.713714484529426,183.2249301157024,170.67797400840385,135.41270603554236,135.49202615812746,197.67490546398,201.90990138946373
0.333667000333667,-0.2749532920668684,12.115208254709849,182.829060191525,165.58910804863692,133.93404204160615,136.07679781971106,199.441686386742,201.394898168034
0.3670337003670337,-0.2749532920668684,11.935053721807414,181.7972718423357,159.39935156124284,132.28001082510107,136.67885276882947,201.47181960070785,200.88832581270708
0.4004004004004004,-0.2749532920668684,12.127396613952314,180.2128646997845,152.28045678133788,130.48603606255645,137.2806526553907,203.7167071276256,200.40497824208225
0.4337671004337671,-0.2749532920668684,12.646382659274751,178.15913839552107,144.40417594403834,128.58754143050166,137.86465912930265,206.1277509892436,199.95964937475853
0.4671338004671338,-0.2749532920668684,13.446157585904956,175.71939256119552,135.9422612844604,126.61995060546606,138.41333384047329,208.6563532073099,199.56713312933505
0.5005005005005005,-0.2749532920668684,14.480867121973104,172.97692682845764,127.06646503772043,124.61868726397896,138.9091384388106,211.2539158035729,199.2422234244108
0.5338672005338673,-0.2749532920668684,15.70465699560944,170.01504082895735,117.94853943893465,122.61917508256973,139.33453457422252,213.87184079978084,198.99971417858487
0.5672339005672339,-0.2749532920668684,17.071672934944417,166.91703419434594,108.7602367232204,120.65683773776868,139.67198389661823,216.46153021768367,198.8543993104582
0.6006006006006006,-0.2749532920668684,17.66930442173722,165.01431485152847,101.73058091754676,118.80150503751472,139.6809032075683,218.7116273764888,199.3242391517304
0.6339673006339673,-0.2749532920668684,18.74271091283453,163.2976474978576,96.04925537753334,117.34775895612502,139.3834918342206,220.729913100982,199.9699384299736
0.6673340006673341,-0.2749532920668684,19.802320446964508,161.94755127593726,88.31931371808595,116.42782225588924,138.76738767996088,222.37186227384467,200.67528208755056
0.7007007007007008,-0.2749532920668684,20.699926928289752,160.7652117749821,85.69376908401195,115.45327803709073,137.76838340347902,223.6365117147827,202.1107624011479
0.7340674007340674,-0.2749532920668684,21.874807908413302,161.93228502294906,84.38029871386541,114.70161868484702,136.67319049138118,224.63055013621988,203.6856982569439
0.7674341007674341,4.947722624717599,21.895451928789907,161.23678862650362,79.980175886044,114.04108642055762,135.53063699013924,225.81844661519904,205.18606996898595
0.8008008008008008,11.568812985813535,12.221905532241944,159.74851455918383,73.77704453651698,113.55625130796037,134.24003529604616,226.75471382275185,206.704848875042
0.8341675008341676,19.35720837238141,14.947197324322165,158.4920662313661,68.97957110288202,113.09755644948626,132.90926493240875,227.32886900550616,207.96020661960665
0.8675342008675342,28.081799365581936,8.813638422569527,157.32537141020964,64.26291521260382,112.90837261360316,131.4558957965474,227.45608457134188,209.0785420558696
0.9009009009009008,37.51147654657578,5.830767807169602,155.9958557086092,60.6488785979119,113.24058697294628,130.0976721597673,226.8972777489432,210.03902813772464
0.9342676009342676,47.4151304965235,6.243270085266123,154.65347110112654,58.09968554862105,113.99994793974534,128.9106881526013,225.6620551349894,210.67616239073445
0.9676343009676344,57.561651796586304,8.57574849658629,153.40150213694452,57.845337231729154,115.06315117156596,127.98500876892228,224.1046660438573,211.07778389896103
1.001001001001001,64.46109748046278,20.27918182099213,152.54462127609642,60.89161164033478,116.25439134751748,127.14268923693903,222.5952760103476,211.203096643364
1.0343677010343677,71.27714448094397,23.90106592810088,151.88595846722248,63.049608345353874,117.7195055052057,126.16889529975678,220.74701951363588,211.49653547339457
1.0677344010677343,78.12626662364669,29.19146260293717,151.06270255644583,66.56865614185446,119.3665291608202,125.56690268773497,218.75908616849327,211.4786083133941
1.1011011011011012,83.94067540452049,35.75943156907247,149.88508163674496,71.57857650495247,121.32755966344465,125.2709284203804,216.3665372431545,211.16972450922668
1.1344678011344678,87.82575983774139,42.92132526911804,148.47103830795973,77.93269128255841,123.10645936673625,125.28507347986246,214.34551114964523,210.6391024904764
1.1678345011678346,81.4650595376579,59.71259439256671,147.44025795133535,85.53928751393629,124.66239367678348,125.54399049205072,212.5153793272021,209.8157189882424
1.2012012012012012,77.90444137104656,75.43207981136202,146.25779571768524,95.0634283734038,126.42913392627072,126.01105340772736,210.79899736808332,208.7803245954984
1.234567901234568,76.20335797429571,89.74023502690581,146.21795890872565,101.81758233981846,128.31399280046227,126.72253598030896,209.0748983546672,207.5425506390492
1.267934601267935,76.0808729514192,102.77723311396645,146.5518744687647,108.31373519018976,130.3469173916647,127.61026095417516,207.4099752805332,206.13433110199483
1.3013013013013013,77.74449634720358,114.01319207810812,143.12101746962784,114.33535998132506,132.46358401887312,128.71765624726007,205.82433744172448,204.54607786165883
1.334668001334668,81.03526569785808,123.98363638476089,138.32578743599734,119.90632495167635,134.56438488840075,130.04613233691074,204.1791468961796,202.7856683355
1.3680347013680347,85.52724329817639,133.798902020947,132.51906205876296,124.12107166260884,136.5459808422968,131.57768765111436,202.5399169062844,200.83871875327307
1.4014014014014016,90.92993156949844,149.98785685148738,126.3892093555371,128.82288346485967,138.41632009960549,133.93006745617757,201.0230251053416,198.0355416649038
1.4347681014347682,104.84866585924728,165.0310310185297,119.96400376527568,133.09672206643108,140.23382680673362,136.35464091731643,199.58723930719736,195.22799266593617
1.4681348014681348,117.06277172643776,178.5119987339305,113.31218959084735,136.87555143616677,141.9850486946372,138.8060037443281,198.2442411470191,192.47154329087127
1.5015015015015016,127.48304509747165,190.01433420954828,106.50251113512203,140.0923355429114,143.65653349427313,141.23875164701093,197.0057122599759,189.8216650742122
1.5348682015348682,135.64999319385873,199.1216116572409,99.60371270096968,142.68003835550954,145.2348289365983,143.6074803351632,195.88333428123687,187.33382955046164
1.5682349015682349,141.92653953713352,205.4174052888665,92.68453859126016,144.5716238428057,146.70648275256963,145.8667855185833,194.88878884597108,185.06350825412267
1.6016016016016017,146.4605036056969,208.48528931628323,85.81373310886339,145.70005597364462,148.05804267314406,147.97126290706944,194.0337575893477,183.06617271969816
1.6349683016349683,149.29122967730865,207.90883795134897,79.06004055664933,145.99829871687078,149.2760564292785,149.87550821042,193.3299221465357,181.397294481691
1.6683350016683351,150.54767712192236,203.27162540592212,72.49220523748792,145.3993160413288,150.34707175192983,151.53411713843337,192.7889641527043,180.11234507460418
1.7017017017017018,149.6081203773722,194.157225891861,66.17897145424905,143.8360719158633,151.25763637205495,152.90168540090772,192.42256524302252,179.2667960329406
1.7350684017350684,146.4541050384772,180.1492136210232,60.18908350980264,141.24153030931882,151.99429802061084,153.9328087076415,192.2424070526596,178.91611889120315
1.7684351017684352,141.332263132495,160.83116280526696,54.59128570701861,137.54865519053996,152.54360442855435,154.58208276843294,192.26017121678444,179.1157851838948
1.8018018018018016,150.42750008737715,135.78664765645067,49.45432234876694,132.6904105283714,152.89210332684243,154.8041032930804,192.48753937056625,179.92126644551843
1.8351685018351689,158.85623816134174,104.59924238643195,44.8469377379175,126.59976029165752,153.02634244643195,154.55346599138218,192.93619314917413,181.38803421057705
1.8685352018685355,166.246224572727,66.85252120706961,40.837876177340206,119.20966844924315,152.93286951827992,153.78476657313664,193.6178141877772,183.57156001357345
1.901901901901902,172.22520653987266,22.13005833022136,37.495881969904985,110.4530989699728,152.59823227334311,152.45260074814206,194.54408412154444,186.52731538901065
1.9352686019352687,176.42093128111816,-29.9845720322552,34.88969941848181,100.26301582269096,152.00897844257855,150.51156422619675,195.72668458564505,190.31077187139155
