Time,Left Shoulder Angle,Right Shoulder Angle,Left Elbow Angle,Right Elbow Angle,Left Hip Angle,Right Hip Angle,Left Knee Angle,Right Knee Angle
0.0,48.712505326769495,26.35122559061164,167.83846382304125,164.7322218408486,135.31037506420464,136.52694604489858,202.7018014516803,205.0552095255033
0.0333667000333667,43.60268988964495,36.01334145486235,170.7248750953904,168.55709718934256,136.24181196175147,137.54095176682097,202.3917652832233,204.68651107329268
0.0667334000667334,38.56053881110331,43.27073451153021,173.28401500317247,171.68367036508263,137.03473852611242,138.59367479449836,202.0994871632798,204.25751620153488
0.1001001001001001,33.65770875357534,48.3282918766457,175.52639492193435,174.13464303999177,137.69624198216988,139.67823034173026,201.82632705826185,203.773407186164
0.1334668001334668,28.96585637949183,51.3909006662393,177.4625262272229,175.93271688599287,138.23340955480634,140.7877336223162,201.5736449345817,203.2393663031141
0.1668335001668335,24.55663835128353,52.66344799634151,179.10292029458486,177.10059357500882,138.65332846890416,141.9152998500557,201.3428007586516,202.6605758283193
0.2002002002002002,20.501711331381244,52.3508209829828,180.4580884995671,177.66097477896255,138.96308594934578,143.05404423874828,201.1351544968836,202.0422180377137
0.2335669002335669,16.872731982215715,50.65790674219364,181.53854221771647,177.63656216977694,139.16976922101364,144.1970820021934,200.95206611569,201.3894752072313
0.2669336002669336,13.74135696621773,47.789592390004536,182.35479282457976,177.05005741937492,139.28046550879014,145.33752835419062,200.79489558148288,200.70752961280624
0.3003003003003003,11.179242945818054,43.95076504244594,182.9173516957038,175.92416219967942,139.3022620375577,146.46849850853943,200.6650028606745,200.00156353037252
0.333667000333667,9.258046583447474,39.346311815548376,183.23673020663543,174.2815781826133,139.24224603219878,147.5831076790394,200.5637479196771,199.27675923586443
0.3670337003670337,8.049424541536744,34.18111982534228,183.3234397329215,172.14500704009947,139.10750471759576,148.67447107949,200.4924907249028,198.53829900521583
0.4004004004004004,7.625033482516635,28.660076187858174,183.1879916501088,169.53715044406087,138.90512531863106,149.7357039236907,200.45259124276376,197.7913651143609
0.4337671004337671,8.056530068817942,22.988068019126512,182.84089733374412,166.48071006642036,138.6421950601871,150.7599214254411,200.44540943967223,197.0411398392337
0.4671338004671338,9.41557096287142,17.369982435177796,182.29266815937444,162.9983875791009,138.32580116714638,151.74023879854064,200.4723052820404,196.2928054557684
0.5005005005005005,11.773812827107854,12.010706552042484,181.55381550254648,159.11288465402538,137.96303086439124,152.66977125678886,200.5346387362804,195.55154423989887
0.5338672005338673,15.202912323958005,7.115127485751081,180.634850738807,154.8469029631167,137.5609713768041,153.5416340139853,200.6337697688044,194.82253846755933
0.5672339005672339,19.77452611585218,2.8881323523340257,179.54628524370438,150.22314417829932,137.12670992926857,154.3489422839307,200.77105834602628,194.1109704146855
0.6006006006006006,29.05727142018528,8.020756655919541,178.2229139568989,145.17904514687157,136.8722069753807,155.2140897761176,200.8122430046383,193.20384691553
0.6339673006339673,39.70205466184898,5.602948027649574,176.6115017153877,138.67015554209289,136.74704073087057,155.93523477935457,200.86527105516151,192.3191680994877
0.6673340006673341,50.53395497633641,14.018434709185025,175.97304931601658,132.26869879047007,136.49629048364469,156.87346171221424,201.0803528728843,191.19297392171416
0.7007007007007008,73.4041269723517,22.92501796703021,176.10965885116102,126.33075953484084,136.0403640946147,157.6256060054557,201.545699982004,190.00558243788603
0.7340674007340674,93.59677760032513,33.00491737491291,170.94710033911866,117.97533354634312,135.40443120502428,158.17139336625726,202.11284755320304,188.800766785384
0.7674341007674341,111.16429448958804,42.28502720848965,167.63552191327622,109.86906192102862,134.44948437527077,158.3213053563794,202.93370360555852,187.97989643422503
0.8008008008008008,126.821311291909,50.11528156179718,164.5612025955806,102.56595715060972,133.3528614934098,158.18896040900728,203.4621725357217,187.52388768949567
0.8341675008341676,141.22984129728843,56.66053980515982,163.23887706951865,94.86608139831044,132.49281922605778,157.7562994854138,204.038479242558,187.8856049697643
0.8675342008675342,154.07303616965476,62.76282995941804,161.43753803285742,88.63866150144229,131.80379548655205,156.8222784873563,204.70485205118388,188.8416614464148
0.9009009009009008,164.91390350939062,68.2939217384316,157.06986799690833,82.98085139967998,131.21472719856814,155.68052352570805,205.57933815151603,190.06826528528984
0.9342676009342676,175.16588348260038,74.43174454385999,155.00969510573017,76.98022570502009,130.76772985275167,154.32605371028149,206.77413670059605,191.58530875245705
0.9676343009676344,177.26168122237533,73.81581672926467,155.54983314721338,70.32455576490656,130.01407384998083,152.97704932602403,207.7559155196761,193.53865210179617
1.001001001001001,178.5959842266046,72.9305806743486,156.0113073490237,66.81775243738704,129.77644221923182,151.61922701625244,208.6777093145689,195.44349680118304
1.0343677010343677,178.57896645846287,72.71159556130512,158.96826096990293,65.52606329028472,129.92763369720268,150.5630193384518,209.4278133499589,197.05083651364416
1.0677344010677343,178.5804129390561,73.73657958207853,161.16386731446391,65.61397365257082,130.32640701970325,149.74111598091315,210.20819620160844,198.45939137621212
1.1011011011011012,178.47746826212835,75.90740872866027,163.20296288803183,67.15360370587743,130.61516431112423,148.9983719882981,210.98520768285084,199.74174040806028
1.1344678011344678,178.12226722401422,78.92176720194729,164.8209957918492,69.76908396518863,131.04237712517696,148.4094168464427,211.8173360220816,200.855677927708
1.1678345011678346,177.3416622486434,82.67308530967128,165.7051833539927,73.51970189623528,131.80314109472857,148.0071609727532,212.3948823465309,201.75016681478445
1.2012012012012012,175.91913360542358,87.18474650848253,167.11880245009382,78.80859163094377,132.7307926022409,147.7625797917226,212.72867537043672,202.41776370260592
1.234567901234568,172.8928419545829,90.70104955977774,170.0062626499032,87.77404344949983,133.43021909733477,147.50730539952391,213.0543976306064,202.91434771531465
1.267934601267935,177.97756243706385,94.7028079543936,172.29877256657124,97.61053393492288,134.2637721203519,147.35723676667268,213.11213736111733,203.19911401690987
1.3013013013013013,180.5556566854988,100.00896033491723,173.0950839430372,107.42237955061752,135.34926781648744,147.34140147572248,212.7576624086938,203.30768413715447
1.334668001334668,180.82599952532192,105.97928410642416,173.6150452116226,115.37072236650285,136.4736980747048,147.47268594954946,212.1736906539452,203.23324548740644
1.3680347013680347,174.5009749263097,108.54275553826108,174.84541334978712,126.34053510395788,137.8471313540086,147.70497194664972,211.6026191653538,203.1617900159605
1.4014014014014016,168.08285956103376,111.75092205817568,175.1969490870958,137.17718261546634,139.241230391406,148.02043059462733,210.86466106054172,202.9126466163632
1.4347681014347682,161.76607161142124,115.7536456123758,174.5098987616309,147.65009247338594,140.63367675843656,148.41414178353145,209.9567438256608,202.4787636955729
1.4681348014681348,155.74502925939998,120.70078814706952,172.62450871147627,157.52869225007498,142.00215202664108,148.88118540341256,208.8757949468641,201.85308966055
1.5015015015015016,150.21415068689828,126.74221160846488,169.38102527471585,166.5824095178915,143.32433776756017,149.41664134432108,207.61874191030537,201.02857291825464
1.5348682015348682,145.36785407584426,134.02777794277,164.61969478943354,174.580671849194,144.57791555273462,150.01558949630748,206.18251220213787,199.99816187564704
1.5682349015682349,141.40055760816583,142.7073490961931,158.18076359371327,181.2929068163405,145.74056695370504,150.67310974942222,204.56403330851504,198.7548049396874
1.6016016016016017,138.5066794657914,152.93078701494207,149.90447802563898,186.4885419916892,146.78997354201218,151.38428199371572,202.76023271559035,197.291450517336
1.6349683016349683,136.88063783064885,164.84795364522506,139.63108442329457,189.9370049475982,147.70381688919676,152.14418611923847,200.76803790951715,195.6010470155529
1.6683350016683351,136.71685088466626,178.6087109332503,127.20082912476396,191.40772325642612,148.45977856679943,152.94790201604087,198.5843763764489,193.6765428412984
1.7017017017017018,138.20973680977193,194.36292082522567,112.45395846813108,190.67012449053087,149.03554014636092,153.7905095741734,196.20617560253896,191.5108864015328
1.7350684017350684,141.5537137878939,212.2604452673594,95.23071879147984,187.4936362222708,149.4087831994219,154.66708868368647,193.63036307394083,189.09702610321605
1.7684351017684352,146.94320000096008,232.4511462058596,75.37135643289407,181.64768602400417,149.5571892975231,155.5727192346306,190.85386627680785,186.42791035330865
1.8018018018018016,154.5726136308988,255.08488558693423,52.71611773045785,172.90170146808885,149.45844001220524,156.50248111705616,187.87361269729348,183.4964875587706
1.8351685018351689,164.63637285963824,280.3115253567915,27.10524902225504,161.0251101268836,149.09021691500897,157.45145422101365,184.68652982155112,180.29570612656224
1.8685352018685355,177.32889586910636,308.28092746163946,-1.6210033536304422,145.78733957274636,148.43020157747503,158.4147184365535,181.2895451357342,176.81851446364374
1.901901901901902,192.84460084123123,339.1429538476862,-33.62239305911476,126.95781737803507,147.4560755711441,159.3873536537262,177.67958612599614,173.0578609769753
