Time,Left Shoulder Angle,Right Shoulder Angle,Left Elbow Angle,Right Elbow Angle,Left Hip Angle,Right Hip Angle,Left Knee Angle,Right Knee Angle
0.0,7.933656957449875,0.8193661960214604,176.48930185214428,176.87511467862393,169.0382037950256,210.94806966455167,180.06328356925843,175.8670329180693
0.0333667000333667,8.17480548860033,0.6519807864878859,176.36964265046285,177.25796513725354,169.22073638094665,210.8655882212464,179.7934875230427,175.6634880408552
0.0667334000667334,8.373315791738952,0.5059994966719847,176.27859916555562,177.51450667447304,169.3866844533135,210.79184976739097,179.5486502665252,175.48572120504417
0.1001001001001001,8.531481322814159,0.3805128714076552,176.21469382327135,177.6548794977063,169.536492056481,210.7266206292604,179.3276838281824,175.3322383217017
0.1334668001334668,8.651595537774364,0.2746114555287964,176.17644904945877,177.6892238143772,169.67060323480374,210.6696671331296,179.12950023649054,175.20154530189322
0.1668335001668335,8.735951892567977,0.1873857938693067,176.16238726996662,177.62767983190955,169.78946203263652,210.62075560527327,178.9530115199261,175.09214805668412
0.2002002002002002,8.786843843143414,0.117926431263085,176.17103091064362,177.48038775772733,169.8935124943341,210.57965237196643,178.79712970696536,175.00255249713985
0.2335669002335669,8.806564845449087,0.0653239125440298,176.2009023973385,177.25748779925428,169.98319866425115,210.54612375948392,178.66076682608477,174.93126453432578
0.2669336002669336,8.79740835543341,0.0286687825460398,176.25052415590002,176.96912016391434,170.05896458674246,210.5199360941006,178.54283490576063,174.8767900793074
0.3003003003003003,8.761667829044793,0.0070515861030138,176.31841861217688,176.62542505913137,170.12125430616274,210.5008557020913,178.4422459744694,174.8376350431501
0.333667000333667,8.701636722231655,-0.0004371319511493,176.40310819201784,176.23654269232918,170.17051186686672,210.48864890973104,178.3579120606873,174.81230533691928
0.3670337003670337,8.619608490942403,0.0052931732174485,176.50311532127165,175.8126132709317,170.20718131320916,210.4830820432946,178.28874519289087,174.7993068716804
0.4004004004004004,8.517876591125454,0.0233330464427065,176.616962425787,175.3637770023628,170.23170668954478,210.4839214290568,178.23365739955636,174.79714555849893
0.4337671004337671,8.398734478729219,0.0527730325585229,176.74317193141263,174.90017409404632,170.2445320402283,210.4909333932926,178.1915607091602,174.80432730844018
0.4671338004671338,8.264475609702114,0.0927036763987971,176.8802662639973,174.43194475340613,170.24610140961448,210.50388426227687,178.16136715017873,174.81935803256965
0.5005005005005005,8.117393439992549,0.1422155227974271,177.02676784938973,173.9692291878661,170.23685884205807,210.52254036228447,178.14198875108835,174.84074364195274
0.5338672005338673,7.95978142554894,0.1422155227974271,177.18119911343868,173.5221676048501,170.21724838191375,210.54666801959024,178.13233754036537,174.8669900476549
0.5672339005672339,7.793933022319763,0.2003991165883114,177.34208248199417,173.10090021178334,170.18771407353768,210.5760335604708,178.13132554648766,174.89660316074293
0.6006006006006006,7.642160605262976,0.2663450026053492,177.46153739313797,172.6861776330475,170.14515059219872,210.6269089264449,178.13607005275455,174.9191102677463
0.6339673006339673,7.487219018289831,0.2663450026053492,177.60564157699744,172.42493485441713,170.09629450642035,210.6705117897472,178.14046166389664,174.93158707367576
0.6673340006673341,7.321001273166744,0.2663450026053492,177.7913140339077,172.22918482417683,170.05296727075546,210.7182000467192,178.13928534649708,174.9410944798404
0.7007007007007008,7.157426879695293,0.3539890220329715,177.98362577439354,172.13798663212987,169.99638739949654,210.7701412635829,178.14416581003096,174.9394914107342
0.7340674007340674,7.003375383233511,0.3539890220329715,178.17328575493232,172.1220308861868,169.9343394801544,210.82898512409275,178.15190001440408,174.9378632937857
0.7674341007674341,6.844731619533931,0.4459168607040907,178.3612972908937,172.1781257630745,169.86388562648227,210.89271257189043,178.1607552371913,174.942920198309
0.8008008008008008,6.647268629313564,0.4459168607040907,178.6254592135405,172.3576962566916,169.77626527208696,210.9629393294548,178.17681592202712,174.94776036047796
0.8341675008341676,6.444724241672789,0.4459168607040907,178.89073257199317,172.6568291192471,169.6656767939924,211.03706973692047,178.20295454881955,174.94657023151888
0.8675342008675342,6.241852674937435,0.5132196277581375,179.1630890780503,173.06826815928548,169.5212420040634,211.10453438637123,178.25108003942822,174.9397811011489
0.9009009009009008,6.081095733807732,0.5132196277581375,179.3611176949216,173.4932608972494,169.34705341863213,211.16853728309903,178.3148270903096,174.92151592362947
0.9342676009342676,5.970667808109623,0.5827299545477821,179.46510525782938,173.95458748693136,169.1693154288987,211.2127990434164,178.38361459378285,174.9068123460291
0.9676343009676344,5.9097169083876375,0.5827299545477821,179.50718486412495,174.50872892189784,168.99634585247784,211.2521497659825,178.4540967633339,174.8913832595505
1.001001001001001,5.894322261415335,0.6422833843717439,179.52171861052648,175.08503527027372,168.84204498361458,211.2843493184573,178.5217640801885,174.86093025078625
1.0343677010343677,5.894322261415335,0.6422833843717439,179.5087988655526,175.71688846771525,168.70634026750028,211.31773117184852,178.58419619870764,174.81606647985575
1.0677344010677343,5.894322261415335,0.6986315546843144,179.48001966345447,176.39500053808683,168.589707344963,211.34613606538264,178.64081189144025,174.76522937559304
1.1011011011011012,5.894322261415335,0.6986315546843144,179.41887075141136,177.20665813891992,168.49533135695793,211.3760394327213,178.68919049558488,174.71364425545949
1.1344678011344678,5.894322261415335,0.7758903648600225,179.33882609169518,178.1237896308063,168.42569104818193,211.4079279132173,178.7296370134592,174.64732875210484
1.1678345011678346,5.894322261415335,0.7758903648600225,179.24580283911305,179.12938207624947,168.3782126978884,211.4345608958489,178.75350485555856,174.57595982600824
1.2012012012012012,5.894322261415335,0.8611792448001684,179.13120128818622,180.0172530467602,168.34588190576758,211.45437247291045,178.77122724888054,174.52802891198365
1.234567901234568,5.894322261415335,0.8611792448001684,178.9566345826421,180.73872175540475,168.3329053670594,211.4725936973643,178.77569842918166,174.50320709600075
1.267934601267935,5.894322261415335,0.8611792448001684,178.73049730529465,181.4206714167984,168.3255664053497,211.50129687611349,178.78104127300608,174.4892203243653
1.3013013013013013,5.894322261415335,0.9889460107953516,178.34078243736087,182.20840708743697,168.32895967982924,211.5225304541632,178.78382145387968,174.49735295293212
1.334668001334668,5.894322261415335,0.9889460107953516,177.93603479847155,182.93890301221987,168.33389294734116,211.53295571834903,178.78654881320296,174.54286666365886
1.3680347013680347,5.894322261415335,0.9889460107953516,177.64112779373383,183.61769109716212,168.352893995288,211.5455909849925,178.7796799385011,174.6067121587396
1.4014014014014016,5.894322261415335,0.9889460107953516,177.42640968294984,184.24638472883024,168.39192114049888,211.5547566184436,178.75724592580855,174.6936406853869
1.4347681014347682,5.894322261415335,1.1166638629120964,177.1173987183611,184.7166579404234,168.44527215521342,211.5309513769737,178.73239656291847,174.83957251363788
1.4681348014681348,5.894322261415335,1.1166638629120964,176.98093954988502,185.08192501076047,168.53248573878207,211.5093162925616,178.703672099804,175.01197383403758
1.5015015015015016,5.894322261415335,1.1166638629120964,177.0115337098281,185.48961250154085,168.64901897576965,211.48691606776512,178.67948427278012,175.2222069822008
1.5348682015348682,5.894322261415335,1.1166638629120964,177.11146696064154,185.96996372506504,168.780954877836,211.4742738248724,178.6651994851114,175.42758855995913
1.5682349015682349,5.894322261415335,1.2489552020622006,177.2484583158646,186.4481325773305,168.92532796614063,211.47793859505447,178.66086738416558,175.64770513540643
1.6016016016016017,5.894322261415335,1.2489552020622006,177.5939517984323,186.9269021407717,169.08523156635783,211.5103299087004,178.66484673303506,175.8295960967973
1.6349683016349683,5.894322261415335,1.2489552020622006,177.6924757540417,187.4294017872313,169.25289438730368,211.59610541260287,178.67189291589185,175.9517176425408
1.6683350016683351,5.894322261415335,1.2489552020622006,177.86022474618383,187.9497196862745,169.4348437155558,211.73901826035188,178.67740380771983,176.00089683907734
1.7017017017017018,5.894322261415335,1.3700094599594317,178.18319980418565,188.6146513385608,169.6427756317684,211.95968962377825,178.67785333510454,175.97035746906806
1.7350684017350684,5.894322261415335,1.3700094599594317,178.49307570327858,189.25930796046728,169.85157788458565,212.19823712686448,178.68703005654072,175.89477751256837
1.7684351017684352,5.894322261415335,1.3700094599594317,178.99153716933898,189.85327737693785,170.06302540872724,212.4561358647276,178.70517467988026,175.78022523682205
1.8018018018018016,5.894322261415335,1.4751905297209298,179.511228458154,190.2201223324281,170.30045566545917,212.780822315117,178.71375731339157,175.60668736556894
1.8351685018351689,5.894322261415335,1.4751905297209298,179.9937853871919,190.48972734712925,170.54071925084452,213.12823412404308,178.72259536952348,175.39438498411454
1.8685352018685355,5.894322261415335,1.4751905297209298,180.5955254220209,190.62033097232512,170.7728737116646,213.4623814241847,178.7349681443203,175.17404489755435
1.901901901901902,5.894322261415335,1.5711109893177462,181.29378594726708,190.6739770305131,170.98351939201382,213.7689572828924,178.7565052385286,174.94090641361052
1.9352686019352687,5.894322261415335,1.5711109893177462,181.96746053182005,190.78501013266973,171.15594409943677,214.021168841884,178.80268209417088,174.7000793094837
1.968635301968636,5.894322261415335,1.5711109893177462,182.58503368990384,190.8279304703095,171.27715452959197,214.20154287136623,178.8727655584938,174.46079344340393
2.002002002002002,5.894322261415335,1.6657696203678864,183.17179258622417,190.7631943345428,171.39169668514032,214.3270666586133,178.9476392242902,174.21901572893188
2.035368702035369,5.894322261415335,1.6657696203678864,183.6021572910548,190.57968822257843,171.48191670219418,214.38543143689503,179.02886366762112,173.99106010631374
2.0687354020687354,5.894322261415335,1.6657696203678864,184.0239499360229,190.3689400398285,171.59012581390633,214.39859496878785,179.10554606950538,173.7720848319829
2.1021021021021022,5.894322261415335,1.7605342095586944,184.3853161377391,190.16684471288443,171.6740018966651,214.3752866705209,179.18803070857385,173.5536206869577
2.135468802135469,5.894322261415335,1.7605342095586944,184.87109910937724,190.02302345786111,171.73120010015003,214.282713899008,179.27657004968154,173.35396446446447
2.1688355021688355,5.894322261415335,1.7605342095586944,185.44684750101024,189.89783550180692,171.76016521904498,214.13011948621963,179.36987620627,173.17872519875357
2.2022022022022023,5.894322261415335,1.856732045816556,185.86290202547568,189.5899612375221,171.7559965119989,213.9120393661736,179.4756703746398,173.042559164473
2.235568902235569,5.894322261415335,1.856732045816556,186.3068959765856,189.36333477939127,171.71723679189932,213.6410233383724,179.58576037099888,172.93720719096038
2.2689356022689355,5.894322261415335,1.93316656898916,186.64925809912808,189.10607672521152,171.63784615462652,213.31303546051103,179.69582982632247,172.8696428329426
2.3023023023023024,5.894322261415335,1.93316656898916,187.01399133456923,188.8892901842337,171.529747564177,212.9282968882544,179.80211176407894,172.8639410595353
2.335669002335669,5.894322261415335,1.93316656898916,187.53379403340296,188.5058285380504,171.40280828251366,212.49552825328385,179.90636206397994,172.9264039427364
2.369035702369036,5.894322261415335,2.016618378089792,187.9738036354496,187.90370382406172,171.27037569964767,212.03177850351508,179.99686504604932,173.0261061471368
2.4024024024024024,5.894322261415335,2.016618378089792,188.4565927656757,187.41846306681603,171.13346612178407,211.55899312410384,180.0823011611902,173.14586136830542
2.4357691024357693,5.894322261415335,2.1172208686803016,188.7355553588812,186.7590674804816,170.99633360633698,211.04301546235604,180.15350669835925,173.32469903418527
2.469135802469136,5.894322261415335,2.1172208686803016,189.3257199147421,185.9639628360694,170.86105449345317,210.509583250923,180.2095092433844,173.5488260916009
2.5025025025025025,5.894322261415335,2.217350050568139,189.9552117188166,185.11998241866385,170.7324815591403,209.9709599047242,180.25148389485733,173.79843808870243
2.5358692025358693,5.894322261415335,2.294817861983795,190.5883850627444,184.5972750275384,170.60614358132864,209.42940961520355,180.29251678536588,174.0783007371787
2.569235902569236,5.894322261415335,2.336173685953681,191.05721821070668,184.0032372264836,170.48651234871082,208.89388489677663,180.34114355821063,174.38935144090732
2.6026026026026026,5.894322261415335,2.358618947057446,191.5840406056136,183.80077174663188,170.3706945601325,208.4182664978324,180.3873403240472,174.67219626821836
2.6359693026359694,5.894322261415335,2.353093763915789,192.0441060731993,183.9497446617029,170.27738327199674,207.9757659273428,180.437396794441,174.9339583243538
2.669336002669336,5.894322261415335,2.3146600346607533,192.2847721560796,184.32860250600584,170.20693797817623,207.5886038435117,180.48370783544263,175.13462058692434
2.702702702702702,5.894322261415335,2.2256181948048,192.2905551220102,184.8961178130548,170.173065899373,207.26015507977988,180.51836231197723,175.29222761227052
2.736069402736069,5.894322261415335,2.117375837933713,192.20165242439003,185.3618706335737,170.17355289432024,206.9945751346521,180.54383518312616,175.36355070932166
2.7694361027694363,5.894322261415335,1.96714082945002,191.8658127714593,185.9724048104457,170.2038872854285,206.78915876292413,180.55849771886875,175.3782691258429
2.802802802802803,5.894322261415335,1.828767553623158,191.5863818567626,186.66576657200355,170.27231613482255,206.6372751938137,180.55737071485368,175.35465243083752
2.836169502836169,5.894322261415335,1.7284845018984936,191.41594434025973,187.44580272510547,170.3763965487071,206.5323358277892,180.53830544864533,175.29611926809707
2.8695362028695364,5.894322261415335,1.621119091942545,191.3562007847528,188.31443594652708,170.49985758129253,206.43662293870784,180.5056375754033,175.22646938830732
2.902902902902903,5.894322261415335,1.5532790059310029,191.4763830088749,189.4072076471255,170.6415549422583,206.38742878493423,180.4545537613389,175.13730220751265
2.9362696029362696,5.894322261415335,1.47723548595662,191.55585527345585,191.2166355090418,170.81417307073872,206.37396009795395,180.3833548239793,175.02783232993667
2.9696363029696364,5.894322261415335,1.4196155872471865,191.85086087052736,194.7346271248836,171.0051614245666,206.36115533238817,180.3105149008317,174.93292656408784
3.003003003003004,5.894322261415335,1.4289569967012383,192.33720640699832,196.8597710079009,171.21007317609028,206.3276698779088,180.24602744260247,174.84421441152136
3.0363697030363697,5.894322261415335,1.4947994297736833,192.86862065346307,198.08225757904432,171.44112693649538,206.2797289756744,180.18697987405235,174.75357864386444
3.0697364030697365,5.894322261415335,1.655663191024275,193.32337770462283,198.87599111504764,171.6906585956495,206.2142375077483,180.14008987353844,174.6621348442398
3.103103103103104,5.894322261415335,1.88931144352834,193.766869408974,199.5933131672636,171.96562813654916,206.15144290537623,180.0975428955622,174.56286847498083
3.1364698031364697,5.894322261415335,2.2155234501182943,194.13529566011889,200.46646837006008,172.2762497353305,206.09314148326547,180.05791339782522,174.45116404988283
3.169836503169837,5.894322261415335,2.2155234501182943,194.39625036350336,201.4044043537573,172.57754631394496,206.02151305411465,180.033858453732,174.34216692710166
3.2032032032032034,5.894322261415335,2.2155234501182943,194.604631617788,201.9726850978713,172.89331725488074,205.95445650948164,180.01226347886143,174.2253017288038
3.2365699032365702,5.894322261415335,2.5770651283908617,194.8139311724377,202.7106201515912,173.1860153885849,205.8759868174089,180.004404774494,174.12136166248305
3.2699366032699366,5.894322261415335,2.5770651283908617,195.22896869204865,203.82994001598647,173.4838327065222,205.76385836544463,180.0026508995234,174.0328943520126
3.3033033033033035,5.894322261415335,2.5770651283908617,195.8098447828295,205.0143168323428,173.7739507716901,205.6392428917547,180.011976084652,173.94275674364388
3.3366700033366703,5.894322261415335,2.5770651283908617,198.4827712594995,211.5208653537758,174.04794947967034,205.51963677849665,180.02185057924356,173.856572724741
3.3700367033700367,5.894322261415335,2.5770651283908617,198.47155550943643,216.68436516901664,174.33443842461003,205.40434790700428,180.01930503965036,173.765100730354
3.4034034034034035,5.894322261415335,2.5770651283908617,200.74142032938715,221.9388955005,174.62289869437825,205.30166653792296,180.01065085248362,173.67768242801836
3.4367701034367704,5.894322261415335,2.5770651283908617,202.59360478830573,225.1156899588073,174.89219288954396,205.22912943298616,180.00239685349845,173.58723415585234
3.4701368034701368,5.894322261415335,2.5770651283908617,203.9000884473545,227.7610520384317,175.17353270818427,205.1670856331732,179.99535783505783,173.49520302984095
3.503503503503504,5.894322261415335,2.5770651283908617,204.4676206739509,228.7617006496941,175.46473399019527,205.1330316021584,179.98990327905753,173.40029195704332
3.5368702035368704,5.894322261415335,2.5770651283908617,204.39534631030327,228.05639809858337,175.76169347879363,205.11292409945136,179.98313991474888,173.30538184662453
3.5702369035702373,5.894322261415335,2.5770651283908617,203.8319262694912,224.08153766697703,176.0022485185737,205.0872147444016,179.9893128210501,173.2314949723518
3.603603603603604,5.894322261415335,2.9427806866883297,202.99182923014345,218.5715068192839,176.23372706387664,205.0700326609939,179.99508920299473,173.1555871521821
3.6369703036369705,5.894322261415335,2.9427806866883297,201.5723358630896,212.7739821396997,176.4629536918187,205.0571973224986,180.00317538998655,173.08163773032737
3.670337003670337,5.894322261415335,2.9427806866883297,199.81578738394543,207.89162235033567,176.69018813751896,205.04507284171208,180.0152027024289,173.0019328309292
3.703703703703704,5.894322261415335,2.9427806866883297,197.481832720274,200.89131498181047,176.90533523927704,205.02206587769257,180.0336043433626,172.91873549735175
3.737070403737071,5.894322261415335,2.9427806866883297,194.9568130114125,193.33875778879013,177.11109657211668,205.00146457247988,180.05368557532023,172.82529665343102
3.770437103770437,5.894322261415335,2.9427806866883297,192.17265169431343,184.8910651367812,177.33358053601103,204.97659026953983,180.0705931079353,172.72793881808622
3.803803803803804,5.894322261415335,2.9427806866883297,188.82311523282613,175.19443625506997,177.54542539042876,204.9350960367068,180.08438878283778,172.6335931293462
3.8371705038371706,5.894322261415335,2.9427806866883297,185.3021118551543,165.18388156080238,177.74536194700227,204.8832585571956,180.08623282072517,172.5466386590955
3.8705372038705375,5.894322261415335,2.9427806866883297,181.8981728633761,152.27873662210965,177.91911696570193,204.8415284254133,180.08182445119027,172.47328079050476
3.903903903903904,5.894322261415335,2.9427806866883297,178.40817727174374,141.44072535987146,178.1058728452356,204.7749050099584,180.083716003963,172.40651334921245
3.937270603937271,5.894322261415335,2.9427806866883297,175.2546653220298,127.30458159367308,178.2602804214716,204.71613330817937,180.08622482651592,172.34899798036108
