Time,Left Shoulder Angle,Right Shoulder Angle,Left Elbow Angle,Right Elbow Angle,Left Hip Angle,Right Hip Angle,Left Knee Angle,Right Knee Angle
0.0,26.46234127244105,26.52639134824669,163.47628335340505,164.86109664024045,145.43113465461153,147.24928310958245,188.98573956914663,194.16213953381123
0.0333667000333667,25.750123759263435,26.641037773381694,161.75309804807432,165.57002823055376,145.28301657556068,147.72921332720188,189.1315334489102,193.9835037993465
0.0667334000667334,25.15281429267592,26.749037762275734,160.28298942263442,166.21544037903195,145.15891161448448,148.1441148975644,189.23717449470573,193.8224229015868
0.1001001001001001,24.66327117346556,26.850780138380912,159.05213010248485,166.80115158249518,145.05737989365835,148.4972619959031,189.3059020032824,193.67838976926845
0.1334668001334668,24.274352702419392,26.946653725149343,158.046692713025,167.3309803377636,144.97698153535762,148.7919287974509,189.34095527138945,193.550897331128
0.1668335001668335,23.97891718032448,27.037047346033127,157.25284987965438,167.8087451416573,144.91627666185775,149.03138947744085,189.34557359577607,193.4394385159017
0.2002002002002002,23.769822907967843,27.12234982448437,156.65677422777242,168.23826449099647,144.87382539543407,149.21891821110586,189.3229962731916,193.34350625232628
0.2335669002335669,23.63992818613655,27.202949983955182,156.2446383827786,168.62335688260123,144.84818785836202,149.357789173679,189.2764626003852,193.2625934691381
0.2669336002669336,23.58209131561765,27.279236647897665,156.00261497007233,168.96784081329173,144.83792417291698,149.45127654039322,189.20921187410607,193.1961930950736
0.3003003003003003,23.58917059719818,27.351598639763925,155.9168766150531,169.27553477988812,144.84159446137437,149.5026544864815,189.12448339110352,193.1437980588693
0.333667000333667,23.654024331665195,27.42042478300607,155.97359594312036,169.55025727921054,144.85775884600952,149.51519718717688,189.02551644812675,193.1049012892616
0.3670337003670337,23.76951081980574,27.48610390107621,156.15894557967357,169.79582680807908,144.88497744909787,149.49217881771233,188.91555034192496,193.0789957149869
0.4004004004004004,23.928488362406856,27.54902481742644,156.45909815011217,170.01606186331398,144.92181039291478,149.4368735533208,188.79782436924748,193.06557426478184
0.4337671004337671,24.1238152602556,27.609576355508874,156.86022627983562,170.21478094173528,144.96681779973568,149.35255556923534,188.67557782684344,193.06412986738275
0.4671338004671338,24.348349814139016,27.66814733877562,157.3485025942434,170.3958025401632,145.01855979183597,149.24249904068893,188.5520500114621,193.0741554515261
0.5005005005005005,24.594950324844152,27.725126590678773,157.91009971873493,170.56294515541782,145.07559649149098,149.1099781429145,188.4304802198527,193.09514394594845
0.5338672005338673,24.856475093158053,27.78090293467045,158.5311902787097,170.72002728431934,145.13648802097617,148.95826705114516,188.31410774876448,193.1265882793862
0.5672339005672339,25.125782419867964,27.835865194202967,159.19794689956845,170.87086742368922,145.19979450256804,148.79063994061505,188.20617189494823,193.1679813805773
0.6006006006006006,25.12249188699053,27.81189821694421,159.49730409747005,170.92219159904795,145.29891069655594,148.6611288030093,188.1002074126426,193.20069020891825
0.6339673006339673,25.186171201592007,27.80280393097963,159.92741207253755,171.0101153339797,145.39369938953783,148.53671399953592,188.0400282875995,193.2298220006357
0.6673340006673341,25.343702635655244,27.860720062668424,160.51658319444903,171.24997842054316,145.52572492186366,148.42436642861102,187.87825577703893,193.29290311852412
0.7007007007007008,25.554599442149573,27.96032711241391,161.21750012873233,171.58175463294947,145.6348619959482,148.29385558613765,187.7552285643132,193.38808306636048
0.7340674007340674,25.712627923633587,28.0437053520393,161.79204528352005,171.9041829754295,145.6790075172664,148.12837443272952,187.68548229902152,193.5157435063153
0.7674341007674341,25.87965164807768,28.13620082443874,162.39880473889943,172.23831103350818,145.6713866286258,147.93034907185245,187.72263766774944,193.6528284428605
0.8008008008008008,26.003833123677285,28.231444912833503,162.96529543280195,172.58263335789368,145.69475183210767,147.71618524879003,187.7542133323172,193.8173668550185
0.8341675008341676,26.0774256640013,28.33680928870229,163.4613583506605,172.9287000373391,145.69817096104796,147.48798147433342,187.86048338873968,193.9828456957561
0.8675342008675342,26.13553290446721,28.48029104673832,163.97036385754316,173.32029725156335,145.65661601448878,147.27801757011198,188.1146656144576,194.11273680831243
0.9009009009009008,26.20576497821202,28.644607101320013,164.51900231310427,173.72118062439057,145.56966684945357,147.06831074570007,188.48848367337808,194.227355546608
0.9342676009342676,26.18623288799953,28.84166197634925,164.85476574155967,174.2563002043373,145.43623452611243,146.78592459038006,188.9426838604628,194.35214696649268
0.9676343009676344,26.20260944817788,29.02136750455433,165.2271321979841,174.75503433057142,145.2863558717134,146.50892007711053,189.396189040861,194.4899289101304
1.001001001001001,26.235838552265715,29.138764162141715,165.64404205699492,175.04139091625038,145.11426835471528,146.26370624697722,189.91225052307985,194.59450768350936
1.0343677010343677,26.31850403095217,29.261386820148594,166.17847682953695,175.26558876396996,144.9802207803501,146.0414605359051,190.47302234320367,194.6717552404837
1.0677344010677343,26.40834075290578,29.41635884170276,166.69650934214283,175.46231892105197,144.94019799177724,145.85026018037792,190.9075941304484,194.752159601621
1.1011011011011012,26.533376336414968,29.56059713501242,167.25733479323085,175.57490874999118,144.84474718457346,145.66699810084583,191.41726435366064,194.8264586460353
1.1344678011344678,26.666473666174443,29.885434094329533,167.76446773484994,177.32361422812463,144.6492811943896,145.4786773913039,192.05071258411385,194.91239961309333
1.1678345011678346,26.773830283814668,30.003442085329617,168.23404805923292,177.267369730752,144.34960303788287,145.2749788969007,192.7873543699016,195.0141336828128
1.2012012012012012,26.90808069733625,30.030969594709013,168.71764420036894,176.784788563798,143.9184945676446,145.04784407869184,193.6154612010365,195.13931553558743
1.234567901234568,27.03031509723976,29.98976786723474,169.1538192723775,176.049162071458,143.40927470870727,144.83393105037757,194.54646786092047,195.2432407885524
1.267934601267935,27.11439948902126,29.92254292182028,169.49980349150468,175.1718129774649,142.9476912685985,144.56432558853558,195.4373037866032,195.36600620095905
1.3013013013013013,27.2187166765194,29.87248005431542,169.92078593451825,174.26352281090416,142.4562618921564,144.29232042092434,196.38787991629644,195.4754956842292
1.334668001334668,27.400844643048394,29.93554865494804,170.49746650089676,173.4981842820167,141.90311920285055,144.0132847854454,197.45537148540456,195.5753460701105
1.3680347013680347,27.68644093747865,29.93491604159921,171.35298996048718,172.63046020778864,141.34016162455524,143.73986628728787,198.57142890195632,195.6568398979328
1.4014014014014016,27.897066512352563,29.908890250619343,172.03001513419156,171.56537456748023,140.697798515877,143.486701688575,199.77942618533143,195.63369616080652
1.4347681014347682,28.22816586361879,29.76209907521133,172.91519507413742,170.3548835324466,139.99030748206928,143.2291823755336,201.05550412132007,195.565330260192
1.4681348014681348,28.5997979637782,29.477053311095943,173.83189969356314,169.01168142051745,139.30367910376194,142.97956223961614,202.26195286048707,195.4572873615961
1.5015015015015016,29.018243598236044,29.08040665807728,174.8641080053327,167.6292418750741,138.6576866386405,142.7946547569113,203.3657239234741,195.3165036444541
1.5348682015348682,29.48294821672031,28.67430383890945,176.0002223091559,166.45327658472362,138.01416309855395,142.65991634777154,204.43240731320063,195.1684592760249
1.5682349015682349,29.922386422635213,28.32227466240283,177.16841014575587,165.9672565297517,137.37120702031817,142.5883709013935,205.47532034555445,195.0080874779929
1.6016016016016017,30.3226349087982,27.9675653411843,178.14118146561054,167.0077495869954,136.7499563605501,142.65487608369693,206.45300328532863,194.7969170513672
1.6349683016349683,30.57420521775073,27.58641687669961,178.97178756399296,169.3786745193512,136.13563456639977,142.83455327588467,207.36906704458107,194.53081552815067
1.6683350016683351,30.78564396352981,26.772972299947703,179.68019609126463,166.44299251735958,135.53016765235355,143.0635831571939,208.21993073700463,194.254241616316
1.7017017017017018,31.06209341944723,25.805921358299155,180.67871678377148,163.02108963120816,134.9440602043228,143.3194188847522,209.08353512837527,194.008934460436
1.7350684017350684,31.7314647381222,24.74321015111468,182.33313004210527,159.65807309146734,134.38905484485284,143.57444684099542,209.9493795819632,193.82487207434244
1.7684351017684352,32.34804913165371,23.64439915672319,184.0713672673404,156.53638536511727,133.81320810160489,143.8372401768761,210.7218327168925,193.69384383352528
1.8018018018018016,32.995642219870064,22.597915245232187,185.05913969804467,153.88095862953085,133.2163243593921,144.10549882733525,211.36522046726245,193.61614692721807
1.8351685018351689,33.36615968048147,21.47071600677505,186.18171391508395,151.3137310684807,132.61053515504392,144.36855069393687,212.03369732416948,193.54838929237272
1.8685352018685355,33.60933101044024,19.794095076802588,187.03109718639777,152.10471849356043,132.04236957371725,144.6547904010927,212.61240813737075,193.4654874662212
1.901901901901902,33.64371354433341,18.014562156148468,187.9839266935476,151.9958998062535,131.5572787626516,144.97322146614357,213.14255213139285,193.37041262745203
1.9352686019352687,33.266780839085904,16.41463949099601,189.25854600874305,150.5579417694959,131.15007691450745,145.31491134015457,213.6000314667172,193.2748966340017
1.968635301968636,32.572113948362514,14.990140234591784,190.7611170154688,148.57232828535138,130.7451778125217,145.68461755257667,214.110329691846,193.1291839172286
2.002002002002002,31.4122110975166,14.06879442896916,191.5180389420248,145.1817374125577,130.26881123930923,146.11250019355737,214.61794533967827,192.94365355374228
2.035368702035369,30.13450031378904,13.345772138787549,192.2584067124845,141.20356778148286,129.8529987552736,146.52908073166338,215.03094473992755,192.7682740891584
2.0687354020687354,28.68505022292692,12.993638403505834,193.3072421272088,137.98622442991166,129.54883412367985,146.91777883163132,215.30674335395628,192.5934863844092
2.1021021021021022,27.309025674072394,12.720778132922314,195.0646056764952,134.53408279785012,129.39236284112974,147.37564535528514,215.4679629098401,192.4056451021824
2.135468802135469,24.969408424456045,12.257776256935587,199.2295644800504,130.99267698891293,129.36260602891542,147.87183255640835,215.595828321946,192.1989288283013
2.1688355021688355,22.840464091223605,11.735856253629963,202.56789767703967,127.32807973127636,129.46335873498833,148.36593052792395,215.6568538373901,192.0186901295505
2.2022022022022023,20.76914058956426,10.949576866898504,204.927285542818,123.6443066881348,129.60858760602824,148.88268092240546,215.659354626009,191.8937253669713
2.235568902235569,19.123456962628904,10.130841691306134,205.56304427886,120.02589299674106,129.68333066387132,149.32287601228515,215.8430861130824,191.78475942141185
2.2689356022689355,17.861850999347503,9.46425687688375,208.2072436522496,116.9406149129162,129.81699294396722,149.67913849680346,216.06975601764293,191.7035337018588
2.3023023023023024,16.8921243937304,8.821300331605338,209.65040079914408,111.44869503298476,129.9909398384006,149.98828011754003,216.291918499824,191.6207499989435
2.335669002335669,16.279686724268977,9.29984439597579,211.0698042945746,106.18967539282158,130.19081190742884,150.25038564349285,216.46376775886108,191.52341453920968
2.369035702369036,7.114277205326364,7.485246762659697,210.41341617067613,98.8250462055204,130.51205626654607,150.44758570940385,216.6206746780763,191.40590015688497
2.4024024024024024,7.114277205326364,7.783369434699065,206.2387789329298,93.27678615246968,130.92753204832013,150.53949563285556,216.7934827630179,191.28629469283945
2.4357691024357693,7.114277205326364,8.670699406817539,202.7089548637747,88.51717232786436,131.2733811386484,150.61478342518788,217.13474414566764,191.1079279014812
2.469135802469136,7.114277205326364,10.021585789113114,201.1151108357721,84.1805264448279,131.65027947211428,150.62228200999093,217.5648013361404,190.8922240573852
2.5025025025025025,7.114277205326364,11.596130606936548,199.7949798847297,80.43968943471201,132.0349033861961,150.5971378942763,218.00189159285213,190.62538404503945
2.5358692025358693,7.114277205326364,13.295021496677156,199.13836100375912,77.447776433239,132.44655580625422,150.53576602093636,218.43831158096737,190.3156976715416
2.569235902569236,7.114277205326364,15.150915053255025,197.7819023570013,75.1992361438598,132.92560825952413,150.44085441166757,218.8106970647548,190.0516256535154
2.6026026026026026,7.114277205326364,17.54120477535558,195.1390822804948,72.74390061823128,133.37984118562443,150.40116205078346,219.06947932720044,189.84801567346275
2.6359693026359694,7.114277205326364,19.61718351700578,193.04327479242832,70.79961947931642,133.73579870972048,150.36897887668272,219.4000352514999,189.6715098095948
2.669336002669336,7.114277205326364,13.47657756783135,190.477382936196,70.1424848746261,133.95291871299395,150.3326481283483,219.816141345397,189.49268107210497
2.702702702702702,7.114277205326364,10.413923401616104,187.7977806208864,69.9945182803994,134.12770834268284,150.32972240547016,220.23553427797765,189.29019740980573
2.736069402736069,7.114277205326364,9.638331577019784,185.0586234731413,70.09866790463997,134.27670367613172,150.37176400306646,220.6130746195444,189.06512266383447
2.7694361027694363,7.114277205326364,11.213028600941772,182.5028034149445,68.4873841691869,134.37788535392588,150.34966065856472,220.975484603122,188.8673244380858
2.802802802802803,11.056782613713462,14.99323967602095,180.3909743747488,63.91638256285168,134.45759250705837,150.2437014158876,221.3122525986273,188.71424398064465
2.836169502836169,15.296430659262311,20.6059495930527,178.70798156212237,64.3385593464705,134.51592132623188,150.12141735070037,221.59368455504,188.5778470158147
2.8695362028695364,18.791684041518742,28.19771678279052,177.4620217674715,66.08730260954346,134.55413262765552,149.95790184341746,221.8447850418761,188.4711052564789
2.902902902902903,22.043000167078944,37.385973175731,175.86709576270655,69.06367750640777,134.55591939184848,149.79966477022185,221.9991306329913,188.3621014762597
2.9362696029362696,22.76336973561748,48.06725063392004,174.24494211433702,72.93198392744927,134.5629291577482,149.64293265554312,222.1044175957785,188.2576360997714
2.9696363029696364,23.18172848149203,59.52950048962238,173.6966162203398,77.96452586443074,134.60776592697758,149.5049777643269,222.15087368633445,188.1455392833521
3.003003003003004,17.771572206571488,71.62964694514042,173.45453813911632,84.66071225652918,134.61305426512507,149.39594890091038,222.16684263819832,188.0224278874052
3.0363697030363697,14.521504195244203,85.04006844485296,173.88388590049087,88.27248774164306,134.56545034485953,149.31015215955375,222.19198289493264,187.9103371496748
3.0697364030697365,14.619795886827577,98.817318406168,174.56017387709605,92.10858006772445,134.43028061945623,149.2365188174341,222.1149299028561,187.8114224877276
3.103103103103104,16.995881788893286,121.41984274054268,175.35744316675263,96.26282810239758,134.29680500469914,149.2132918268715,222.02148079074112,187.6916532452784
3.1364698031364697,21.59018626424582,134.34211298978556,176.2191588001378,100.08141434344846,134.1713431649138,149.23928205223166,221.9194122055888,187.5650835612228
3.169836503169837,28.189254247125007,147.18175301481142,178.3264855675531,104.8014477076017,134.15878111443905,149.27152294796528,221.7954499239308,187.4422377133685
3.2032032032032034,36.40850172782076,159.8205790663827,182.2995272535807,110.42030909701772,134.09019902396665,149.42370359760255,221.6512788625387,187.43952580683347
3.2365699032365702,45.99278453581217,172.39347766684682,185.8024456159116,114.86427868521658,134.0584044447276,149.47910864031988,221.54919171140887,187.4151260202952
3.2699366032699366,56.79514347523339,184.70609076905083,189.8803791884967,117.88467571644313,134.11071720629047,149.54853114423528,221.38105298534688,187.40880823360763
3.3033033033033035,68.10053091709169,197.4175674679595,190.93340997365004,119.77132503188312,134.20882714751613,149.53772922549769,221.2076166591044,187.3492509803314
3.3366700033366703,80.18291686361938,209.5928255163087,190.276346242303,121.18385899695352,134.33027395398892,149.60880581564098,221.0188270221337,187.19173159702729
3.3700367033700367,92.48062196730956,221.38636469849976,189.58591799734887,122.2151843584286,134.4991727429866,149.62280909154651,220.81041692956452,187.00790263855347
3.4034034034034035,105.12057692438536,232.58680211223304,190.2959232998588,122.57081649947852,134.63034693970457,149.6612044904729,220.6466983979745,186.8043123087204
3.4367701034367704,117.81493708711088,242.9580102120455,188.20201636731645,121.42965890954058,134.67374665012957,149.7560647998765,220.5400444972876,186.58030511904184
3.4701368034701368,130.79346613898738,252.2565612134281,186.28411060087168,119.25369684265868,134.65048851016357,149.92124511401116,220.50347741457728,186.32817410492933
3.503503503503504,143.64141724314325,259.4562076248085,182.98197611141785,116.82994323768926,134.64992053076728,150.11894577585826,220.544486843812,186.0784141422603
3.5368702035368704,156.12979599258125,268.2748094966202,180.48470571275007,116.34832129259644,134.6649135502044,150.42143530761695,220.60340117400165,185.8051316707622
3.5702369035702373,168.4876207340149,274.5280467194643,181.52092128969107,114.87323388181798,134.61803704269028,150.72135408187322,220.662904920661,185.56208726951243
3.603603603603604,180.08255061577205,279.6573860361859,182.7582852698188,111.68627468837263,134.5983900025535,151.0549749489421,220.72967581811736,185.34357758559244
3.6369703036369705,191.2248185085552,282.6374766017439,182.58387141203144,109.36550102689807,134.57024082987127,151.33607361353853,220.78891034281216,185.20113226397632
3.670337003670337,201.42518423879213,282.99187596686124,182.0928086519259,107.07720790879262,134.52651444343434,151.58677126324392,220.86171177618652,185.1401439228013
3.703703703703704,211.92974266060227,281.70596898872634,181.2911659808179,104.26271595314094,134.5529012507246,151.74144605969065,220.9045651838925,185.25130449952144
3.737070403737071,222.2567909385904,279.65817420993017,182.45105158342704,98.51306794554462,134.06487974408793,152.1213316656546,221.88800983130443,184.95985113072936
3.770437103770437,231.91995138918028,274.65750225442383,184.3149496425807,94.22663900792524,133.60093600405048,152.26471439755426,222.74101136442573,184.8643589554204
3.803803803803804,240.4852983825276,266.0631303908264,185.34547553785103,92.7302710477476,133.215839165965,152.2271011000981,223.26220330574776,184.9927606834321
3.8371705038371706,247.77153925224,266.011793271418,185.8143390079316,91.71893153349734,133.09658940393234,151.98780460661754,223.3071314698648,185.4544704066168
3.8705372038705375,253.45888848736013,265.6009718051412,186.4996814869483,91.61543890806848,133.08482589352715,151.88100309500598,223.0795529660489,185.71212453114683
3.903903903903904,257.49779737264885,265.61767991817845,186.63379664800425,91.8166386254256,133.1736338844409,151.656717891246,222.6703363418956,186.0902916353204
3.937270603937271,271.6218853540852,272.3146782157201,185.9780492011396,90.65096214997796,133.4207330462228,151.31652497523754,222.0091788714453,186.66328685668924
