Time,Left Shoulder Angle,Right Shoulder Angle,Left Elbow Angle,Right Elbow Angle,Left Hip Angle,Right Hip Angle,Left Knee Angle,Right Knee Angle
0.0,6.843943678396151,0.7569747137213411,179.4312888296772,182.04171372243587,166.99214683720797,205.0408687091672,181.3458617432213,177.22253681748464
0.0333667000333667,6.275379226583223,0.98688294682257,180.10454310124834,180.8918967335534,167.03916950186166,204.69160279623944,180.941980516116,177.58791680546958
0.0667334000667334,5.781531825320321,1.166644092041307,180.6666323621785,179.95040759302202,167.06051070798657,204.35843240478343,180.5979712827082,177.91512337875918
0.1001001001001001,5.358786740024,1.300096538308055,181.1269902524761,179.20436120615642,167.05770055646096,204.04141567528487,180.31031482026003,178.20543907491253
0.1334668001334668,5.003529236110817,1.391078674553316,181.4950504121497,178.64087247827132,167.03226914816312,203.7406107482295,180.0754919060336,178.46014643148868
0.1668335001668335,4.712144578997329,1.443428889707594,181.78024648120785,178.2470563146815,166.98574658397138,203.45607576410305,179.889983317291,178.68052798604668
0.2002002002002002,4.481018034100092,1.4609855727013907,181.9920120996589,178.01002762070158,166.91966296476397,203.1878688633912,179.75026983129436,178.86786627614566
0.2335669002335669,4.306534866835665,1.447587112465209,182.1397809075115,177.91690130164636,166.83554839141925,202.93604818657968,179.65283222530573,179.02344383934462
0.2669336002669336,4.185080342620601,1.407071897929553,182.232986544774,177.95479226283055,166.73493296481547,202.70067187415424,179.59415127658724,179.1485432132027
0.3003003003003003,4.11303972687146,1.343278318024923,182.28106265145504,178.11081540956883,166.61934678583094,202.4817980666006,179.570707762401,179.2444469352789
0.333667000333667,4.086798285004797,1.2600447616818236,182.29344286756296,178.37208564717596,166.49031995534395,202.27948490440448,179.57898246000906,179.3124375431323
0.3670337003670337,4.086798285004797,1.1612096178307565,182.2795608331064,178.72571788096664,166.34938257423278,202.0937905280516,179.61545614667358,179.353797574322
0.4004004004004004,4.086798285004797,1.050611275402225,182.2488501880937,179.15882701625563,166.19806474337574,201.9247730780276,179.67660959965664,179.36980956640707
0.4337671004337671,4.086798285004797,0.9320881233267322,182.21074457253349,179.65852795835758,166.03789656365112,201.77249069481823,179.7589235962203,179.36175605694655
0.4671338004671338,4.086798285004797,0.8094785505347802,182.1746776264342,180.21193561258727,165.87040813593725,201.63700151890933,179.8588789136267,179.3309195834995
0.5005005005005005,4.086798285004797,0.686620945956872,182.1500829898044,180.8061648842594,165.6971295611123,201.5183636907865,179.97295632913796,179.27858268362505
0.5338672005338673,4.086798285004797,0.5673536985235098,182.14639430265245,181.4283306786887,165.51959094005468,201.4166353509356,180.09763662001612,179.2060278948822
0.5672339005672339,4.086798285004797,0.4555151971651943,182.1730452049884,182.0655479011914,165.33932237364402,201.33187463984373,180.22940056352493,179.11453775483145
0.6006006006006006,4.086798285004797,0.2232930244741096,182.36682296288544,182.7967354375209,165.12358937326786,201.2650973036793,180.3705826264901,179.0296801500138
0.6339673006339673,4.086798285004797,0.076334313143958,182.52241960472924,183.280737111848,164.9344382038111,201.22982038995195,180.49945216526825,178.90356159433765
0.6673340006673341,4.086798285004797,0.0206648847962379,182.9615588875328,183.6511399958284,164.78346225871957,201.242004811453,180.59539233752807,178.7394144299761
0.7007007007007008,4.086798285004797,-0.0542089727857606,183.4921344265181,184.11862786129475,164.67378942511846,201.3078945519731,180.6711455278337,178.54627725878856
0.7340674007340674,4.086798285004797,-0.1240822991800102,184.1028884006309,184.6520406446419,164.5480133271932,201.3462647044651,180.7352940239464,178.37949419079095
0.7674341007674341,4.086798285004797,-0.0699881633483871,184.78484218127093,185.0260832798994,164.42692250821457,201.41967562235303,180.7827904290594,178.18462005828923
0.8008008008008008,4.086798285004797,0.0235067367737507,185.43669919199564,185.2380038640993,164.29641946241964,201.49471395677853,180.82420835404272,177.9752997869648
0.8341675008341676,4.086798285004797,0.164825327204615,186.0123335826393,185.3039403285333,164.1712943524336,201.5628348922026,180.8508399376026,177.77098008151356
0.8675342008675342,4.086798285004797,0.3749033950087696,186.68234114421404,185.4168087398359,164.0258578500574,201.6043099232909,180.84772552071544,177.57274572974475
0.9009009009009008,4.086798285004797,0.6392606470818969,187.397889914866,185.4741244225657,163.8960748936536,201.62052635096563,180.8172023241301,177.3811394257163
0.9342676009342676,4.086798285004797,1.025404235948749,188.2808646151127,185.29659017843005,163.79584697410343,201.6241703371983,180.76814118232244,177.19005020062667
0.9676343009676344,4.086798285004797,1.025404235948749,189.16496061238828,185.01820318332,163.7271672553259,201.6108846850617,180.7033934569596,177.0055670483778
1.001001001001001,4.086798285004797,1.025404235948749,190.13960966538573,184.62529039093383,163.68379426744372,201.57749459144412,180.62205860332773,176.8641194439722
1.0343677010343677,4.086798285004797,1.025404235948749,190.96212645723728,184.1133877053857,163.662328783947,201.54554712246724,180.53639368238285,176.74460319707154
1.0677344010677343,4.086798285004797,1.025404235948749,191.62243592871536,183.3670690965876,163.66446092709256,201.5018829251049,180.4525926966232,176.64215994787347
1.1011011011011012,4.086798285004797,1.025404235948749,192.32547060846693,182.5342240895934,163.68002871387307,201.4400369741578,180.3545425839362,176.5390159363518
1.1344678011344678,4.086798285004797,1.025404235948749,192.90170874268003,181.71554090946955,163.7212241669516,201.4006847124256,180.24602778093487,176.42324717252737
1.1678345011678346,4.086798285004797,1.025404235948749,193.3928496713208,180.79388576946363,163.78005896744463,201.3504864678344,180.12408753040972,176.33439256040197
1.2012012012012012,4.086798285004797,1.025404235948749,194.3075698734509,179.93457925055117,163.8725368084817,201.29666177744247,179.98620653869355,176.2617286032892
1.234567901234568,4.086798285004797,1.025404235948749,195.069881949378,179.26588399605578,163.9664079026363,201.24329076879843,179.8450380556723,176.19201451553636
1.267934601267935,4.086798285004797,1.4983509095323708,195.49125778086028,178.83865518380577,164.05900091150832,201.21032546822423,179.69670627294798,176.10251120573002
1.3013013013013013,4.086798285004797,1.4983509095323708,195.73863716792096,178.63293361974195,164.1633205815961,201.21260133298563,179.53636867649465,175.99423785697488
1.334668001334668,4.086798285004797,1.4983509095323708,196.18941581904124,178.4257932869925,164.32223402827915,201.2525718832992,179.36652704036703,175.83411203871216
1.3680347013680347,4.086798285004797,1.4983509095323708,196.8264308185213,178.31028929489256,164.4787380207434,201.29349695114888,179.20287554222816,175.64302811532647
1.4014014014014016,4.086798285004797,1.4983509095323708,197.3255281800141,178.35938217038608,164.65639387066767,201.335176017374,179.04249628390494,175.4167701769963
1.4347681014347682,4.086798285004797,1.4983509095323708,197.54334896892172,178.5576761239402,164.85153437968378,201.3614328853213,178.88390083509043,175.1843127742327
1.4681348014681348,4.086798285004797,1.4983509095323708,197.88941868200712,178.85929455902206,165.02267323652296,201.34908003509284,178.73776480775015,174.97346679774887
1.5015015015015016,4.086798285004797,1.4983509095323708,197.9209941424993,179.13771159142206,165.209693645927,201.3265027894091,178.59764700407672,174.78587665883785
1.5348682015348682,4.086798285004797,1.4983509095323708,197.93913671065408,179.68112766589107,165.3853645919801,201.2981945486885,178.47215122468612,174.6280855998033
1.5682349015682349,4.086798285004797,1.4983509095323708,199.18076783533093,180.32632039039348,165.54567484415637,201.2521139497379,178.34648401422126,174.5159725227211
1.6016016016016017,4.086798285004797,1.4983509095323708,200.19540893893205,184.2616859522393,165.6996561849416,201.1888187977311,178.2088377279891,174.44195973054502
1.6349683016349683,4.086798285004797,1.4983509095323708,200.7356750614298,188.2762940126593,165.84840545485994,201.1175179265224,178.08882538953307,174.37517513210514
1.6683350016683351,4.086798285004797,1.4983509095323708,201.1770617125429,190.3714305505288,165.9730212648604,201.06505134427792,178.02229833174843,174.27658719259784
1.7017017017017018,4.086798285004797,1.4983509095323708,201.53326361868943,191.0241932613881,166.1197426412321,201.05125670517208,177.93814233811773,174.13860104767633
1.7350684017350684,4.086798285004797,1.4983509095323708,202.25021183995665,189.81428005253537,166.28399761016036,201.05273303209265,177.80904521101044,173.98986832966787
1.7684351017684352,4.086798285004797,1.4983509095323708,203.0185377962705,189.96850206359147,166.47417433579778,201.04459399225323,177.67705102787454,173.83769599702774
1.8018018018018016,4.086798285004797,1.4983509095323708,203.99195560462067,190.43163739320053,166.66270927289642,201.0372445502713,177.53900933954995,173.69344029087932
1.8351685018351689,4.086798285004797,2.130867646347548,204.935865977904,187.75252025264857,166.83406346542182,200.9822836576496,177.39343686143437,173.57800817943738
1.8685352018685355,4.086798285004797,2.130867646347548,205.9628781613231,185.8594780384988,166.9739126084532,200.87618796731743,177.23621867396437,173.49057186354165
1.901901901901902,4.086798285004797,2.130867646347548,207.5155079396171,181.4509041093412,167.1215503684717,200.7834787683545,177.06007245221468,173.37203478385285
1.9352686019352687,4.086798285004797,2.130867646347548,208.69858328316712,177.62972508562754,167.2589235436757,200.68275585343088,176.8732680497982,173.26769247938822
1.968635301968636,4.086798285004797,2.130867646347548,210.2299876160488,173.90864534604646,167.38881893842097,200.57729569958627,176.66284674838715,173.18618654848615
2.002002002002002,4.086798285004797,2.130867646347548,212.08627515001388,170.76870869408796,167.520244573727,200.44560804614764,176.42692955751272,173.0999320314955
2.035368702035369,4.086798285004797,2.130867646347548,213.9550579341862,167.8893570792668,167.68712695933115,200.28791403585137,176.17849843220714,173.01811341575296
2.0687354020687354,4.086798285004797,2.130867646347548,215.8833359726527,165.01294696318382,167.856988229937,200.1020294820333,175.9224286928575,172.95256249749832
2.1021021021021022,4.086798285004797,2.130867646347548,217.49484849289743,162.72045564073122,168.0356320570055,199.86403423399952,175.6624197118422,172.90844888500894
2.135468802135469,4.086798285004797,2.130867646347548,218.87662604481875,160.7618293707153,168.21421080574564,199.6001137589652,175.4008511275376,172.8817592292192
2.1688355021688355,4.086798285004797,2.130867646347548,224.79760613553003,159.4928197985605,168.3800741323037,199.32001084271133,175.1503838374515,172.8363189213204
2.2022022022022023,4.086798285004797,2.130867646347548,228.9997121915879,158.9471303764413,168.54335453553074,199.01707224520777,174.89975103960327,172.7871284981541
2.235568902235569,4.086798285004797,2.130867646347548,227.4937119358244,159.05965028967316,168.70798261842606,198.7010057262617,174.6358592333906,172.71694260820664
2.2689356022689355,4.086798285004797,2.130867646347548,226.09560189414628,159.53856171414566,168.88303468143934,198.41073941995347,174.3732604010852,172.63733812495673
2.3023023023023024,4.086798285004797,2.130867646347548,224.91190423127463,160.51764078290066,169.0467168646354,198.1164298490041,174.11631451064227,172.5688449392514
2.335669002335669,4.086798285004797,2.130867646347548,224.09426399245203,161.94413556443135,169.20545702100625,197.8613641401429,173.8706431604402,172.47179752591643
2.369035702369036,4.086798285004797,2.130867646347548,223.2949648712709,164.14852059775902,169.32848686139278,197.637190194842,173.6401749561729,172.3455738607495
2.4024024024024024,4.086798285004797,2.130867646347548,227.177210809448,167.32614001051112,169.45475817480872,197.44805520421005,173.4118609622748,172.1995900732805
2.4357691024357693,4.086798285004797,2.130867646347548,229.6327456175308,170.82491440862134,169.62400899904958,197.27705823155108,173.1887850302133,172.0476801339306
2.469135802469136,4.086798285004797,2.130867646347548,227.41833277564007,176.63062861081795,169.8248367682401,197.07910495645007,172.9809699476005,171.90881524372082
2.5025025025025025,4.086798285004797,2.130867646347548,226.1869908885924,182.26846235413151,170.01083717794953,196.88984161779763,172.79017378036485,171.79086647359523
2.5358692025358693,4.086798285004797,2.889314471591146,223.8218933414013,187.5978465727026,170.24476328321794,196.6966099395634,172.60926450679787,171.68564105460388
2.569235902569236,4.086798285004797,2.889314471591146,221.37893359689096,192.79240296133293,170.47080941755436,196.49582835586392,172.44586943063945,171.6002793859802
2.6026026026026026,4.086798285004797,2.889314471591146,218.97987230954493,197.35833593551817,170.67939404315038,196.2947458123313,172.30006648383204,171.5440406061219
2.6359693026359694,4.086798285004797,2.889314471591146,218.54256273020505,201.91315723884537,170.88098205746277,196.0580971916707,172.18786369256787,171.4979383771345
2.669336002669336,4.086798285004797,2.889314471591146,216.0465808879956,206.517197914616,171.06440499449934,195.8561678542644,172.1006123367229,171.47182958166047
2.702702702702702,4.086798285004797,2.889314471591146,215.7499418982904,210.31351137096013,171.2142073784794,195.72825919886984,172.04384334657098,171.446002941248
2.736069402736069,4.086798285004797,2.889314471591146,214.3662834618621,214.49097531488496,171.33777873372205,195.64048163389296,172.01459012984978,171.42196339895946
2.7694361027694363,4.086798285004797,2.889314471591146,212.2921040350487,214.7747438790501,171.42459390295153,195.5991774568796,172.03125761928482,171.39765904021226
2.802802802802803,4.086798285004797,2.889314471591146,209.89375341829296,212.82854810752443,171.46802928357678,195.600836878676,172.08650720235178,171.38574292165444
2.836169502836169,4.086798285004797,2.889314471591146,205.7365580766629,212.0920002347713,171.48826038738946,195.621641658396,172.13528050757472,171.38445656973434
2.8695362028695364,4.086798285004797,2.889314471591146,202.74491443910628,210.7291936924952,171.49772831524217,195.69953327928027,172.2063641791955,171.39477370828993
2.902902902902903,4.086798285004797,2.889314471591146,199.67040491775808,209.3058724040598,171.48037597021113,195.8210126424649,172.29704462335857,171.4351767756951
2.9362696029362696,4.086798285004797,2.889314471591146,197.8373465839445,205.19795211913447,171.503671678473,195.9727362403648,172.3852759545122,171.49835607505878
2.9696363029696364,4.086798285004797,2.889314471591146,197.36735879506503,200.83768853485824,171.50055258248457,196.1154567182582,172.4740502003607,171.5960879593045
3.003003003003004,4.086798285004797,2.889314471591146,194.72817851690584,196.59444421214644,171.46801721412194,196.270948313766,172.556043514953,171.6891433652213
3.0363697030363697,4.086798285004797,2.889314471591146,192.16239579696003,190.83727259429915,171.40866083936078,196.4287963434725,172.627824613178,171.78807993341132
3.0697364030697365,4.086798285004797,2.889314471591146,189.5984981063871,187.03146504764783,171.30346211814793,196.5925745861637,172.7022305385066,171.90783889071668
3.103103103103104,4.086798285004797,2.889314471591146,187.54453498074983,183.5361494840336,171.18038662256998,196.70743047038903,172.76855613016693,172.0323327224226
3.1364698031364697,4.086798285004797,2.889314471591146,185.61504053270284,179.79731435707515,171.0497035427204,196.7683100673748,172.8303697769488,172.17840482397122
3.169836503169837,4.086798285004797,2.889314471591146,183.39356479986355,175.36761383545686,170.9056175385477,196.7695447387778,172.8720065251596,172.34592706226906
3.2032032032032034,4.086798285004797,2.889314471591146,181.29806369624728,170.32193652847408,170.76468689213635,196.7029506337581,172.89898107842893,172.5137476362973
3.2365699032365702,4.086798285004797,2.889314471591146,179.44998060443507,165.69439201177275,170.63197041949596,196.5607445910632,172.9456925168946,172.68504190680935
3.2699366032699366,4.086798285004797,2.889314471591146,177.8801973438919,161.19398637090194,170.44886875081204,196.35192640658124,173.03387574444827,172.8582819824165
3.3033033033033035,4.086798285004797,2.889314471591146,177.2836243705403,157.2809217362012,170.22406193844992,196.11329461587533,173.14410508739118,173.02430091360625
3.3366700033366703,4.086798285004797,3.758763658091454,171.204116460869,153.23929412350037,169.95375886401916,195.8106351089625,173.2764785968585,173.19138384370171
3.3700367033700367,4.086798285004797,3.758763658091454,164.66048956847263,149.28095145298516,169.680303637631,195.4908617741357,173.40813013569343,173.34460208664552
3.4034034034034035,4.086798285004797,3.758763658091454,163.30703414316446,145.79000123941157,169.41480348338112,195.1913274153128,173.53837889908306,173.45045892412972
3.4367701034367704,4.086798285004797,3.758763658091454,162.95821155670933,142.87422395562535,169.18826814413083,194.9474551496055,173.66473881895826,173.5101035293501
3.4701368034701368,4.086798285004797,3.758763658091454,161.68268798866575,140.8514574520893,168.9951078703033,194.6998038189702,173.7825772881423,173.53361527760575
3.503503503503504,4.086798285004797,3.758763658091454,161.80045413102332,140.09181654823763,168.81169559814424,194.4508419766784,173.86951309501828,173.5166173729536
3.5368702035368704,4.086798285004797,3.758763658091454,164.46965730041754,139.9511876409751,168.67051279458207,194.19413702895835,173.93234911149403,173.47608953692918
3.5702369035702373,4.086798285004797,3.758763658091454,162.2599406761566,140.36495799853975,168.61939950364393,193.91009625136712,173.93154475871768,173.42310143209173
3.603603603603604,4.086798285004797,3.758763658091454,159.5113532395481,141.6627671350752,168.59594350008794,193.60943739136988,173.9252939985925,173.34860284323636
3.6369703036369705,4.086798285004797,3.758763658091454,161.30781115073157,140.7084895199528,168.579747805614,193.3236870927172,173.87299451493857,173.28019870641683
3.670337003670337,4.086798285004797,3.758763658091454,163.0330693822408,139.180243011047,168.59196042631066,193.041384176852,173.82175647495367,173.24746148657243
3.703703703703704,4.086798285004797,3.758763658091454,165.78475770980435,138.18968463875925,168.62604578842462,192.7779076060559,173.7687517026054,173.1703950820209
3.737070403737071,4.086798285004797,3.758763658091454,171.4058004379756,139.92685668285105,168.57330892348966,192.5447280664849,173.8108645832114,173.10574590776025
3.770437103770437,4.086798285004797,3.758763658091454,179.35318116434877,139.57947387978925,168.51109076309532,192.37835149434352,173.8591364447422,173.04891948952263
3.803803803803804,4.086798285004797,3.758763658091454,180.6831062587197,136.77463662537056,168.46008344462433,192.3724405196794,173.9248156496748,173.0868212865056
3.8371705038371706,4.086798285004797,3.758763658091454,176.86062077752032,134.42698788464875,168.35194431347665,192.39770537931787,174.05916200678865,173.12209614789558
3.8705372038705375,4.086798285004797,3.758763658091454,177.46865555519128,132.4976760822613,168.24934192152676,192.3578829318645,174.23138817362957,173.2352927880927
3.903903903903904,4.086798285004797,3.758763658091454,171.82225951562867,131.61316306994476,168.18515436286887,192.35276611067053,174.38853522847296,173.38469651204457
3.937270603937271,4.086798285004797,3.758763658091454,167.58029337814042,131.11853051537742,168.22481671453113,192.36173609220413,174.571383135099,173.61945979593617
