Time,Left Shoulder Angle,Right Shoulder Angle,Left Elbow Angle,Right Elbow Angle,Left Hip Angle,Right Hip Angle,Left Knee Angle,Right Knee Angle
0.0,2.696767698502292,-13.573374121389636,167.88292669811568,154.95236339862086,169.7204423673363,209.5755386624812,178.68633935981174,174.5918266171901
0.0333667000333667,2.7161783149444743,-7.16005071036507,173.25532633289012,162.41319715091123,169.9429065482409,210.89950786831864,179.3741668098045,174.05780179584565
0.0667334000667334,3.063621075725397,-1.8474889494097333,178.10933204033884,168.9830297600841,170.1252454876285,211.9369462890077,179.96638318214383,173.5793548036756
0.1001001001001001,3.71330149879468,-1.8474889494097333,182.4429163983449,174.68123819526448,170.2685035798142,212.70430934447847,180.4695602275148,173.1554728909575
0.1334668001334668,4.639425102101943,-1.8474889494097333,186.2540519847913,179.5271994255776,170.37372521911308,213.2180524546613,180.89026969660245,172.7851433079691
0.1668335001668335,5.816197403596805,-1.8474889494097333,189.5407113775611,183.5402904201485,170.44195479984032,213.49463103948625,181.235083340092,172.46735330498788
0.2002002002002002,7.217823921228888,-1.8474889494097333,192.3008671545373,186.7398881481023,170.47423671631094,213.5505005188837,181.5105729086684,172.20109013229165
0.2335669002335669,8.818510172947807,2.4507443277989047,194.5324918936031,189.1453695785641,170.4716153628401,213.40211631278385,181.7233101530167,171.98534104015795
0.2669336002669336,10.59246167670319,5.821082287583383,196.23355817264127,190.77611168065903,170.4351351337429,213.0659338411169,181.87986682382217,171.81909327886447
0.3003003003003003,12.513883950444647,8.349958096266228,197.40203856953505,191.6514914235122,170.36584042333445,212.5584085238131,181.9868146717698,171.70133409868882
0.333667000333667,14.556982512121808,10.123804920169976,198.03590566216732,191.7908857762488,170.26477562592984,211.8959957808027,182.05072544754464,171.63105074990867
0.3670337003670337,16.695962879684288,11.22905592561716,198.13313202842133,191.21367170799368,170.1329851358442,211.095151032016,182.0781709018319,171.6072304828016
0.4004004004004004,18.9050305710817,11.752144278930311,197.69169024618,189.93922618787212,169.9715133473926,210.17232969738305,182.0757227853165,171.62886054764536
0.4337671004337671,21.158391104263675,11.779503146431974,196.70955289332625,187.98692618500937,169.7814046548902,209.14398719683425,182.0499528486837,171.69492819471748
0.4671338004671338,23.43024999717983,11.397565694444673,195.18469254774325,185.3761486685304,169.56370345265208,208.0265789502997,182.00743284261847,171.80442067429567
0.5005005005005005,25.69481276777978,10.692765089290926,193.115081787314,182.12627060756017,169.31945413499332,206.83656037770984,181.95473451780595,171.95632523665756
0.5338672005338673,27.92628493401315,9.751534497293296,190.4986931899216,178.25666897122403,169.04970109622906,205.59038689899472,181.8984296249312,172.14962913208078
0.5672339005672339,30.098872013829723,8.6603070847743,187.3334993334508,173.78672072864867,168.75548873067586,204.30451393408632,181.84508991468087,172.38331961084444
0.6006006006006006,31.46029821719636,7.505516018056479,179.44284041117209,167.28671221720953,168.39071070314574,202.8185938389375,181.8248776237568,172.71326040430333
0.6339673006339673,33.638565499604155,6.373594463462354,170.72482518364464,159.7944624575618,167.90599505812327,201.370460884835,181.9033089783453,172.83755068279513
0.6673340006673341,36.40798287655375,5.350975587314462,162.39995801775524,151.61280812284062,167.16324362935362,199.7737122769455,182.20848384382688,173.05544758121377
0.7007007007007008,38.63879425632411,4.524092555935151,153.90132342022324,141.7410667167936,166.44880447869153,198.26291521441783,182.5484455983675,173.3290048206389
0.7340674007340674,40.53012666358927,7.7287263410594,149.08178295382848,131.81734253881956,165.98991023873958,197.20573282233903,182.82683234208332,173.57361358887562
0.7674341007674341,41.34146757976536,12.015544875322451,141.76507751363755,123.18502498033912,165.56519200314403,196.33117308349364,183.08215832309165,173.94461352287777
0.8008008008008008,40.97269959510038,16.23151336790666,134.2233508772337,115.99871290142627,165.06047834070685,195.67405836680024,183.40362794982343,174.42137400602218
0.8341675008341676,39.58260953710782,20.17889577943904,134.37683428421184,110.06408619774112,164.94760710409818,195.2160303118726,183.64556882077252,175.02456235027944
0.8675342008675342,38.220105529032224,23.48069663749693,128.44811058304407,104.82894818140622,164.79998991740152,195.07307306881629,183.8067245904163,175.77959945254213
0.9009009009009008,38.5128076442586,26.518218686630327,127.79432187823642,101.65060660869035,164.7438706739297,195.1848636154596,183.99250227430588,176.4008710739534
0.9342676009342676,38.84085059497121,29.153319457340924,128.74417250262044,98.46992759599712,164.6525123330458,195.20085483964172,184.25755542618427,177.4893235409087
0.9676343009676344,38.77744357913743,30.548375393072288,129.88902808732087,93.51873921808956,164.65088559572425,195.42414529801565,184.4323664925298,178.69569402762863
1.001001001001001,38.743561246954656,30.854469714878874,131.68328246228592,90.1826751052827,164.5339352869784,195.82473423990268,184.71149936319733,179.84583131159116
1.0343677010343677,38.39303920280743,32.85587232236299,133.28079324935183,90.25229852963876,164.60248656104355,196.3589772923336,184.9813182053293,181.11169494916768
1.0677344010677343,37.59446854937222,34.07455198210571,142.76005204844924,85.34617978608452,164.84041678463612,196.94431149621167,185.1512754212983,182.3924416999573
1.1011011011011012,35.89538790871051,29.41794657437348,150.1092584223048,82.52417356479833,165.32005066165314,197.42462618612385,185.0794643045716,183.687696677771
1.1344678011344678,33.86183171946692,31.954015706158124,155.47689101522857,79.81541254310933,165.7063417477144,197.91849876235767,184.94766110574903,184.94111580154464
1.1678345011678346,32.129049575072486,25.44287187839618,157.73229044165353,78.63005555762376,166.12392998414376,198.4133287514672,184.7731369253816,186.1929985080592
1.2012012012012012,30.36417719031472,21.77560948196549,163.99179068741242,83.67336486409906,166.56587701181053,198.980604736962,184.4688702865084,187.4527715578561
1.234567901234568,28.58428148369122,19.288013071290862,168.10640003223943,90.4513307033658,167.07273995719268,199.5271764694745,184.160813732548,188.6844190616445
1.267934601267935,26.45628660074924,18.098408605442778,167.31928364316934,91.83819048906162,167.5684489166658,199.948943561466,183.83523430156663,189.8115245964381
1.3013013013013013,24.97818674244068,18.206648091897208,167.8254180344302,94.25642389892344,167.89960767391443,200.38594528111943,183.47866128757883,190.8896885564689
1.334668001334668,23.90110113068951,29.387798210066137,169.54779625169186,100.96394508152748,168.19293191545202,200.76485842653835,183.0066847644648,191.7724128885188
1.3680347013680347,22.831466220755143,38.96248907161476,170.66327551722134,104.14141425499156,168.57525305098403,201.12221623626368,182.36787114883768,192.73285013712444
1.4014014014014016,21.76506268550031,48.77349166038292,171.1092651854945,107.15319787918212,168.9264827427656,201.42354816087484,181.687970672296,193.60191455624263
1.4347681014347682,20.69389999524488,57.08807015843168,170.8392442710504,109.92648397800168,169.23922860028426,201.661674778656,180.9742696338513,194.36806635557505
1.4681348014681348,19.609987620309063,64.4468563455796,169.8066917884294,112.38846057535348,169.5060982330289,201.82941666789264,180.2340543325168,195.01976574482492
1.5015015015015016,18.505335031013093,73.18469910928403,167.96508675217189,114.466315695141,169.71969925048836,201.9195944068705,179.47461106730572,195.54547293369583
1.5348682015348682,17.371951697677183,81.57225868290848,165.2679081768183,116.08723736126748,169.87263926215155,201.9250285738752,178.7032261372312,195.93364813189092
1.5682349015682349,16.20184709062154,89.39764276819577,161.66863507690897,117.17841359763624,169.95752587750735,201.8385397471924,177.9271858413065,196.17275154911368
1.6016016016016017,14.9870306801664,96.44895906688905,157.12074646698431,117.66703242815072,169.96696670604462,201.65294850510776,177.15377647854478,196.25124339506732
1.6349683016349683,13.719511936631967,102.51431528073196,151.57772136158468,117.48028187671416,169.8935693572523,201.36107542590685,176.3902843479592,196.15758387945536
1.6683350016683351,12.391300330338469,107.38181911146768,144.9930387752505,116.54534996722992,169.7299414406192,200.9557410878753,175.643995748563,195.880233211981
1.7017017017017018,10.994405331606115,110.83957826083976,137.32017772252215,114.78942472360134,169.46869056563423,200.4297660692989,174.92219697936935,195.40765160234764
1.7350684017350684,9.52083641075513,112.67570043059152,128.51261721794003,112.13969416973178,169.10242434178627,199.77597094846308,174.2321743393914,194.72829926025864
1.7684351017684352,7.962603038105733,112.6782933224664,118.52383627604448,108.52334632952456,168.62375037856424,198.98717630365363,173.58121412764245,193.8306363954173
1.8018018018018016,6.3117146839781455,110.63546463820768,107.30731391137591,103.86756922688298,168.02527628545698,198.05620271315613,172.97660264313552,192.7031232175271
1.8351685018351689,4.560180818692572,106.33532207955882,94.81652913847472,98.09955088571044,167.29960967195336,196.97587075525627,172.42562618488398,191.33421993629125
1.8685352018685355,2.7000109125692404,99.56597334826314,81.00496097188126,91.14647932991028,166.4393581475423,195.7390010082396,171.9355710519009,189.7123867614132
1.901901901901902,0.7232144359283694,90.11552614606413,65.826088426136,82.9355425833857,165.43712932171263,194.33841405039183,171.51372354319952,187.8260839025961
