Time,Left Shoulder Angle,Right Shoulder Angle,Left Elbow Angle,Right Elbow Angle,Left Hip Angle,Right Hip Angle,Left Knee Angle,Right Knee Angle
0.0,26.03744640949633,23.041712451028346,177.56613778232895,163.40394860109404,163.28836145314625,209.57244746204228,183.3262643013312,174.21584860408586
0.0333667000333667,15.459354806285178,15.850259797309985,178.71187385255,165.6565515170888,161.73338837519648,209.54849798754609,183.4985722967737,174.53725497310688
0.0667334000667334,6.502616143416006,9.55605691010401,180.0004778822395,167.85254066891596,160.52825998913286,209.57752205651423,183.62558056059723,174.80058408011914
0.1001001001001001,-0.8890299805474768,4.159370744865484,181.39640120231184,169.97471943735044,159.65088756702772,209.65277907510333,183.7069518576202,175.0085435727509
0.1334668001334668,-6.771843967041541,-0.3395317429505162,182.86409514368145,172.00589120316712,159.07918238095326,209.76752844947003,183.74234895266085,175.16384109863048
0.1668335001668335,-11.202086217502467,-0.3395317429505162,184.36801103726265,173.92885934714096,158.7910557029818,209.9150295857708,183.73143461053752,175.26918430538612
0.2002002002002002,-14.236017133366545,-0.3395317429505162,185.8726002139697,175.7264272500468,158.76441880518553,210.0885418901623,183.67387159606844,175.3272808406461
0.2335669002335669,-15.92989711607003,-0.3395317429505162,187.34231400471725,177.38139829265964,158.9771829596368,210.28132476880103,183.569322674072,175.34083835203865
0.2669336002669336,-16.339986567049216,-0.3395317429505162,188.74160374041944,178.87657585575434,159.40725943840778,210.48663762784363,183.4174506093664,175.31256448719208
0.3003003003003003,-15.522545887740378,-3.940383597888932,190.0349207519908,180.1947633201058,160.0325595135708,210.69773987344664,183.21791816676983,175.24516689373465
0.333667000333667,-13.533835479579814,-6.642917864494692,191.1867163703455,181.3187640664889,160.8309944571981,210.90789091176663,182.9703881111008,175.1413532192946
0.3670337003670337,-10.430115744003755,-8.446867587312731,192.1614419263981,182.2313814756787,161.78047554136194,211.11035014896012,182.6745232071776,175.00383111150026
0.4004004004004004,-6.267647082448541,-9.351965810887975,192.92354875106287,182.91541892844995,162.85891403813457,211.2983769911839,182.32998621981827,174.83530821797984
0.4337671004337671,-1.1026898963503768,-9.35794557976537,193.43748817525432,183.35367980557768,164.04422121958828,211.4652308445943,181.93643991384133,174.63849218636165
0.4671338004671338,5.008495412854394,-8.464539938489835,193.66771152988667,183.52896748783667,165.3143083577953,211.604171115348,181.49354705406492,174.41609066427392
0.5005005005005005,12.009648443729509,-6.6714819316063085,193.5786701458744,183.4240853560019,166.64708672482791,211.7084572096016,181.0009704053076,174.17081129934496
0.5338672005338673,19.84450879483872,-3.978504603659726,193.1348153541318,183.0218367908483,168.0204675927584,211.7713485335116,180.4583727323873,173.90536173920302
0.5672339005672339,28.45681606474541,-0.3853409991950158,192.3005984855749,182.3050251731523,169.41236223366036,211.7861044932364,179.86541680012402,173.62244963147788
0.6006006006006006,36.68175034976601,4.108275837242882,189.4525040393929,180.22804916175755,170.402170888133,211.64465957453243,179.18295837356507,173.30941363985852
0.6339673006339673,46.289616049934,9.502612861109052,185.9747050997301,177.86768338337106,171.33090565929297,211.40388943053875,178.40788245070524,172.92219481834746
0.6673340006673341,62.86334117144163,15.797937027858538,182.3650231582256,176.22921104371275,172.36079034466795,211.04778293636883,177.21308655441416,172.4416569431549
0.7007007007007008,79.54086057403488,22.99451529294599,178.17378078049387,174.03359839748865,173.94231793072842,210.8354185369156,175.45400871473734,171.48658414057007
0.7340674007340674,95.46495648858811,33.13165428338533,170.43325774219016,166.80436468796074,175.43822415802904,210.4872320503493,173.71417321358146,170.46818803136355
0.7674341007674341,110.9861214766324,44.10904905360919,163.86665011548783,162.2634259704934,176.5115555439378,209.50475603874224,172.4371713059991,169.63865630964207
0.8008008008008008,125.15566724162784,61.17091442864754,158.86581910677995,158.92925873540702,177.16154408346824,208.79221903117943,171.72456176737165,168.66522828253568
0.8341675008341676,136.63642687148865,78.44076726080277,154.93811224644196,156.1309162776045,177.493849510676,207.6200443103064,171.13698531291348,168.4340773188131
0.8675342008675342,145.56799689927865,95.63867275812282,151.41856321227704,153.81662444618453,177.37293605286513,206.35577271680728,170.76735648841392,168.83422851469686
0.9009009009009008,152.39896154970597,111.27781616167684,148.8876759191517,152.24413614381723,177.0252750921334,205.09561107960232,170.34719810594942,169.61988849010297
0.9342676009342676,156.03803968195925,125.28774575334695,142.91114232243586,146.36671007156315,176.78784573352488,204.10785375301063,170.1422986515947,170.41731264846794
0.9676343009676344,157.5810066809097,137.48443281545232,138.84151470110822,141.40268416652088,176.51215894059771,203.749217441671,170.1039761013761,171.23449224091195
1.001001001001001,154.40631582980777,147.44524187518587,135.9848688001057,143.54430818928188,175.972346422991,203.8292844420324,170.2477164156679,171.88754674042508
1.0343677010343677,158.30726621427226,155.56440353058625,139.51141388132902,144.08549621412527,175.65323665223718,204.10570013578604,170.56995576891748,172.5796919957924
1.0677344010677343,155.70925312923066,157.97266895882385,136.7255030828126,138.59752051294996,175.37212721250165,204.44179318736988,171.0143888930451,173.76222456904347
1.1011011011011012,153.12757170161655,160.23021700144358,135.688665823291,134.19173153558572,175.35425309697297,204.8298307864879,171.61982099021722,175.14124154705462
1.1344678011344678,148.66436898984352,164.40593663243158,134.3536732756621,131.58176298625798,175.35047368930657,205.47001515193404,172.180235710868,176.76244535121475
1.1678345011678346,143.7411136328601,166.7291045946896,133.76160288360396,128.86589171792178,175.64862397812593,205.890567814209,172.8393671658655,178.48198296049443
1.2012012012012012,136.907415040006,162.2334499733723,134.83484383467388,130.3085683057338,176.1809804185134,206.16867693630343,173.82154357259662,180.21433100852408
1.234567901234568,124.43118323453784,157.2002089494914,138.80260333347513,132.5436451602352,176.31899666201068,207.15001816493023,175.2396216373535,182.4375391505484
1.267934601267935,112.1469922850855,150.55955327716822,143.18291255426595,135.32098681110062,176.53357015117086,208.126745912998,176.65456731394084,184.71969271872493
1.3013013013013013,100.49056748687283,145.38486919307314,147.8707691811572,138.59516664528053,176.8338798344337,209.06669192668625,178.0286482177567,187.03351589931643
1.334668001334668,89.89763413512429,139.14114683782995,152.76117089826124,142.32075804972638,177.22910466024015,209.9376879521768,179.32413196420055,189.35173287858683
1.3680347013680347,80.80391752506418,124.363189061928,157.74911538969025,146.45233441138993,177.7284235770312,210.7075657356509,180.50328616867185,191.64706784280008
1.4014014014014016,73.64514295191682,109.72618563041904,162.72960033955633,150.9444691172228,178.34101553324786,211.3441570232904,181.52837844657,193.89224497822016
1.4347681014347682,68.85703571090681,95.73001107600705,167.5976234319719,155.75173555417655,179.07605947733114,211.8152935612765,182.3616764132944,196.059988471111
1.4681348014681348,66.87532109725834,82.87453993139647,172.24818235104902,160.8287071092028,179.942734357722,212.08880709579088,182.9654476842446,198.12302250773664
1.5015015015015016,68.135724406196,71.65964672929127,176.57627478089998,166.12995716925315,180.9502191228615,212.13252937301507,183.30195987482003,200.054071274361
1.5348682015348682,73.07397093294398,62.58520600239538,180.47689840563703,171.61005912127922,182.10769272119057,211.91429213913057,183.3334806004201,201.82585895724807
1.5682349015682349,82.12578597272667,56.15109228341376,183.8450509093724,177.2235863522327,183.4243341011503,211.4019271403189,183.0222774764443,203.4111097426618
1.6016016016016017,95.72689482076863,52.8571801050494,186.57572997621835,182.9251122490651,184.90932221118152,210.56326612276163,182.330618118292,204.7825478168662
1.6349683016349683,114.31302277229412,53.20334400000748,188.563933290287,188.6692101987281,186.5718359997254,209.3661408326402,181.2207701413628,205.91289736612524
1.6683350016683351,138.31989512252744,57.689458500991606,189.70465853569056,194.4104535881733,188.42105441522287,207.7783830161362,179.65500116105596,206.7748825767028
1.7017017017017018,168.18323716669323,66.81539814070612,189.89290339654133,200.1034158043524,190.4661564061149,205.76782441943112,177.59557879277108,207.3412276348629
1.7350684017350684,204.33877420001565,81.08103745185517,189.02366555695147,205.70267023421687,192.7163209208425,203.3022967887065,175.0047706519075,207.5846567268696
1.7684351017684352,247.2222315177193,100.9862509671423,186.9919427010333,211.1627902647184,195.18072690784675,200.34963187014387,171.84484435386477,207.4778940389868
