Time,Left Shoulder Angle,Right Shoulder Angle,Left Elbow Angle,Right Elbow Angle,Left Hip Angle,Right Hip Angle,Left Knee Angle,Right Knee Angle
0.0,1.3174798268566938,1.781223855779425,188.0454555113516,172.72506722208777,164.27965602635288,202.8802320100013,186.415855082274,180.21270809309905
0.0333667000333667,1.5283718421635215,2.057357932755558,187.29329091665417,172.07229440609888,164.47376584081525,202.8952520528036,186.0019924423852,180.0848850424415
0.0667334000667334,1.7027788702662443,2.2638983412252416,186.67886529549023,171.51326365483547,164.65900047408493,202.930156909326,185.62892103386343,179.95822150229264
0.1001001001001001,1.8433041079478825,2.406548133267343,186.19408260403225,171.042822412275,164.83541934368395,202.9833755254593,185.295092204187,179.8330412104355
0.1334668001334668,1.952550751991457,2.4910103609607264,185.83084679845243,170.65581812239495,165.00308186713428,203.05333684709444,184.99895730083367,179.70966790465326
0.1668335001668335,2.033121999179988,2.5229880763842583,185.58106183492325,170.34709822917276,165.1620474619579,203.13846982012203,184.7389676712817,179.58842532272894
0.2002002002002002,2.087621046296497,2.508184331616804,185.43663166961707,170.11151017658594,165.31237554567684,203.23720339043297,184.51357466300897,179.46963720244565
0.2335669002335669,2.118651090124003,2.452302178737229,185.38946025870624,169.94390140861194,165.45412553581306,203.3479665039179,184.3212296234935,179.35362728158648
0.2669336002669336,2.1288153274455284,2.361044669824397,185.4314515583632,169.83911936922826,165.58735684988858,203.46918810646767,184.1603839002134,179.2407192979346
0.3003003003003003,2.120716955044093,2.2401148569571774,185.55450952476028,169.79201150241232,165.71212890542537,203.599297143973,184.02948884064665,179.131236989273
0.333667000333667,2.0969591697027177,2.0952157922144328,185.75053811406983,169.79742525214166,165.8285011199454,203.7367225623247,183.9269957922712,179.02550409338482
0.3670337003670337,2.0601451682044223,1.932050527675029,186.01144128246423,169.85020806239368,165.93653291097073,203.8798933074136,183.85135610256523,178.9238443480532
0.4004004004004004,2.012878147332229,1.756322115417832,186.32912298611592,169.9452073771459,166.0362836960233,204.02723832513024,183.8010211190067,178.82658149106118
0.4337671004337671,1.957761303869157,1.573733607521707,186.6954871811972,170.0772706403758,166.12781289262512,204.17718656136563,183.7744421890736,178.73403926019188
0.4671338004671338,1.8973978345982268,1.3899880560655198,187.10243782388045,170.24124529606078,166.2111799182982,204.32816696201044,183.770070660244,178.64654139322838
0.5005005005005005,1.8343909363024609,1.2107885131281366,187.54187887033808,170.43197878817838,166.2864441905645,204.47860847295547,183.786357879996,178.56441162795377
0.5338672005338673,1.7713438057648778,1.0418380307884214,188.0057142767424,170.64431856070604,166.35366512694603,204.62694004009143,183.8217551958074,178.4879737021512
0.5672339005672339,1.710859639768507,0.8888396611252449,188.4858479992674,170.87311205762262,166.41290214496613,204.7715906093109,183.874713955158,178.41755135360523
0.6006006006006006,1.528497821785126,0.7652934709500538,189.01561416752733,171.00713125373426,166.3970688686194,204.8726952032881,184.02488165274087,178.35139093230868
0.6339673006339673,1.3837543013568911,0.6927520176513088,189.5017475814545,171.17544802682045,166.39483916934412,204.97482686021385,184.15262902683543,178.2863866832911
0.6673340006673341,1.3028580805358572,0.658943886264998,189.869666283857,171.34488721872677,166.39435020463537,205.08997693605423,184.25242291632256,178.23952088347917
0.7007007007007008,1.2609689479066222,0.690164526736943,190.155232718534,171.5517431161559,166.3972789515135,205.20901097810813,184.3408159333352,178.20236417035522
0.7340674007340674,1.1986607390720243,0.690164526736943,190.1096639423103,171.63378346221774,166.467932996551,205.3669054371728,184.38911563573905,178.15200650200634
0.7674341007674341,1.1986607390720243,0.8208755925731595,190.0718730982829,171.7212424255796,166.5517349227427,205.51090306859308,184.43360628131603,178.1204700671777
0.8008008008008008,1.1986607390720243,0.8208755925731595,190.0577413641921,171.82762244699444,166.60613423331952,205.6140105785495,184.5072532676716,178.124568464836
0.8341675008341676,1.1986607390720243,0.8208755925731595,190.14309546767203,171.97007584212852,166.647310153571,205.68523614453105,184.60643699257912,178.1456458360535
0.8675342008675342,1.1986607390720243,0.8208755925731595,190.0601134586927,172.07993650097143,166.62710104340803,205.6666976167052,184.7576498166173,178.24251214450567
0.9009009009009008,1.1986607390720243,0.8208755925731595,190.0671612703217,172.26821848769194,166.579741987727,205.59407470154923,184.93310581631945,178.3772965603218
0.9342676009342676,1.1986607390720243,1.0355392236742134,190.00947082039937,172.3397541389252,166.52993810121495,205.54750593580985,185.1405466721288,178.47732065656558
0.9676343009676344,1.1986607390720243,1.0355392236742134,190.14348388102525,172.43770610782258,166.5008656583462,205.505562646046,185.3452363044792,178.54247408522355
1.001001001001001,1.1986607390720243,1.0355392236742134,190.6393117474504,172.21540576383984,166.43879921196643,205.4438157044445,185.5555990788884,178.5961579840344
1.0343677010343677,1.1986607390720243,1.0355392236742134,191.4706605244697,172.15821865001504,166.3896871169455,205.3698268883864,185.73217594280987,178.62211689080985
1.0677344010677343,1.1986607390720243,1.0355392236742134,192.6128446498816,172.0089083038141,166.35153216693138,205.29673963745503,185.8752883444496,178.60509572522147
1.1011011011011012,1.1986607390720243,1.0355392236742134,193.7290654470935,172.07641735106162,166.36207389386595,205.2156320127678,185.9676499016537,178.56156357065694
1.1344678011344678,1.1986607390720243,1.0355392236742134,194.8738933439108,171.92964211352316,166.4029559159241,205.1590625651474,186.02046283165765,178.48090450746406
1.1678345011678346,1.1986607390720243,1.2892792013522054,195.9952118986188,172.12545107804223,166.51334671968593,205.1025168121992,186.01449770457825,178.36968724748752
1.2012012012012012,1.1986607390720243,1.2892792013522054,197.23523500242223,172.5782992813972,166.6872064412306,205.0272330478808,185.94481957006576,178.2322532109732
1.234567901234568,1.2224366653344851,1.2892792013522054,197.9616587004485,173.8290597041878,166.91471480748382,204.93477183436625,185.814899540944,178.07737217076743
1.267934601267935,1.2224366653344851,1.2892792013522054,199.43470204845235,175.16799889591886,167.14466363062732,204.87497711430817,185.6658904482632,177.88318394337065
1.3013013013013013,1.3677806511965196,1.2892792013522054,200.992865011536,176.71031405631777,167.4380295058801,204.807456656726,185.46697168492403,177.68159564269405
1.334668001334668,1.3677806511965196,1.2892792013522054,201.7105916359306,178.15705518306436,167.78467501191344,204.73187804008387,185.2380814245141,177.4696378384598
1.3680347013680347,1.3677806511965196,1.2892792013522054,202.42491881795576,179.81252093302768,168.16986718508812,204.6318313290338,184.9613795491163,177.26538258068842
1.4014014014014016,1.3677806511965196,1.2892792013522054,203.82628334709,181.5896758064609,168.60464417746343,204.4845847853412,184.6266887948073,177.07645982005872
1.4347681014347682,1.3677806511965196,1.2892792013522054,205.5450709513136,183.6787978702204,169.08089544285275,204.28241426263187,184.2544686210808,176.90426986113857
1.4681348014681348,1.3677806511965196,1.586869837771604,206.34652605882965,185.83732964343017,169.6363812784955,204.05071597133,183.831908597951,176.73104241406722
1.5015015015015016,1.6340608382105228,1.586869837771604,206.88877614184872,188.28637735392803,170.1859908602033,203.7618089296332,183.39364491344227,176.5797997384116
1.5348682015348682,1.6340608382105228,1.586869837771604,208.36949356721803,190.5419686424288,170.6967165199092,203.42760665564745,182.97440241965336,176.45092288522895
1.5682349015682349,1.6340608382105228,1.586869837771604,209.7472262524273,193.13187464949493,171.17679091001864,203.04145942769472,182.57234748036112,176.3448593649357
1.6016016016016017,1.6340608382105228,1.586869837771604,211.3561546449023,196.16955718668484,171.57393287339258,202.635311578552,182.19105549419143,176.2527318741943
1.6349683016349683,1.6340608382105228,1.586869837771604,212.74771247549484,199.5133752229333,171.92337292385807,202.20853340538252,181.8147848309817,176.18899950000167
1.6683350016683351,1.6340608382105228,1.586869837771604,213.9226837777456,207.67951651967792,172.25741677419427,201.7858785954239,181.45462889511427,176.15985497250716
1.7017017017017018,1.6340608382105228,1.586869837771604,214.7788623768375,214.3058835928908,172.5625658871177,201.3333528106673,181.09583385625743,176.16757895985378
1.7350684017350684,1.6340608382105228,1.586869837771604,216.82178769702853,219.4398824160048,172.81854908181325,200.8823471491947,180.72454671241616,176.20832420900504
1.7684351017684352,1.895117524121208,1.8915606080346103,218.0282991389161,223.19571484678403,173.06515521652034,200.40336314027127,180.3244324100994,176.2975939137223
1.8018018018018016,1.895117524121208,1.8915606080346103,218.4802176483284,225.3887586198336,173.2504275860095,199.89312382381104,179.96893188662608,176.4398294131333
1.8351685018351689,1.895117524121208,1.8915606080346103,218.233693960457,226.46729392352395,173.41762917823917,199.32642758815035,179.61885134383877,176.61362643890268
1.8685352018685355,1.895117524121208,1.8915606080346103,218.7296635947025,226.31735610949053,173.5952740864198,198.71573055739884,179.28335119579646,176.8159551056614
1.901901901901902,1.895117524121208,1.8915606080346103,218.8470514775663,225.4210402265604,173.7064159129262,198.01826267842307,178.9729715809539,177.07690824350135
1.9352686019352687,1.895117524121208,1.8915606080346103,218.23510710852332,224.53272482553896,173.73075990735717,197.26925951957668,178.71340457642387,177.39223957771182
1.968635301968636,1.895117524121208,1.8915606080346103,216.6263684616867,222.4036797919432,173.71592558411749,196.4991373906333,178.4528956483557,177.7373809199852
2.002002002002002,1.895117524121208,1.8915606080346103,214.0896909439265,219.635580602412,173.65740101424805,195.66503640844132,178.1872735806615,178.11074248835416
2.035368702035369,1.895117524121208,1.8915606080346103,210.9068879305121,216.1031973091672,173.6294135872352,194.88652841674,177.87465120119938,178.42987741826
2.0687354020687354,2.2283403928685783,2.243462776423849,205.30196514421388,211.29175400263432,173.57753384014538,194.20156408754207,177.56348895063616,178.6955099499747
2.1021021021021022,2.2283403928685783,2.243462776423849,199.92997015966804,205.89172678069684,173.52373200768412,193.540714796961,177.198474252135,178.95090190983046
2.135468802135469,2.2283403928685783,2.243462776423849,194.7124826296631,199.53797337464687,173.44729981120514,192.9006091836897,176.79702829806334,179.1953442217289
2.1688355021688355,2.2283403928685783,2.243462776423849,189.6516541601936,193.3531661760005,173.4151064643996,192.3133953681889,176.33846299190796,179.397823745387
2.2022022022022023,2.2283403928685783,2.243462776423849,184.0849709945255,187.6228803556686,173.3315963875395,191.8169855768474,175.8852549723406,179.7160757372626
2.235568902235569,2.2283403928685783,2.243462776423849,178.2945352655027,182.0160901571977,173.30823523699996,191.34724575150813,175.38753050526086,179.9467380016298
2.2689356022689355,2.2283403928685783,2.243462776423849,172.41375902994852,176.0486800890889,173.33912657046636,190.9364996135592,174.8430749187016,180.10035158764532
2.3023023023023024,2.2283403928685783,2.243462776423849,166.1873412215394,170.80734711144274,173.3813424290262,190.4381659688931,174.15493346322296,180.23983290983617
2.335669002335669,2.2283403928685783,2.243462776423849,160.90697322285524,164.94403666746692,173.5174117611717,190.0820875339003,173.4319007123708,180.3152583073661
2.369035702369036,2.2283403928685783,2.243462776423849,155.34845376521062,159.04512270999365,173.72636456090163,189.843435677386,172.7049192013843,180.32296477841228
2.4024024024024024,2.2283403928685783,2.243462776423849,150.13057122953865,151.7448832376091,174.11747681599613,189.58389401555127,171.79052306526378,180.32184150584783
2.4357691024357693,2.642481925619742,2.243462776423849,144.2943729150416,145.31000412912533,174.612487887895,189.36501592611089,170.88651488770978,180.270588045294
2.469135802469136,2.642481925619742,2.664810575996322,138.1777427290168,139.0869462869351,175.15373969583797,189.34845398465123,169.9144507445947,180.07454242595986
2.5025025025025025,2.642481925619742,2.664810575996322,133.38439797782553,134.01887169607622,175.7167829893063,189.40370812199924,169.0108851176548,179.82998311713015
2.5358692025358693,2.642481925619742,2.664810575996322,128.88500199208258,129.5497394714374,176.39652247186496,189.55853066524688,168.0757202096362,179.51224302057977
2.569235902569236,2.642481925619742,2.664810575996322,124.48724365865174,125.68674588928072,177.08839517432335,189.8168534848041,167.2854190203079,179.14760428881738
2.6026026026026026,2.642481925619742,2.664810575996322,120.466863693893,123.45077067565632,177.75436263880826,190.1636970830775,166.59757041951323,178.7116018970069
2.6359693026359694,2.642481925619742,2.664810575996322,118.33378085396866,122.37336279822628,178.26452103831997,190.58688901332889,166.18650073017673,178.2523430553902
2.669336002669336,2.642481925619742,2.664810575996322,114.20753028805603,123.45277085655331,178.77204693894163,190.9216928072049,165.92666014461125,177.80055786315336
2.702702702702702,2.642481925619742,2.664810575996322,117.32142846252256,126.10607885938616,179.14277328816175,191.29681930089137,165.9544998037693,177.38526705358694
2.736069402736069,2.642481925619742,2.664810575996322,115.60697503716004,125.16972651349236,179.27631132269985,191.75403890304227,166.26685895128946,176.96266329794273
2.802802802802803,2.642481925619742,2.664810575996322,115.55166197569724,126.42586093499008,179.31862982344907,192.27050388836423,166.82848718859992,176.6318232970224
2.836169502836169,2.642481925619742,2.664810575996322,116.14624165065644,136.46136481285905,179.30943570731677,192.8294390913098,167.5567363688639,176.17244299644048
2.8695362028695364,2.642481925619742,2.664810575996322,118.72779063795014,139.94409511395682,179.17676456285312,193.3946191820139,168.49663809682073,175.82627696154094
2.9362696029362696,3.1391859706377616,3.1530584254580765,122.18313007402068,143.55167244279932,178.96390109765986,193.96097927597407,169.62764290874466,175.4948321842684
2.9696363029696364,3.1391859706377616,3.1530584254580765,125.21468331848952,146.0836957221447,178.70022140114426,194.52761044981068,170.90435520984445,175.3480289021765
3.003003003003004,3.1391859706377616,3.1530584254580765,131.52066591476776,144.37209477558875,178.27937564159834,195.09928726491216,172.37923299610813,175.26984420911768
3.0363697030363697,3.1391859706377616,3.1530584254580765,138.12340628141695,144.6238856133611,177.84432998518008,195.7040147663625,173.90252799255612,175.3436941293539
3.0697364030697365,3.1391859706377616,3.1530584254580765,145.65092754517335,142.366958843879,177.33455893742064,196.19766763379943,175.5543083527609,175.70060119151276
3.103103103103104,3.1391859706377616,3.1530584254580765,151.83890835609856,140.61848852358116,176.8091248650822,196.7085881098577,177.24356689774854,176.2406956237289
3.1364698031364697,3.1391859706377616,3.1530584254580765,157.5720368683133,139.8852004543354,176.1275312544347,197.27308948812964,179.02240411945272,176.92571413205548
3.169836503169837,3.1391859706377616,3.1530584254580765,162.80783401126718,138.40058374098246,175.5088001600925,197.98326062039976,180.7670362376016,177.68557222880153
3.2032032032032034,3.1391859706377616,3.1530584254580765,167.27340224450873,137.65606125704986,174.8431104827617,198.7292970342681,182.5799650241635,178.59920706301006
3.2365699032365702,3.1391859706377616,3.1530584254580765,171.15137022633766,136.68267142066165,174.31709816758212,199.5773909534212,184.27298504022235,179.7064734070614
3.2699366032699366,3.1391859706377616,3.1530584254580765,174.38861773950822,135.3392130402323,173.88485537173875,200.46711253878732,185.7773839018428,180.94705455494184
3.3033033033033035,3.412691574476537,3.1530584254580765,179.23281770132658,134.55013907057412,173.65686907108685,201.4264011774941,187.0871417329756,182.31567743391864
3.3366700033366703,3.412691574476537,3.1530584254580765,184.19722535680165,134.37028763452122,173.55349208203398,202.51747434970443,188.27314807485664,183.77213505892567
3.3700367033700367,3.412691574476537,3.1530584254580765,188.8296021164266,134.75900469487823,173.65461814723386,203.72268594399424,189.2662095943686,185.3037731968008
3.4034034034034035,3.412691574476537,3.1530584254580765,192.6997122548736,134.7557487192953,173.9829151512285,205.08859092539825,190.0297601595533,186.8608675973132
3.4367701034367704,3.412691574476537,3.682633012259672,196.22275027862727,134.0464515229915,174.64998774148927,206.5249767847272,190.49484768795887,188.2388364685003
3.4701368034701368,3.412691574476537,3.682633012259672,195.6670530776593,133.62358550648017,175.62463654132958,208.10581579189167,190.69624206421707,189.5531951691072
3.503503503503504,3.412691574476537,3.682633012259672,195.4857059159086,133.18054839492092,176.87525998074116,209.7950769924172,190.6166398074864,190.7901651693101
3.5368702035368704,3.412691574476537,3.682633012259672,201.6982275327093,131.36545820586792,178.26319058991868,211.70295127011337,190.312270301532,191.80753369329508
3.5702369035702373,3.676806157056847,3.682633012259672,205.81923252247304,128.31175566842398,179.91506793786206,213.5605262628148,189.74834080836985,192.720426311941
3.603603603603604,3.676806157056847,3.682633012259672,214.8905462181268,125.4647662532877,181.8954042534872,215.47106172326176,188.9240311605504,193.3735349820917
3.6369703036369705,3.676806157056847,3.682633012259672,214.4053336087673,124.83335757296452,183.93388920141712,217.47620456219977,188.0878445015092,193.85897997657264
3.670337003670337,3.676806157056847,3.682633012259672,212.57149309497663,123.0558108227434,186.15798944171016,219.55645498906424,187.0512182711816,194.2204497523175
3.703703703703704,3.676806157056847,3.682633012259672,210.97256711184383,123.00567339747305,188.4280866133576,221.3891987407753,186.0334654680782,194.6807272026376
3.737070403737071,3.676806157056847,3.682633012259672,208.43332729789603,124.67721749490084,190.775706837457,223.06011450715647,184.87543198266857,195.0920243115763
3.770437103770437,3.676806157056847,3.682633012259672,206.2508270549144,128.38415636249078,193.02556120785107,224.53897982308183,183.81922573494228,195.60021918622652
3.803803803803804,3.87601403053456,3.682633012259672,204.23444414112083,132.19959623423034,195.19154932375616,226.09055965905927,182.7071730869485,195.8664974411113
3.8371705038371706,3.87601403053456,3.682633012259672,201.96098998451887,137.63254314515098,197.2062798455136,227.2838308794767,181.6731558536656,196.2619241070928
3.8705372038705375,3.87601403053456,3.682633012259672,198.7412787489636,143.51734226192045,199.056248586294,227.9887523757835,180.79420784308587,196.8368772961216
3.903903903903904,3.87601403053456,3.682633012259672,199.38876653161245,148.3695967020862,200.5433000670183,228.44441921190307,180.22325094781016,197.59487724854068
3.937270603937271,3.87601403053456,3.682633012259672,193.27058951375065,152.93296505007717,201.89227366994788,228.65470394906063,179.82955912843394,198.35617197209456
3.9706373039706375,3.87601403053456,4.23979637691196,191.8925228565785,163.35199039009154,203.14552254814944,228.5956766239234,179.59217353108937,199.2759103103398
4.004004004004004,3.87601403053456,4.23979637691196,189.9252132832065,175.1837211988592,204.25499464000688,228.18298165416888,179.52575192506245,200.27933454012896
