Time,Left Shoulder Angle,Right Shoulder Angle,Left Elbow Angle,Right Elbow Angle,Left Hip Angle,Right Hip Angle,Left Knee Angle,Right Knee Angle
0.0,4.730148103730698,0.7989397298316501,185.14707108911892,165.54241900239933,162.89614327498575,202.063704897454,180.3921967752869,179.93483283651165
0.0333667000333667,4.901611225894881,0.7925233349205685,186.45472785461567,166.52048764802373,162.94362170127118,202.1590639811921,180.13865716354738,179.88767695845297
0.0667334000667334,5.000937328704775,0.7858222544944804,187.5196708194836,167.4205762714348,163.01281883805487,202.2170229975914,179.88677275264112,179.87154155647085
0.1001001001001001,5.033993057815666,0.7800585814540233,188.36100672263643,168.24299339246332,163.10112656692945,202.24014025452576,179.63744451550355,179.8839207134223
0.1334668001334668,5.006645058882842,0.7764544086998348,188.99784230298803,168.98804753094004,163.20593676948752,202.230974059869,179.39157342507005,179.9223085121644
0.1668335001668335,4.9247599775615925,0.7762318291325526,189.44928429945213,169.65604720669575,163.32464132732176,202.192082721495,179.15006045427603,179.98419903555424
0.2002002002002002,4.794204459507202,0.7762318291325526,189.7344394509425,170.2473009395612,163.45463212202475,202.12602454727764,178.91380657605683,180.06708636644888
0.2335669002335669,4.620845150374961,0.7762318291325526,189.8724144963728,170.76211724936712,163.59330103518914,202.03535784509072,178.68371276334787,180.16846458770536
0.2669336002669336,4.410548695820155,0.7762318291325526,189.8823161746569,171.20080465594435,163.7380399484075,201.9226409228081,178.46067998908453,180.2858277821808
0.3003003003003003,4.169181741498072,0.7762318291325526,189.7832512247085,171.5636716791236,163.88624074327254,201.7904320883038,178.24560922620216,180.41667003273216
0.333667000333667,3.902610933064,0.7762318291325526,189.59432638544143,171.85102683873563,164.0352953013768,201.6412896494515,178.0394014476362,180.55848542221665
0.3670337003670337,3.616702916173228,0.7762318291325526,189.33464839576936,172.06317865461125,164.18259550431296,201.47777191412507,177.842957626322,180.7087680334912
0.4004004004004004,3.3173243364810414,0.7762318291325526,189.02332399460607,172.20043564658118,164.32553323367358,201.30243719019845,177.65717873519498,180.86501194941297
0.4337671004337671,3.01034183964273,0.7762318291325526,188.67945992086533,172.2631063344762,164.4615003710514,201.11784378554543,177.4829657471905,181.024711252839
0.4671338004671338,2.7016220713135786,0.7762318291325526,188.3221629134609,172.25149923812708,164.5878887980389,200.92655000804,177.32121963524392,181.1853600266264
0.5005005005005005,2.397031677148876,0.7762318291325526,187.9705397113065,172.16592287736458,164.7020903962288,200.73111416555585,177.17284137229066,181.34445235363208
0.5338672005338673,2.1024373028039123,0.7762318291325526,187.643697053316,172.0066857720195,164.8014970472137,200.5340945659669,177.0387319312661,181.49948231671328
0.5672339005672339,1.8237055939339903,0.7762318291325526,187.3607416784044,171.7740964419239,164.88350063258758,200.3380495171487,176.91979228510718,181.64794399872835
0.6006006006006006,1.6852631602475283,0.7762318291325526,187.37972983749395,171.1309163253566,164.900032253539,200.108574788942,176.82237540310223,181.82005022054105
0.6339673006339673,1.5794394951354462,0.7762318291325526,187.92523384191983,170.30801942280374,164.8660266490224,199.8794765000588,176.73407431998376,182.0088349833234
0.6673340006673341,1.4597167145291674,0.7762318291325526,188.591542209834,169.45210872095956,164.8011924465099,199.68200976855164,176.6635662683595,182.1573864864055
0.7007007007007008,1.3392520612082692,0.7762318291325526,189.292169292938,168.701078775228,164.69912239163534,199.52762887021524,176.62109367622446,182.2580473498205
0.7340674007340674,1.2671837354140354,0.7762318291325526,189.96593590987712,168.02716503151913,164.57103099876312,199.41549797784623,176.61320043300887,182.3041124155967
0.7674341007674341,1.2302516420850436,0.7806129356528142,190.51963018290547,167.45000571703986,164.41452299100482,199.3404554703579,176.64361328741364,182.28196445717955
0.8008008008008008,1.2209652631494423,0.7908198211612572,191.09299502533,166.9565204538208,164.23762407698695,199.30094549627057,176.7092721975193,182.21077230483337
0.8341675008341676,1.2209652631494423,0.8080745785585192,191.4561143043022,166.5626369914181,164.08729353493112,199.34484778838376,176.791015181866,182.06794913898165
0.8675342008675342,1.2209652631494423,0.8335993007452378,191.86901007315555,166.21734588978265,163.95542258261426,199.4327029365848,176.87876214770498,181.88470698731268
0.9009009009009008,1.2209652631494423,0.8686160806220506,192.32317935370853,165.44714053535347,163.81541252084693,199.52444276406925,176.9637187020422,181.69302477559364
0.9342676009342676,1.2209652631494423,0.9143470110895952,192.9666859589955,164.80871582729162,163.6759481656968,199.6196078266622,177.04340699364263,181.48599193185
0.9676343009676344,1.2209652631494423,0.9143470110895952,193.7740713423999,164.62868423051682,163.5268047934511,199.7353530641793,177.13431953155057,181.25097061876977
1.001001001001001,1.2209652631494423,0.9720141850485094,194.6072544440058,164.63921361691115,163.3719966436817,199.84833546792288,177.23148256411434,181.0182941617186
1.0343677010343677,1.2209652631494423,0.9720141850485094,195.50161266481487,164.70081485014595,163.21824130844482,199.9526766246921,177.32039892543617,180.791542847778
1.0677344010677343,1.2209652631494423,1.0428396953994306,196.34537446659144,164.8254084617968,163.07739209162543,200.050951135407,177.39491821562603,180.5702203793925
1.1011011011011012,1.2209652631494423,1.0428396953994306,197.163867583038,164.85867903969944,162.9550122952451,200.15631369530172,177.4639073156277,180.34690821265872
1.1344678011344678,1.2209652631494423,1.1280456350429964,197.94123525473688,164.9129191107804,162.84558308662858,200.2465045575932,177.53542762586252,180.13205547968036
1.1678345011678346,1.2209652631494423,1.1280456350429964,198.5779917912931,165.0549716521634,162.7505473238919,200.321342589158,177.61473019722854,179.93347113038945
1.2012012012012012,1.2209652631494423,1.1280456350429964,198.9742163984651,165.31307596285546,162.68043596430863,200.36646637046348,177.7004316673951,179.77651361787312
1.234567901234568,1.2209652631494423,1.2288540968798445,198.9543663402394,165.83895954109485,162.63042342602026,200.38356419598972,177.78607818317064,179.67656613133337
1.267934601267935,1.2658487666847638,1.2288540968798445,198.836958034545,166.46443128520266,162.59980238930487,200.3740889322832,177.8710389120062,179.62134471183717
1.3013013013013013,1.2658487666847638,1.2288540968798445,198.5866858639253,166.84599069790949,162.59917305178902,200.3516617686164,177.94670566120465,179.59991404156838
1.334668001334668,1.3826749656006565,1.346487173810612,198.4398737343446,167.04807197387268,162.63859422442698,200.31204619798288,178.00679714746812,179.61368209049868
1.3680347013680347,1.3826749656006565,1.346487173810612,197.7746215887114,167.37249401517454,162.69810267639355,200.2374035122158,178.05347907073508,179.66787819017262
1.4014014014014016,1.3826749656006565,1.346487173810612,197.0417945138221,167.83370809553588,162.76072556088613,200.1078280456116,178.10558095567285,179.76948638648173
1.4347681014347682,1.3826749656006565,1.346487173810612,196.5490811962012,168.61641434619992,162.83711364315022,199.92233487141064,178.16272532949188,179.93434519446927
1.4681348014681348,1.3826749656006565,1.4821669587359347,196.3627855015681,169.32187610887115,162.8921748796238,199.71489982008288,178.22544425083044,180.0725956433415
1.5015015015015016,1.5709814257303123,1.4821669587359347,196.40625889243847,169.79395572420208,162.92301845768276,199.46912902255536,178.2860591809695,180.2128843377012
1.5348682015348682,1.5709814257303123,1.4821669587359347,196.8206282797489,170.32870759906965,162.9479280725667,199.2025595384112,178.33893902227183,180.36788206867365
1.5682349015682349,1.5709814257303123,1.4821669587359347,197.58358566999493,170.54228040449084,162.9486647745777,198.8976498361259,178.39388287963538,180.56137540444857
1.6016016016016017,1.5709814257303123,1.6501960926001755,198.6909957509888,170.71443154022296,162.93641805433455,198.5704902792281,178.43852935755024,180.78910667384025
1.6349683016349683,1.5709814257303123,1.6501960926001755,200.43208238089545,171.51142354958623,162.90694261749337,198.23173369197448,178.47480819772457,181.0315558184201
1.6683350016683351,1.5709814257303123,1.6501960926001755,202.20796498712323,172.41173240091229,162.85556880955772,197.88445907204803,178.50533723492634,181.2893593564052
1.7017017017017018,1.788570970684842,1.6501960926001755,203.757201940328,174.18378955538918,162.78837288086322,197.54260262751257,178.54743901543944,181.55859766011707
1.7350684017350684,1.788570970684842,1.6501960926001755,205.3424518858343,176.50403511662637,162.72770240680606,197.27783586731147,178.57374921050453,181.7508970826084
1.7684351017684352,1.788570970684842,1.6501960926001755,207.07303665172952,175.57798860759146,162.68585886610148,197.0913145336883,178.58380608186377,181.87645228867143
1.8018018018018016,1.788570970684842,1.8469047152896887,208.26108865138264,175.01116017562526,162.6810233184809,196.9800871688315,178.58738938379767,181.9132958372132
1.8351685018351689,1.788570970684842,1.8469047152896887,209.3635950729524,174.65533016105562,162.70934877896525,196.9328433253315,178.57731887610456,181.8868319534145
1.8685352018685355,1.8902682986855608,1.8469047152896887,210.3550370957539,174.62637444004238,162.7886153733984,196.9336342497251,178.53877526742434,181.809664070198
1.901901901901902,1.8902682986855608,1.8469047152896887,211.51471980715283,176.42539620641725,162.90696875710836,196.987061154779,178.4829684931189,181.6767937602363
1.9352686019352687,1.8902682986855608,1.8469047152896887,212.7500846150006,178.18398730525743,163.07202106984823,197.0954650104157,178.4011211258517,181.5111344975979
1.968635301968636,1.982677077108398,1.8469047152896887,213.8278508529397,179.0476832173848,163.29483459823172,197.28169955932668,178.2902522884747,181.30664098123887
2.002002002002002,1.982677077108398,2.066497056005596,214.9662775963461,178.31746101176722,163.52126507867442,197.4519449694393,178.15922449106515,181.1041700116035
2.035368702035369,2.0454397118805363,2.066497056005596,215.89500156170567,179.30912276318165,163.7307496834583,197.62626703850304,178.00867362856548,180.9027980278116
2.0687354020687354,2.0454397118805363,2.066497056005596,216.885800476124,180.6121059620284,163.94845416432383,197.82370900634007,177.85337573374187,180.6729737990148
2.1021021021021022,2.0454397118805363,2.066497056005596,217.9435893165193,181.58821439024544,164.17781976088887,198.06166999036765,177.68500882508133,180.404841241308
2.135468802135469,2.213375872851543,2.066497056005596,218.8109557849488,181.94945087732333,164.42273214928414,198.2987463697836,177.49561790311677,180.13025162676934
2.1688355021688355,2.213375872851543,2.066497056005596,219.23378472597736,182.4338777101568,164.6839958445868,198.5086605806551,177.29198997858768,179.86622374122058
2.2022022022022023,2.213375872851543,2.066497056005596,219.5065044107973,182.7414073576469,164.95161922798545,198.6900977981145,177.09687920078412,179.61769334242828
2.235568902235569,2.213375872851543,2.273520571447319,218.4587148219372,182.7552243289966,165.2546401453793,198.8956091620948,176.88003445598574,179.35881068277416
2.2689356022689355,2.213375872851543,2.273520571447319,221.6370218602632,183.2364154131162,165.54445155122212,199.0748313791644,176.6491659980192,179.1270641437077
2.3023023023023024,2.213375872851543,2.273520571447319,223.3779548368088,183.27234155372545,165.8075599024457,199.20542255807288,176.41441809478906,178.93799444240898
2.335669002335669,2.450599902139215,2.273520571447319,223.72310453201104,182.86028664663507,166.0576669031371,199.2678802411956,176.18185382731775,178.7979561622702
2.369035702369036,2.450599902139215,2.273520571447319,217.85644975721576,180.908983361592,166.2850759196614,199.23196921391016,175.9716121296453,178.7200575908213
2.4024024024024024,2.450599902139215,2.273520571447319,213.57499307440372,179.4627177861972,166.49932345693324,199.11095538739548,175.7740007679278,178.68126944174315
2.4357691024357693,2.450599902139215,2.5134316219850024,209.91917180543032,177.8496890423074,166.69182253747834,198.92914551612265,175.6002187801523,178.6739440987458
2.469135802469136,2.450599902139215,2.5134316219850024,206.70888078928172,176.19404379039815,166.8557592493399,198.6731275056648,175.4478539855709,178.70883504008935
2.5025025025025025,2.450599902139215,2.5134316219850024,202.0112431245816,174.6689136262507,166.99327497300482,198.3522194170878,175.3033669327846,178.78478650399353
2.5358692025358693,2.450599902139215,2.5134316219850024,204.7450298372145,173.18566100685155,167.10836216831058,197.9824983181768,175.17320886898847,178.90112184091802
2.569235902569236,2.450599902139215,2.5134316219850024,200.81838844486808,171.77439020118567,167.2079154029026,197.57060770642536,175.04540229689906,179.05640811047553
2.6026026026026026,2.450599902139215,2.5134316219850024,197.9776843659765,170.32990407223218,167.27794964869335,197.1238931536233,174.92638595878475,179.2338078554571
2.6359693026359694,2.7731533912458053,2.5134316219850024,203.2531994329412,169.17151487882057,167.3051191470666,196.62874381090336,174.83254099588416,179.45423690269246
2.669336002669336,2.7731533912458053,2.5134316219850024,203.43994035201024,168.4669017701786,167.30777918367528,196.10338491663884,174.75611736065045,179.70986502998062
2.702702702702702,2.7731533912458053,2.80006805901465,205.3598615908305,169.52437139481958,167.2886770736791,195.55599266521835,174.70306453423797,179.9912607248324
2.736069402736069,2.7731533912458053,2.80006805901465,205.9346643199761,171.23628338044358,167.26813422138014,195.023008165314,174.6570297931653,180.2612733633026
2.7694361027694363,2.7731533912458053,2.80006805901465,204.65543200623924,171.26546745666076,167.2273784583193,194.49612551924525,174.62624969132014,180.5269783083868
2.802802802802803,2.7731533912458053,2.80006805901465,201.00067555477952,170.50538158573556,167.19075702896308,193.9972500294516,174.6057797012657,180.7807285413952
2.836169502836169,2.7731533912458053,2.80006805901465,199.4170775212428,170.87369468112993,167.1719401999517,193.5418011906208,174.60084058271673,181.01736343844635
2.8695362028695364,2.7731533912458053,2.80006805901465,196.9473141118528,169.12652453543063,167.17384181865123,193.1254376453324,174.583644022188,181.2345836210512
2.902902902902903,2.7731533912458053,2.80006805901465,191.27154616285245,163.03646341901555,167.177300124442,192.7376292017416,174.57920200406096,181.440034113174
2.9362696029362696,2.7731533912458053,2.80006805901465,185.3245903310066,159.70027617515152,167.18065292684008,192.38298161075923,174.5758580296159,181.6290714823964
2.9696363029696364,2.7731533912458053,2.80006805901465,180.0537887759157,155.8685450113895,167.18174745213125,192.06816031284708,174.57411440847102,181.798656737872
3.003003003003004,3.190248633691476,3.125742172642599,174.24847544939277,152.9008555971334,167.18318325387284,191.8024964057743,174.57600131583317,181.94288492725187
3.0363697030363697,3.190248633691476,3.125742172642599,168.66807838210664,156.97314937101598,167.18820793621444,191.58947866734675,174.59619048312192,182.0655582238621
3.0697364030697365,3.190248633691476,3.125742172642599,163.39666430749375,158.88358623821338,167.2001885020699,191.43322808957507,174.61108467040157,182.16658365314385
3.103103103103104,3.190248633691476,3.125742172642599,155.78433945076097,155.62676886613812,167.2508565596498,191.3438872104519,174.6099081583776,182.24239658301715
3.1364698031364697,3.190248633691476,3.125742172642599,147.65523514270188,155.2945551565679,167.2935734324236,191.28693083007417,174.59060193200852,182.2913308039008
3.169836503169837,3.190248633691476,3.125742172642599,138.40125759814714,153.77080173190743,167.30470186851596,191.28996475979932,174.5579711342973,182.32552952165548
3.2032032032032034,3.190248633691476,3.125742172642599,138.58099901747454,150.2104768139857,167.30577650548426,191.3338298049701,174.50024625748955,182.32999744239063
3.2365699032365702,3.190248633691476,3.125742172642599,134.93614931172232,149.25834424057726,167.30811623172897,191.4526607738888,174.4164452048856,182.2989885038898
3.2699366032699366,3.190248633691476,3.125742172642599,130.83461860972628,148.37418272242036,167.3056986001227,191.5730263872168,174.31292879693518,182.25954169700125
3.3033033033033035,3.190248633691476,3.125742172642599,127.14057737466536,147.00294492009346,167.2940864724324,191.67374775094112,174.18988220380035,182.22854918281604
3.3366700033366703,3.190248633691476,3.4634720067718723,124.1161642709276,145.1628948363031,167.27600182861303,191.7898653287032,174.04111707859315,182.18318735036132
3.3700367033700367,3.190248633691476,3.4634720067718723,124.5427635603524,141.87917622116936,167.28284255278533,191.9416872441896,173.86177748231825,182.1066671093556
3.4034034034034035,3.190248633691476,3.4634720067718723,116.35161939977183,138.63414386737568,167.26932692853228,192.06553887278065,173.69285312553714,182.02335726823745
3.4367701034367704,3.190248633691476,3.4634720067718723,104.57560649451216,131.58837467327842,167.28122287922244,192.14671973824568,173.53455464306887,181.9580744928577
3.4701368034701368,3.7083582837581432,3.4634720067718723,93.72227262915132,123.7093003385382,167.2826262180355,192.1909303171399,173.3818029030742,181.895920412176
3.503503503503504,3.7083582837581432,3.4634720067718723,94.8690762800207,116.47683913026032,167.2434890964667,192.2175132081636,173.24006493158393,181.83967119613388
3.5368702035368704,3.7083582837581432,3.4634720067718723,100.540680687147,110.90162699590982,167.1873647538773,192.2704813481511,173.0870478702543,181.76415934401467
3.5702369035702373,3.7083582837581432,3.4634720067718723,105.14230874712892,104.0231503856022,167.0961434844825,192.3471843513571,172.92585222802185,181.6674688554392
3.603603603603604,3.7083582837581432,3.4634720067718723,109.01899594083328,97.52756444625555,166.99963093505687,192.4384469948396,172.74747042695745,181.54980578577187
3.6369703036369705,3.7083582837581432,3.4634720067718723,112.71206483494404,91.7082690974144,166.88691980391715,192.44367534365028,172.4440291312556,181.48190815557723
3.670337003670337,3.7083582837581432,3.4634720067718723,118.43540902628676,85.92458278140685,166.75582933705277,192.47445902396245,172.16164896324565,181.4006466191792
3.703703703703704,3.7083582837581432,3.836294100212196,105.37113236746268,81.14103141186025,166.59530832516532,192.49475183659808,171.96795227171532,181.3422041932329
3.737070403737071,3.7083582837581432,3.836294100212196,102.23840577512529,77.11145269334683,166.4645968264589,192.5805798411796,171.85541132940344,181.24491509745167
3.770437103770437,3.7083582837581432,3.836294100212196,113.48796702363934,73.47115148330316,166.38038565717446,192.6984596422968,171.7341304938102,181.1212905675178
3.803803803803804,3.7083582837581432,3.836294100212196,115.1838439877188,70.58598364431522,166.31820436315837,192.87227547252124,171.65283324874218,180.9581680322732
3.8371705038371706,3.7083582837581432,3.836294100212196,119.43943518006785,67.59643632395628,166.28128161849924,193.05040905626177,171.55008129970165,180.7981514925078
3.8705372038705375,3.7083582837581432,3.836294100212196,119.269157109555,63.234011998157946,166.25240102373428,193.2488154692175,171.51109440860998,180.6186390286673
3.903903903903904,3.7083582837581432,3.836294100212196,119.25908515402608,58.38432313100265,166.22342564091915,193.45789323750623,171.55786062628465,180.4016601841986
